x,y,v_x,v_y,omega
2.375,32.48,0.0,3.282051282051282,-5.673469387755102
2.3738770617251115,31.895975161842276,-0.012477091943203638,3.2071135863678246,-5.323845952512274
2.370668454353127,31.32517202974491,-0.023174101078851844,3.1351434369362576,-5.006390411650255
2.365672713105447,30.767073729495117,-0.03233413500647415,3.065948788061459,-4.717250210747374
2.3591478650762125,30.221196372072153,-0.04016417642946911,2.999355183304784,-4.453120688568347
2.3513173968780587,29.68708608482215,-0.04684102577223637,2.9352035639175083,-4.211155921395497
2.342375250185909,29.164316405220905,-0.052516159696096125,2.873348431651865,-3.9888958685877443
2.3324900205827106,28.65248597975245,-0.05731972478388505,2.813656295775438,-3.7842065055265595
2.321808500064299,28.15121652161257,-0.06136383653180035,2.7560043502231792,-3.595230373753562
2.3104586762624515,27.660150989599266,-0.06474531682206172,2.7002793388135338,-3.4203455386597352
2.298552280003944,27.178951957313565,-0.06754797493913092,2.646376575472035,-3.2581313716950646
2.2861869558548276,26.707300147128535,-0.06984451560661059,2.5941990932505212,-3.107339901594596
2.2734481167781633,26.244893107630322,-0.07169814080076883,2.5436569011740784,-2.96687173260509
2.2604105331924846,25.791444016644547,-0.07316389904010448,2.4946663320011973,-2.835755725339869
2.247139697976568,25.346680594721594,-0.0742898255811937,2.447149467142721,-2.713131791047446
2.2336930018804053,24.910344116206513,-0.07511790882060934,2.4010336274692956,-2.598236272657858
2.220120748031169,24.482188506870784,-0.07568491172646238,2.3562509207054836,-2.4903894833811715
2.206467029501572,24.06197951861604,-0.07602307193573073,2.312737837680541,-2.388985051468156
2.192770490029415,23.649493973037462,-0.07616069997712106,2.2704348909703547,-2.293480782256751
2.179064984778412,23.244519066706072,-0.07612269170068978,2.2292862904895228,-2.2033907990777095
2.165380155382826,22.84685173193347,-0.07593096825026707,2.189239651428285,-2.118278765491299
2.151741931319559,22.456298047549556,-0.07560485467491766,2.150245730615207,-2.0377520246242873
2.1381729678191177,22.072672694878374,-0.07516140644109924,2.112258187953478,-1.9614565185950184
2.1246930289955053,21.69579845465807,-0.074615691599039,2.0752333700498817,-1.889072373349407
2.1113193235914416,21.325505741134137,-0.07398103511277948,2.0391301135493776,-1.820310052625275
2.0980667996562534,20.961632169972965,-0.07326923083375826,2.003909566019195,-1.754906999964552
2.0849484035643395,20.604022157005705,-0.07249072574305981,1.9695350225059143,-1.6926247002983517
2.0719753080136405,20.25252654512881,-0.07165478037581888,1.9359717761262738,-1.6332461031155951
2.059157112992583,19.907002256964518,-0.07076960874704318,1.9031869812547337,-1.5765733579748378
2.046502023151292,19.567311971127626,-0.0698425006006374,1.871149528044063,-1.5224258204403016
2.03401700454251,19.233323820158887,-0.06887992838582671,1.8398299271641538,-1.470638292667094
2.0217079232965443,18.90491110837456,-0.06788764101379077,1.8092002037728185,-1.4210594680305735
2.0095796684517198,18.581952048049075,-0.06687074615092767,1.7792337998436984,-1.3735505535566246
1.9976362608682234,18.264329512496552,-0.06583378255458543,1.749905484073209,-1.3279840475989264
1.985880949901281,17.951930804749402,-0.0647807837447765,1.7211912686728748,-1.284242653337451
1.9743162992929923,17.64464744065039,-0.06371533412509689,1.6930683324272606,-1.2422183113310994
1.9629442635555945,17.342374945280312,-0.06264061851265731,1.6655149494624943,-1.2018113366222265
1.951766255957913,17.045012661738227,-0.06155946590602761,1.638510423227382,-1.1629296478244768
1.94078320908761,16.752463571376214,-0.060474388208447555,1.6120350252393938,-1.1254880772798672
1.929995628841338,16.464634124667366,-0.05938761452790968,1.586069938192256,-1.0894077527896828
1.919403642590393,16.18143408195455,-0.058301121593701384,1.5605972030612871,-1.0546155426426456
1.9090070421786915,15.902776363390046,-0.05721666075853732,1.535599669877619,-1.021043556713164
1.8988053223308927,15.628576907432436,-0.05613578199478245,1.5110609518736018,-0.9886286973076349
1.888797714979672,15.358754537318159,-0.05505985524100339,1.4869653827294795,-0.9573122542190224
1.878988777112693,15.093232839206419,-0.05392834328098638,1.4632757074009575,-0.9252100362876949
1.8693819196725354,14.831937926481523,-0.052814517165208866,1.4400011006534492,-0.8944569659011601
1.8599739279578782,14.574796329828771,-0.051718724108761736,1.4171277510437728,-0.8649812504216697
1.8507615331919378,14.321737013623782,-0.05064121773501882,1.3946424290116737,-0.8367156385483691
1.8417414283473788,14.072691273986134,-0.04958216942674822,1.3725324558510799,-0.809597087015916
1.8329102820419267,13.82759264224093,-0.04854167841160885,1.3507856746511775,-0.7835664550346344
1.8242647507196275,13.586376793446789,-0.0475197807250484,1.3293904230614977,-0.7585682238949144
1.8158014893084642,13.348981459673976,-0.04651645717676582,1.3083355077475258,-0.7345502394224738
1.8075171605236628,13.115346347739393,-0.04553164043213782,1.287610180414497,-0.7114634752055075
1.7994084429671346,12.885413061126247,-0.04456522130706281,1.2672041152871405,-0.6892618147232492
1.7914720381568012,12.659125025835596,-0.0436170543633101,1.2471073879422978,-0.6679018506911514
1.7837046766047706,12.43642741993482,-0.04268696288147428,1.2273104553996619,-0.6473427001034502
1.7761031230502515,12.217267106584341,-0.04177474327984832,1.2078041373834443,-0.6275458336016987
1.7686641809414838,12.00159257033911,-0.0408801690397921,1.1885795986746681,-0.6084749179299603
1.7613846962506807,11.789353856535186,-0.04000299419135309,1.1696283324800543,-0.5900956703555836
1.75426156069684,11.580502513584555,-0.03914295640687989,1.1509421447491928,-0.5723757240403912
1.7472917144431657,11.374991538013205,-0.03829977974505586,1.132513139376917,-0.5552845034421104
1.740472148328633,11.172775322088352,-0.037473177083084626,1.1143337042325725,-0.5387931089111634
1.733799905686801,10.973809603890817,-0.036662852270604986,1.0963964979622447,-0.5228742097245916
1.7272720837992752,10.778051419697956,-0.03586850203523524,1.0786944375140104,-0.5075019448678714
1.7208858350261291,10.585459058551098,-0.03508981766638795,1.0612206863399456,-0.49265183093749754
1.7146383676510548,10.395992018889626,-0.03432648650110649,1.0439686432319897,-0.47830067659322945
1.7085269464749753,10.209610967141078,-0.033578193233110065,1.0269319317518542,-0.46442650303944205
1.7025488931882393,10.026277698163792,-0.03284462106395592,1.0101043902180085,-0.45100847006069134
1.6967015865482948,9.845955097444786,-0.0321254527132034,0.9934800622153829,-0.43802680717789694
1.6909885505162512,9.668829795300727,-0.031352725420616546,0.9745788504964022,-0.4747497227562496
1.6854101609580714,9.495097404063007,-0.030629380781381565,0.9557810521449401,-0.5126835009349208
1.6799576787700392,9.324739540543131,-0.02995375464119726,0.9370840980758997,-0.5517244309288221
1.6746226649697786,9.157738274816076,-0.029324176472811138,0.9184855211136028,-0.5917702674933839
1.6693969816269754,8.994076112104256,-0.02873897178055695,0.899982953462151,-0.6327200028333387
1.6642727923885288,8.83373597508405,-0.028196464202182848,0.8815741245401533,-0.6744736396558249
1.6592425626510519,8.676701186549163,-0.02769497732533695,0.8632568591808202,-0.716931964361405
1.6542990594307434,8.52295545236477,-0.027232836233646945,0.8450290762013458,-0.7599963193426014
1.6494353509781705,8.372482844645273,-0.02680836879494162,0.8268887873486218,-0.8035683733271016
1.6446448061834644,8.225267785087048,-0.026419906701792468,0.8088340966316646,-0.8475498886613905
1.6399210938158069,8.08129502838527,-0.026065786272178523,0.7908632000547644,-0.891842484379585
1.6352581816399003,7.9405496456611,-0.025744349015672068,0.7729743857693228,-0.9363473938410121
1.6306503354513628,7.8030170078218575,-0.025453941968080568,0.7551660346667126,-0.9809652156477433
1.6260921180726915,7.668682768772314,-0.02519291779493211,0.7374366214393382,-1.0255956564689968
1.6215783883516104,7.537532848389951,-0.024959634661527192,0.7197847161424828,-1.070137264302005
1.617104300204271,7.4095534151705245,-0.024752455864465134,0.7022089862956075,-1.1144871505875358
1.6126653017469794,7.284730868442743,-0.02456974921655176,0.6847081995686155,-1.1585406994715428
1.6082571345618508,7.163051820041996,-0.024409886173765633,0.6672812271063627,-1.2021912623611735
1.6038758331441607,7.044503075322609,-0.024271240689457612,0.6499270475535133,-1.2453298357622926
1.5995177245821677,6.929071613376124,-0.024152187777132447,0.6326447518518985,-1.2878447202055858
1.5951794285239198,6.816744566308991,-0.024051101758954627,0.6154335488940234,-1.3296211578680677
1.5908578574900916,6.707509197416872,-0.023966354172470287,0.5982927721295072,-1.3705409462756313
1.5865502175973107,6.60135287807395,-0.02389631130287005,0.5812218872363057,-1.4104820252297843
1.5822540097628408,6.498263063133958,-0.02383933130235256,0.5642205009858199,-1.4493180338383305
1.5779670314689769,6.398227264614665,-0.02379376085169123,0.5472883714507757,-1.4869178342471034
1.5736873791742583,6.301233023408628,-0.023757931311849365,0.5304254197274162,-1.5231449983713354
1.5694134514687144,6.207267878729912,-0.02373015430530684,0.5136317433694342,-1.557857253616966
1.565143953082061,6.11631933496821,-0.023708716657507147,0.49690763176059205,-1.590905883274167
1.5608778998672355,6.028374825577973,-0.023691874618333542,0.4802535836864701,-1.6221350769733602
1.5566146248971444,5.94342167357987,-0.02367784727156487,0.46367032740355835,-1.6513812263420509
1.5523537858303111,5.861447048194396,-0.0236648090265849,0.44715884354613167,-1.6784721608249125
1.5480953737215382,5.78243791706203,-0.02365088107089136,0.43072039125793854,-1.7032263185829715
1.5438397234772214,5.706380993430059,-0.023634121643738935,0.41435653798619365,-1.7254518475484637
1.5395875261819878,5.633262677602737,-0.023612514969969484,0.39806919342849617,-1.7449456321937382
1.5353398435545778,5.5630689918582625,-0.023583958667918726,0.3818606481767806,-1.7614922425406583
1.5310981248271083,5.4957855079336575,-0.023546249415073866,0.3657336176521651,-1.7748628036308296
1.5268642263841166,5.431397266068224,-0.023497066618168867,0.34969129196374904,-1.7848137864436493
1.5226404345475577,5.369888684480713,-0.02343395378804104,0.33373739234192795,-1.7910857255913564
1.51842949195325,5.311243458040192,-0.023354297259823426,0.31787623477498866,-1.7934018757668437
1.5142346280360997,5.255444444785436,-0.023255301819624017,0.3021128013889682,-1.7914668289287168
1.5100595942302555,5.202473538868336,-0.023133962689755053,0.2864528199121352,-1.784965129115346
1.505908704602898,5.1523115284690455,-0.022987033169773238,0.270902851191101,-1.7735599438183154
1.5017868827872531,5.104937937295098,-0.022810987004056798,0.2554703840749904,-1.7568918832593616
1.497699716278358,5.060330848496875,-0.022601974205890045,0.24016393590528315,-1.734578106406539
1.4936535194309348,5.018466710305127,-0.02235576854325757,0.22499315511412343,-1.7062119219221936
1.4896554068959573,4.97932012357127,-0.022067704067605106,0.20996891970650622,-1.6713631931667867
1.4857133798220925,4.942863612890196,-0.02173259675311541,0.19510342119430663,-1.6295800025592388
1.4818364280467757,4.90906738543659,-0.021344645194846985,0.18041021717908934,-1.5803922407300606
1.4780346529011958,4.877899085519893,-0.020897300867152045,0.16590422633975166,-1.5233180843308343
1.474319417470285,4.849323558809928,-0.02038309280963403,0.15160162599317495,-1.4578747416097035
1.470703534702701,4.823302649038293,-0.019793382385745045,0.13751959369166833,-1.3835954025840922
1.467201509504785,4.799795062662831,-0.019118008702210795,0.12367581048014067,-1.3000550326920806
1.463829860243849,4.778756354144274,-0.01834476086374339,0.11008761750381076,-1.2069084211945669
1.4606075600982633,4.760139105525042,-0.01745857408720789,0.09677070048765073,-1.1039444729867618
1.457556662811713,4.7438933948053545,-0.0164402846522409,0.08373719639777996,-0.991160430409764
1.4547032159730184,4.729967655946595,-0.015264680222144824,0.07099323536622075,-0.8688570549099435
1.4520786271930723,4.718310000806415,-0.013897417332810814,0.0585362661913294,-0.7377481490258311
1.4497217551523085,4.70886994419477,-0.012290049786787589,0.04635325171583596,-0.59906174172413
1.4476822128392925,4.70160015204981,-0.010371531468945717,0.034422216561512134,-0.45458466816938947
1.4460259484845364,4.696457147297476,-0.00803140580612412,0.022722280686658786,-0.30657571057437805
1.44484634774264,4.693398251676793,-0.005075269103833386,0.011265448432031519,-0.15746850960998918
1.4442974425872313,4.692364060108545,-0.001023677067376422,0.00022556899296255657,-0.009370909588529625
