x,y,v_x,v_y,omega
2.375,32.48,0.0,2.051282051282051,-4.448979591836735
2.3741468550836644,32.01295249831318,-0.007418651446398322,2.0100005720815313,-4.221712690965526
2.371690941279617,31.555247322123716,-0.013937120762707705,1.9700444382616773,-4.01126984877242
2.3678275425600277,31.106588086166852,-0.019657650711982083,1.9313402222328022,-3.815994359060055
2.362729886095262,30.66669461918207,-0.02466979680772078,1.8938203602435542,-3.634425951822444
2.3565518577195768,30.235301689749242,-0.029052189067802485,1.8574225043897163,-3.4652738499547144
2.349430343819254,29.812157870463885,-0.03287401876109032,1.8220889676568774,-3.3073940250993688
2.341487257337985,29.397024520918936,-0.03619629846733563,1.787766245777451,-3.1597699167046303
2.3328312955779102,28.98967487331744,-0.039072934228964795,1.754404602931214,-3.021496022280902
2.3235594694108355,28.589893207233008,-0.041551641136903156,1.7219577108464654,-2.8917638795929186
2.313758436977597,28.197474102209135,-0.04367472784778042,1.6903823328394012,-2.7698500505228822
2.303505669621636,27.81222175865513,-0.04547977089970749,1.6596380458910518,-2.65510578707553
2.2928704734282843,27.433949378941108,-0.047000195999003666,1.6296869951004662,-2.5469481165803716
2.281914886132991,27.06247860178269,-0.048265780481805735,1.6004936758422768,-2.4448521286832303
2.270694466170805,26.697638983989417,-0.049303088754595985,1.5720247397514107,-2.348344283571886
2.259258988148922,26.33926752446856,-0.05013585056612549,1.544248821299529,-2.2569965908621903
2.247653056941539,25.987208226060474,-0.05078529036763825,1.5171363822490322,-2.170421533082877
2.2359166508579293,25.641311691356783,-0.05127041470722785,1.4906595716961173,-2.0882676278299805
2.2241136501943064,25.301440404098475,-0.05136437367210418,1.4647429262022102,-2.004935961012968
2.21230090319487,24.96746244380177,-0.051355165453429434,1.439413250290838,-1.9258966936002622
2.200500805869183,24.639245521530682,-0.05125437650906858,1.4146469433708182,-1.8508727080610035
2.18873322658527,24.316662633158032,-0.05107239987277909,1.3904216511739707,-1.779608191426629
2.1770157659118037,23.999591782380513,-0.05081856250519049,1.3667161816740283,-1.711866735976222
2.165363988840041,23.68791572227409,-0.05050123811883052,1.3435104279470271,-1.6474296323195352
2.1537916325209916,23.38152171387218,-0.050127947264210236,1.320785297286984,-1.5860943330453239
2.1423107922696,23.0803013003976,-0.049705446226154255,1.298522645970234,-1.5276730678486898
2.1309320882548497,22.784150095910988,-0.049239806076020264,1.2767052191307446,-1.4719915934173995
2.119664815005261,22.492967587255052,-0.04873648305083753,1.2553165952686736,-1.4188880634009942
2.1085170756071854,22.20665694827799,-0.04820038128025633,1.2343411349666833,-1.3682120055559277
2.09749590225338,21.925124865411885,-0.04763590875283114,1.2137639334342165,-1.319823394695163
2.086607364607137,21.648281373764853,-0.047047027301458245,1.1935707765399783,-1.27359181140546
2.0758566672789867,21.376039702959527,-0.04643729729115227,1.173748100028065,-1.2293956776585082
2.0652482375655166,21.10831613201722,-0.04580991760858763,1.1542829516441824,-1.1871215614572208
2.054785804470317,20.845029852646675,-0.045167761480104276,1.13516295592578,-1.146663543546368
2.0444724699132184,20.58610284035028,-0.04451340858162117,1.11637628143416,-1.107922639994657
2.034310772933721,20.33145973280912,-0.04384917384879162,1.0979116102281177,-1.0708062751381933
2.024302747606131,20.08102771505214,-0.04317713334764704,1.0797581093977842,-1.0352277999756214
2.014449975305897,19.834736410954545,-0.04249914752395123,1.06190540449436,-1.0011060516339827
2.0047536318976813,19.592517780646432,-0.041816882112707204,1.044343554706626,-0.9683649499907339
1.9952145303546622,19.35430602344557,-0.041131826957023505,1.0270630296486976,-0.9369331279494233
1.98583315926452,19.120037485957866,-0.04044531295725578,1.0100546876356669,-0.9067435922311177
1.9766097176295907,18.889650575016276,-0.039758527346477265,0.9933097553346886,-0.8777334118667394
1.9675504023418333,18.66320540390307,-0.039018127329673524,0.9757786891279637,-0.8707370562871445
1.9586590625657194,18.44077649604717,-0.038297870723490626,0.9583857270102859,-0.8665418275420382
1.9499309472466084,18.22233258156082,-0.03759878422530153,0.941126572871047,-0.864998744578106
1.941361091493468,18.007843357203242,-0.036921700584614345,0.9239971171948173,-0.8659639579178762
1.9329443593594775,17.797279444523937,-0.03626727449356386,0.9069934278426234,-0.8692983902178596
1.9246754831103263,17.590612350046953,-0.03563599723818569,0.8901117415224801,-0.8748673930425175
1.9165490992544965,17.38781442734235,-0.03502821020381416,0.8733484559088354,-0.8825404183254866
1.9085597815892283,17.18885884083973,-0.03444411732025602,0.8567001223748508,-0.8921907030709781
1.9007020714969864,16.99371953124649,-0.03388379652532605,0.8401634393054556,-0.9036949659190904
1.8929705057099095,16.802371182440627,-0.033347210318820784,0.8237352459629195,-0.9169331142595286
1.885359641743851,16.614789189713655,-0.03283421547299316,0.8074125168803307,-0.9317879606294048
1.8778640811890543,16.4309496292448,-0.03234457196001919,0.7911923567618703,-0.9481449471727859
1.8704784910311987,16.250829228691885,-0.03187795115176995,0.7750719958721947,-0.9658918769727606
1.8631976231643723,16.074405338788015,-0.0314339433423719,0.7590487859005975,-0.9849186510912058
1.8560163322464551,15.901655905836215,-0.031012064639515953,0.7431201962889672,-1.0051170101672544
1.8489295920372955,15.732559444996152,-0.030611763266220914,0.7272838110159235,-1.026380279432733
1.8419325103509456,15.56709501425853,-0.03023242531073445,0.7115373258329486,-1.04860311600147
1.8350203427449916,15.405242189003278,-0.029873379958429747,0.6958785459518616,-1.0716812572792391
1.8281885050626443,15.246981037037347,-0.029533904235895303,0.680305384186682,-1.0955112693219682
1.8214325849367194,15.092292094006844,-0.02921322729388643,0.6648158595568187,-1.119990293941386
1.814748352358899,14.941156339076102,-0.028910534252378082,0.6494080963626812,-1.1450157933191478
1.808131769412702,14.793555170763224,-0.02862496962759744,0.63408032374929,-1.170485290842177
1.8015789992644053,14.649470382817547,-0.028355640357588845,0.6188308757783353,-1.1962961068130038
1.7950864145027356,14.508884140019074,-0.028101618439539944,0.6036581920344788,-1.222345087618684
1.7886506049154831,14.371778953773386,-0.02786194318874117,0.5885608187975981,-1.2485283268598524
1.7822683847893313,14.23813765736745,-0.027635623125624915,0.5735374108192328,-1.2747408768470105
1.7759367998180977,14.107943380742121,-0.02742163749379644,0.5585867337488265,-1.3008764487637319
1.7696531337043586,13.981179524625695,-0.02721893740828398,0.5437076672635869,-1.3268270996756233
1.76341491454003,13.8578297338594,-0.02702644662935496,0.5288992089650548,-1.3524829044294235
1.7572199210530457,13.737877869730088,-0.026843061953118186,0.5141604791159367,-1.3777316103386221
1.7510661888097814,13.621307981106956,-0.026667653205702878,0.49949072630259256,-1.4024582723911112
1.7449520164664791,13.508104274158132,-0.026499062823011284,0.4848893341219731,-1.4265448665420812
1.7388759721676594,13.398251080398303,-0.026336104992811905,0.470355829006966,-1.4498698784742698
1.732836900195514,13.291732822790557,-0.02617756433019277,0.4558898893212664,-1.472307865022137
1.726833927981673,13.188533979593075,-0.02602219405103417,0.44149135587423094,-1.4937289852734013
1.7208664736016803,13.088639045604328,-0.025868713601074705,0.42716024402791125,-1.5139984981910335
1.714934253883184,12.992032490417952,-0.025715805690197553,0.41289675759273814,-1.5329762234566964
1.7090372932714637,12.898698713250237,-0.02556211267258732,0.39870130473520554,-1.5505159621453672
1.7031759336107495,12.808621993848405,-0.025406232203189105,0.3845745161502937,-1.5664648738332632
1.6973508450171289,12.721786438926085,-0.025246712089163046,0.37051726578293354,-1.580662806864378
1.691563038039114,12.63817592350323,-0.025082044241399867,0.3565306944157983,-1.5929415788225394
1.6858138773256126,12.557774026450936,-0.024910657615135386,0.3426162364737295,-1.6031242048724177
1.6801050970487732,12.480563959457491,-0.024730910009555226,0.32877565042579615,-1.6110240726820322
1.6744388183617822,12.406528488541621,-0.024541078572973902,0.3150110531904791,-1.6164440643171334
1.6688175692103062,12.33564984714413,-0.024339348831167215,0.3013249589616195,-1.619175628083904
1.6632443068624885,12.267909639734299,-0.024123802019421676,0.28772032286300236,-1.6189978071892368
1.6577224435784692,12.203288734778852,-0.023892400450310217,0.2742005897930484,-1.615676237856062
1.6522558759095631,12.141767145850348,-0.023642970583655464,0.26076974871567016,-1.6089621379868504
1.6468490182044233,12.083323899615706,-0.023373183374081542,0.24743239245513066,-1.5985913197716768
1.641506841012124,12.02793688947159,-0.023080531341565208,0.23419378271108984,-1.5842832774452233
1.6362349152215225,11.97558271372311,-0.0227623016201882,0.22105991944961562,-1.5657404270733377
1.6310394629802727,11.926236497498802,-0.022415543955895074,0.20803761293566003,-1.5426476121536228
1.6259274167233784,11.879871698152826,-0.02203703219101446,0.19513455529023532,-1.5146720416891284
1.6209064880544493,11.83645989486438,-0.021623217104020428,0.1823593863484352,-1.4814639028581964
1.6159852488334514,11.795970564709162,-0.021170167426396585,0.169721745436064,-1.4426579975077665
1.6111732277455744,11.758370849940253,-0.020673494207316026,0.15723229603271702,-1.3978769023911182
1.6064810270379395,11.723625324983225,-0.02012825107646563,0.14490270359360968,-1.3467363621407007
1.6019204663039475,11.691695777262481,-0.019528798784334875,0.13274553745632914,-1.2888539073842424
1.5975047636311477,11.662541024092043,-0.01886861576174971,0.12077405533008577,-1.2238620596879022
1.593248769837821,11.636116799154927,-0.01814002591935028,0.10900181368832913,-1.1514279324665218
1.5891692800452484,11.612375756908136,-0.01733379836389111,0.0974420319359378,-1.0712815019944644
1.5852854602141975,11.591267660784897,-0.01643854799307307,0.08610663000528332,-0.9832551213561106
1.5816194471581428,11.572739837586877,-0.015439826407403061,0.0750048760644727,-0.8873365455324619
1.5781972129817916,11.556737985852607,-0.01431873164782272,0.06414166075527453,-0.7837359393395874
1.5750498357496312,11.543207398020986,-0.013049766023138875,0.053515624737082906,-0.672962535368407
1.5722154024482067,11.532094552829058,-0.011597480076202704,0.043117811714471016,-0.5558968944436373
1.5697419325180406,11.52334878552545,-0.009910954099154884,0.03293233875170222,-0.4338294108925942
1.567692113988479,11.516923230298453,-0.00791355485355511,0.022942054526517562,-0.3084191328054925
1.5661520006467429,11.512773104180088,-0.00547873507458468,0.013145998676645506,-0.1815217018527071
1.5652524375733883,11.510845335801871,-0.002343552519802157,0.0036172046122022305,-0.0548622478046526
