x,y,v_x,v_y,omega
2.375,32.48,0.0,2.717948717948718,-6.408163265306122
2.3739901702583692,31.995722222319856,-0.011220330462565072,2.6629154784973155,-6.072829752091465
2.3710848277631675,31.521184082605924,-0.021061252817452972,2.609730518324139,-5.763233043706434
2.366517819546085,31.056062516198622,-0.029683282927905466,2.5582868862014183,-5.4767572351170895
2.3604959440865407,30.600052894647156,-0.03722644440036856,2.508486686592639,-5.211106369973912
2.353202375317003,30.152867491725434,-0.04381320859449444,2.4602400125376307,-4.964259081169599
2.3447996003357745,29.71423412688634,-0.04955095786360107,2.4134640412300614,-4.734430560794138
2.335431948768471,29.283894959555766,-0.05453405955087641,2.3680822624430076,-4.52004052319541
2.3252277775972323,28.86160541247814,-0.05884562012955544,2.3240238161972355,-4.3196860974739675
2.3143013640404946,28.447133206142222,-0.06255897494531013,2.2812229208685526,-4.132118796677435
2.302754550055819,28.04025748936529,-0.06573895821775241,2.239618376652914,-3.956224875536451
2.2906781747605125,27.640768053567303,-0.06844298950787714,2.199153132213606,-3.7910085179885384
2.2781533251474455,27.24846462025246,-0.0707220061928631,2.159773904617996,-3.6355773982221455
2.2652524306328474,26.86315619283392,-0.07262126619156051,2.121430844476874,-3.4891302406868245
2.252040222990763,26.484660465263758,-0.07418104094271721,2.0840772396360654,-3.3509460700766027
2.2385745799360905,26.11280328102372,-0.07543721522030362,2.047669251919902,-3.2203748952032276
2.2249072678823167,25.74741813693926,-0.07642180759940548,2.012165682351898,-3.09682961360937
2.2110845971169484,25.388345727035116,-0.07716342312691335,1.9775277610274535,-2.9797789587885535
2.1971480007245727,25.035433522284535,-0.07768764789947923,1.9437189584234325,-2.868741340575507
2.1831345469782772,24.688535382637845,-0.0780173937260265,1.9107048154286854,-2.7632794528943663
2.1690773935618175,24.34751119816815,-0.07817319979019183,1.8784527897901595,-2.6629955425819705
2.1550061908345377,24.012226556556257,-0.07817349717958635,1.8469321170086501,-2.5675272492133354
2.1409474403737003,23.682552434465464,-0.07803484127416001,1.816113684000169,-2.476543939361317
2.126924814196192,23.35836491063877,-0.07777211625371096,1.7859699140741891,-2.389743470013943
2.112959439350111,23.03954489879414,-0.07739871536941278,1.7564746619772893,-2.3068493253455506
2.099070151957347,22.725977898603666,-0.07692670010574401,1.727603117916845,-2.2276080790101553
2.0852737242649515,22.417553763225357,-0.07636694092087087,1.6993317196199187,-2.151787140855445
2.0715850678127024,22.1141664820154,-0.07572924188189938,1.6716380716018329,-2.079172752653565
2.0580174154357387,21.815713977188373,-0.07502245119547084,1.6445008709206728,-2.0095682022820456
2.044582484485306,21.522097913315218,-0.07425455936488987,1.6178998387810877,-1.9427922299057365
2.031290623359726,21.233223518656615,-0.07343278647489392,1.5918156574256186,-1.878677603224348
2.0181509431852533,20.948999417424837,-0.07256365990813443,1.5662299118163563,-1.8170698418560367
2.005171436266972,20.669337472151458,-0.07165308362832222,1.5411250356656119,-1.7578260735047877
1.9923590827386655,20.394152635413498,-0.07070640001953032,1.5164842614228198,-1.7008140067742168
1.9797199466737874,20.123362810237403,-0.06972844514578243,1.4922915738671734,-1.6459110073979217
1.9672645414058323,19.856893064668014,-0.06866494672038376,1.4684833769037633,-1.5905368643864763
1.9550013198557066,19.594670936053713,-0.06759307050323497,1.445095829921814,-1.5375048449860769
1.9429315473034408,19.336621980500368,-0.06651551341083076,1.422114787337561,-1.4866895203717425
1.9310560299607773,19.082674245722604,-0.06543467928543133,1.3995267101931617,-1.4379734493773786
1.9193751651176623,18.8327581648374,-0.06435270786029054,1.3773186329757354,-1.391246588001147
1.9078889863385202,18.586806455933676,-0.06327150079684354,1.3554781326212286,-1.346405748460533
1.8965972042072967,18.344754027039784,-0.06219274510563955,1.3339932995331143,-1.3033541031492577
1.885499243067314,18.106537886140288,-0.061117934227500975,1.3128527104612786,-1.262000729329764
1.8745942741550077,17.87209705591976,-0.06004838702034827,1.2920454031001904,-1.222260190821958
1.863881245484894,17.641372492935737,-0.05898526486980176,1.2715608522778012,-1.1840521533279806
1.8533589088060294,17.41430701094514,-0.0579295871175833,1.2513889476177422,-1.147301030369807
1.8430258439172034,17.19084520812848,-0.056882244980483325,1.2315199725673978,-1.1119356571165302
1.832880480598711,16.970933397975,-0.05584401411387744,1.211944584693481,-1.0778889896456585
1.822921118392317,16.754519543608644,-0.05481556595716551,1.1926537971549083,-1.0450978274214964
1.8131459444376303,16.54155319535039,-0.05379747798379745,1.1736389612701708,-1.0135025569870397
1.8035530495521925,16.331985431326792,-0.05279024296551284,1.154891750103114,-0.9830469150567178
1.7941404427238994,16.12576880094777,-0.051794277348853814,1.1364041429971172,-0.9536777693683279
1.7849060641676462,15.922857271088642,-0.050809928831736774,1.1181684109932093,-0.9253449158058855
1.775847797083104,15.72320617482271,-0.049837483218734734,1.10017710307269,-0.8980008904428175
1.7669634782371144,15.52677216256092,-0.04887717062559433,1.0824230331694162,-0.8716007952787079
1.7582509074821462,15.333513155464573,-0.047929171096272406,1.0648992679011038,-0.8461021365541811
1.7497078563114425,15.14338830100592,-0.0469936196893233,1.047599114972814,-0.821464674628831
1.7413320755417798,14.95635793055953,-0.0460706110847099,1.0305161122092978,-0.7976502844975712
1.7331213022060286,14.772383518914847,-0.045160203756969074,1.0136440171760632,-0.7746228261024257
1.7250732657298555,14.591427645607322,-0.04426242375606624,0.9969767973519721,-0.7523480236705541
1.7171928430718586,14.413681480597333,-0.043297827999454176,0.9779805916479162,-0.7809573663116217
1.7094816996210476,14.239344903137301,-0.04238154367622515,0.9590924912413313,-0.8109750003068567
1.7019312755722602,14.068398699879129,-0.04151205686585528,0.940309767182791,-0.8422887402952227
1.6945332855372643,13.900824138555183,-0.04068783241187493,0.9216298030832754,-0.8747882084518136
1.6872797220627898,13.736602947987897,-0.03990731730450939,0.9030500921087888,-0.9083645884221878
1.680162858572428,13.5757172986041,-0.03916894369951059,0.8845682343778473,-0.9429103816395239
1.673175251795899,13.418149783381647,-0.038471131595256426,0.8661819347605332,-0.9783191649675571
1.6663097437454453,13.263883399155919,-0.037812291187562116,0.8478890010809053,-1.0144853485978471
1.6595594632958468,13.112901528213136,-0.03719082491908944,0.8296873427277901,-1.0513039331072656
1.6529178274217329,12.965187920096216,-0.036605129237731585,0.8115749696824303,-1.088670264550325
1.6463785421435086,12.820726673547032,-0.036053596075871316,0.7935499919751547,-1.1264797864206766
1.6399356032312862,12.679502218506418,-0.035534614059934515,0.7756106195872389,-1.1646277872662771
1.6335832967147472,12.541499298089903,-0.03504656945716464,0.757755162818485,-1.2030091426827936
1.627316199245842,12.406702950453113,-0.034587846864001154,0.7399820331458565,-1.2415180503391279
1.6211291783606776,12.275098490455644,-0.03415682963782817,0.7222897446038136,-1.2800477566068091
1.6150173926868705,12.14667149102624,-0.03375190007113925,0.704676915722916,-1.3184902732706634
1.6089762921430801,12.021407764124888,-0.03337143930430822,0.6871422720698835,-1.3567360826908796
1.6030016181783808,11.899293341189022,-0.03301382697012929,0.6696846494397433,-1.3946738296655918
1.5970894041006642,11.780314452941127,-0.03267744056005375,0.6523029977590878,-1.4321899981077302
1.5912359755453886,11.664457508423602,-0.03236065449856345,0.6349963857689551,-1.4691685704996416
1.5854379511387677,11.551709073113404,-0.03206183890833516,0.6177640065665904,-1.5054906679236044
1.5796922434129934,11.442055845953632,-0.03177935804471206,0.6006051840975516,-1.5410341682860582
1.573996060035359,11.335484635121542,-0.031511568373449685,0.5835193807034685,-1.5756733001589973
1.5683469054182877,11.231982332332045,-0.03125681626067506,0.5665062058464946,-1.6092782094554254
1.5627425827833699,11.131535885452422,-0.0310134352384125,0.5495654261493302,-1.6417144959403742
1.557181196759661,11.034132269177093,-0.030779742802796804,0.532696976909904,-1.6728427163602386
1.5516611566048497,10.939758453480668,-0.03055403669510844,0.5159009752726028,-1.7025178507596215
1.5461811801475789,10.84840136953241,-0.030334590607899697,0.4991777352635763,-1.7305887283594379
1.5407402985604057,10.760047872715326,-0.03011964924958094,0.48252778492625475,-1.7568974092118155
1.5353378620857794,10.674684702347726,-0.029907422690711224,0.4659518858248654,-1.7812785177542916
1.5299735468522875,10.592298437653845,-0.029696079903642415,0.44945105521826434,-1.8035585243983216
1.5246473629355193,10.5128754494723,-0.029483741393780318,0.4330265912433611,-1.8235549714632162
1.5193596638376188,10.436401847126675,-0.02926847080511718,0.41668010148582885,-1.8410756401892958
1.514111157582375,10.362863419811099,-0.02904826536425755,0.40041353535390867,-1.855917656351697
1.5089029196491373,10.292245571765712,-0.028821045005050325,0.3842292207059572,-1.8678665333175064
1.5037364079996807,10.224533250433357,-0.028584639988910858,0.36812990520911393,-1.8766951534838148
1.4986134804884879,10.159710866701968,-0.028336776802122206,0.35211880291744635,-1.8821626922447119
1.4935364149901722,10.097762206250682,-0.028075062068053477,0.3361996465412953,-1.8840134934481987
1.4885079326300927,10.038670330938427,-0.027796964155049907,0.3203767458171095,-1.8819759124138973
1.483531224568659,9.982417469112278,-0.02749979208310246,0.3046550522512108,-1.8757611529801972
1.4786099828710277,9.928984893686263,-0.02718067122391164,0.2890402302600835,-1.8650621401495808
1.4737484360988846,9.878352786875702,-0.026836515133233027,0.2735387343017195,-1.849552491721756
1.4689513904006084,9.830500090608005,-0.02646399262539389,0.2581578908949111,-1.8288856837211505
1.464224277067282,9.785404341928643,-0.026059488856009724,0.24290598332020494,-1.8026945495184135
1.4595732077914265,9.743041493271754,-0.02561905865349471,0.22779233508966762,-1.7705913170628493
1.4550050392553044,9.703385718402526,-0.02513836952564088,0.2128273856795267,-1.7321684805796589
1.4505274492537599,9.66640920635831,-0.024612630491521344,0.19802274814510928,-1.687000933324285
1.4461490274309345,9.632081948095507,-0.024036500873202978,0.18339123255270962,-1.6346499707823492
1.441879385054096,9.600371524174701,-0.02340396998055913,0.16894681101179634,-1.5746700264563622
1.4377292903384187,9.57124290719361,-0.02270819352696893,0.15470448877809723,-1.5066193433077697
1.4337108391150224,9.544658300414877,-0.02194126451076452,0.14068003098559895,-1.4300762245904741
1.429837675796509,9.520577044728714,-0.021093883472718778,0.12688947663842678,-1.3446630341128276
1.4261252877210464,9.49895563997963,-0.02015487292130959,0.1133483539069573,-1.2500806451753408
1.4225914086992084,9.479747942833587,-0.019110449543556583,0.10007050327129317,-1.1461563302777724
1.4192565874346605,9.46290561789299,-0.017943120062531116,0.08706644051312698,-1.0329075847334
1.4161450072537347,9.448378921547356,-0.016629993058867122,0.07434129666056817,-0.9106219809500026
1.413285691818149,9.436117867285816,-0.015140178447641582,0.06189263957877257,-0.7799470224471128
1.4107143119526921,9.426073716508611,-0.01343070894632313,0.049709035723482516,-0.6419719432565936
1.4084759664059008,9.418200494191133,-0.011439797129136715,0.037771212248501704,-0.49826510492058307
1.4066297118650843,9.412455730851736,-0.009074142213267982,0.026059491522594326,-0.3508121071144497
1.4052570044882278,9.408798524586352,-0.006178161974024655,0.014576133648356613,-0.2017964149494351
1.4044832503086755,9.407178752227122,-0.0024191066876689798,0.0034213370097484503,-0.0532031135495212
