x,y,v_x,v_y,omega
2.375,32.48,0.0,2.8205128205128203,-6.285714285714286
2.3735587502601536,31.89452075674743,-0.013726187998535035,2.7554799723687746,-5.896630436413549
2.3694407907826833,31.322422119891375,-0.02549247369165935,2.6930784738793707,-5.543523537480262
2.363029501357975,30.763170239049547,-0.03556742559127461,2.6331299150904,-5.222050195597104
2.3546560925099262,30.21626687685893,-0.04417932534252562,2.575473534344051,-4.928492688599805
2.344607356573538,29.68124595675627,-0.051522921670696505,2.5199637999669773,-4.65965513657921
2.3331321339590847,29.157670573683156,-0.057764912752667,2.466468419776997,-4.412779196221539
2.320446733369241,28.645130387419886,-0.06304842619822787,2.4148666874922347,-4.1854751598922055
2.306739494919009,28.143239335037787,-0.06749670189921608,2.3650480970991845,-3.9756653079492743
2.292174646940708,27.651633611743208,-0.0712161359893683,2.316911172373016,-3.78153707915287
2.2768955777034896,27.16996987921902,-0.07429880912699562,2.270362470714446,-3.601504160834118
2.2610276201758293,26.69792366820348,-0.07682459589834184,2.225315729433575,-3.4341740069315745
2.244680429746012,26.23518794802719,-0.07886293200467874,2.181691129388239,-3.278320602702223
2.2279500203440237,25.78147184055594,-0.08047430039521111,2.139414656052214,-3.1328615345145785
2.2109205128285847,25.336499459753885,-0.08171148546611184,2.0984175420626165,-2.996838609399909
2.1936656401781427,24.900008861107736,-0.0826206350142888,2.0586357783768734,-2.8694014149260165
2.1762500464715373,24.471751087602563,-0.08324216219147826,2.0200096835771792,-2.749793325008031
2.158730410493454,24.05148930093757,-0.08361151379026523,1.9824835227560853,-2.637339548580349
2.1411564197666526,23.638997988311523,-0.08375982646498809,1.9460051689205542,-2.531436890951538
2.123571616675611,23.234062236464283,-0.08371448868778564,1.910525801053141,-2.4315449561836515
2.1060141349309918,22.836477065790497,-0.08349962316573184,1.8759996339353193,-2.3371785660568922
2.088517341794117,22.44604681828713,-0.08313650194736472,1.8423836756205463,-2.247901209465855
2.0711103991267446,22.062584593893313,-0.08264390440855994,1.8096375090824732,-2.1633193672756943
2.0538187543669464,21.68591173045554,-0.08203842663714024,1.777723095086784,-2.083077583171707
2.0366645708871323,21.315857323125925,-0.0813347493610876,1.7466045937666759,-2.006854171981569
2.019667105809057,20.95225777949272,-0.08054587043010208,1.7162482027400578,-1.9343574742164098
2.0028430421873407,20.59495640716496,-0.07968330691958123,1.6866220099052744,-1.8653225798626982
1.9862067814906625,20.24380303089812,-0.0787572711440198,1.657695859302715,-1.7995084563168655
1.9697707014780073,19.898653636664047,-0.07777682421460182,1.629441228640867,-1.7366954252329556
1.9535453838613006,19.559370040344007,-0.07675001023022408,1.6018311172642563,-1.676682941307205
1.937539815545096,19.225819578964504,-0.0756839737336278,1.5748399434929226,-1.6192876329402353
1.9217615667217158,18.897874822606465,-0.07458506267951752,1.548443450393166,-1.5643415705306754
1.9062169486624687,18.575413305304338,-0.07345891883712134,1.5226186191509181,-1.5116907330531106
1.890911153670648,18.258317273415386,-0.07231055727545758,1.4973435893152642,-1.461193647712975
1.8758702296579646,17.94647827878199,-0.0709363380834332,1.472551597669481,-1.406907998237664
1.861117131146667,17.63979182106563,-0.06956936202416071,1.448271809152994,-1.3552063204986338
1.8466500869578661,17.338152334547832,-0.06821201120251354,1.4244852053022028,-1.3059340961092707
1.8324668612592667,17.041458151389342,-0.06686632878414935,1.4011736819215153,-1.258947804347991
1.8185648205947085,16.74961131545969,-0.06553405849735712,1.3783199935990116,-1.2141140152785883
1.8049409930993812,16.462517407393737,-0.06421667955338024,1.3559077022671906,-1.1713085676429755
1.7915921208047547,16.18008538006213,-0.06291543753829827,1.3339211294623952,-1.1304158226838108
1.7785147058285313,15.902227403711652,-0.06163137175906813,1.3123453119707253,-1.0913279860712495
1.765705051149966,15.628858720093973,-0.06036533946536497,1.2911659605786094,-1.0539444909971627
1.7531592965879161,15.359897504957534,-0.05911803731606054,1.2703694216732095,-1.018171436278966
1.7408734505263257,15.095264738328346,-0.057890020413373815,1.2499426414619033,-0.9839210739985561
1.7288434178681875,14.834884082051683,-0.05668171918794233,1.229873132601567,-0.9511113418024076
1.7170650246431909,14.57868176410852,-0.05549345438345525,1.2101489430476018,-0.9196654355175252
1.7055340396451966,14.326586469258789,-0.05432545035934815,1.1907586269498514,-0.8895114182039975
1.6942461934325688,14.078529235598062,-0.053177846903773696,1.1716912174380174,-0.8605818621763843
1.6831971949864308,13.834443356645998,-0.052050709726111845,1.152936201153047,-0.8328135208900106
1.672382746288476,13.594264288613612,-0.05094403977821943,1.1344834943934772,-0.8061470279104115
1.6617985550504768,13.357929562522816,-0.04985778153605942,1.116323420756973,-0.7805266204698436
1.6514403458016043,13.12537870087575,-0.04879183035796439,1.0984466901674785,-0.755899885368422
1.641303869516677,12.896553138593468,-0.04774603902229291,1.0808443791875824,-0.7322175252029557
1.6313849119481207,12.671396147963748,-0.046720223535387094,1.0635079125240272,-0.7094331431073052
1.6216793008064212,12.449852767356333,-0.045714168290322627,1.0464290456418361,-0.6875030443670324
1.6121829119179207,12.231869733480956,-0.04472763064777709,1.0295998484093696,-0.6663860534308017
1.602891674474666,12.017395416979173,-0.04376034500226952,1.01301268970285,-0.6460433449836882
1.5938015754784873,11.806379761155398,-0.042812026389907214,0.9966602229045493,-0.6264382878751885
1.5849167937155115,11.59891844789442,-0.04180494278129067,0.9791618081523789,-0.6351011407343956
1.5762391650191954,11.395119169427815,-0.0408391400407691,0.961783701053369,-0.6459363189714304
1.5677600735376112,11.194957021987612,-0.03991411216479388,0.9445224650437948,-0.6588207287411865
1.5594710187595098,10.99840780878031,-0.03902926667426745,0.927374803597162,-0.673634881007331
1.5513636328053582,10.805448011220221,-0.038183932889080625,0.9103375541179617,-0.6902626157169321
1.543429696052546,10.61605476139474,-0.03737736951865346,0.8934076823151865,-0.708590836031226
1.535661151233143,10.430205815663179,-0.03660877161851952,0.8765822770330066,-0.728509251503441
1.528050116132519,10.24787952929523,-0.03587727695885068,0.8598585455188877,-0.7499101291366134
1.5205888950079094,10.069054832058963,-0.035181971846955894,0.8432338091122208,-0.7726880512888513
1.5132699888375507,9.893711204671561,-0.03452189644217358,0.8267054993392456,-0.7967396794207559
1.5060861045033132,9.721828656028652,-0.03389604959818557,0.8102711544027312,-0.8219635226998374
1.4990301630027223,9.553387701130323,-0.03330339326458459,0.7939284160575375,-0.8482597104898613
1.492095306779908,9.388369339623367,-0.032742856476502206,0.7776750268658675,-0.8755297677591235
1.4852749062592618,9.226755034880433,-0.03221333895822615,0.7615088278287514,-0.9036763924406334
1.4785625656604298,9.068526693537137,-0.031713714363981856,0.7454277563931202,-0.932603233768932
1.4719521281686898,8.913666645408,-0.031242833176399778,0.7294298448367624,-0.9622146706026132
1.465437680530703,8.762157623701302,-0.030799525280615896,0.7135132190365495,-0.9924155887182482
1.4590135571421479,8.613982745451459,-0.03038260222943393,0.6976760976286105,-1.0231111560300175
1.4526743436907457,8.469125492085322,-0.029990859212492497,0.6819167915726791,-1.0542065946495154
1.446414880415744,8.327569690035837,-0.029623076739904206,0.666233704136684,-1.085606948651423
1.440230265042978,8.189299491312688,-0.029278022048342442,0.6506253313218572,-1.1172168463525232
1.434115855453225,8.054299353934798,-0.02895445023501959,0.6350902627532765,-1.1489402558432522
1.4280672721406957,7.922554022123784,-0.028651105122400135,0.6196271830659017,-1.1806802324320187
1.4220804005181953,7.794048506150563,-0.028366719853794423,0.6042348738218996,-1.21233865657221
1.416151393125746,7.668768061719106,-0.028100017217152082,0.5889122160014868,-1.24381596073952
1.4102766718003497,7.54669816876169,-0.02784970969138363,0.5736581931167508,-1.275010843612353
1.4044529298660882,7.427824509508795,-0.027614499206346833,0.5584718950060729,-1.305819969780154
1.3986771344059807,7.3121329456836754,-0.02739307660419885,0.5433525223760154,-1.3361376530632885
1.3929465286800005,7.199609494656553,-0.027184120786089314,0.5282993921680017,-1.3658555213736967
1.3872586347574305,7.090240304375818,-0.026986297524100755,0.5133119438389909,-1.3948621608785783
1.3816112564364436,6.984011626873549,-0.026798257913871585,0.4983897466588271,-1.4230427370513303
1.3760024825294555,6.880909790119439,-0.02661863643839523,0.4835325081422218,-1.4502785900075224
1.3704306905995842,6.780921167970689,-0.026446048607998398,0.4687400837506319,-1.4764468013332945
1.3648945512415305,6.6840321479348965,-0.026279088135369923,0.45401248801883415,-1.5014197294261495
1.3593930330095656,6.590229096428207,-0.02611632359762984,0.43934990728296325,-1.5250645101942444
1.3539254081061998,6.4994983211713055,-0.02595629452966405,0.42475271421133176,-1.5472425198156297
1.3484912589577505,6.411826030320629,-0.025797506884139367,0.4102214843665392,-1.5678087961663683
1.3430904858176431,6.327198287881146,-0.025638427783548967,0.3957570150571221,-1.5866114155192637
1.3377233155551753,6.245600964889409,-0.02547747947804868,0.3813603467689395,-1.6034908212407903
1.3323903118069966,6.167019685791182,-0.02531303240936715,0.36703278749988194,-1.6182791015410198
1.3270923866911664,6.091439769366428,-0.02514339726520739,0.35277594035492554,-1.6307992139573495
1.321830814309912,6.018846163476248,-0.02496681588959651,0.33859173478965016,-1.6408641553164978
1.3166072462978906,5.949223372822239,-0.02478145089155939,0.3244824619151906,-1.6482760776181635
1.3114237297088704,5.882555378820694,-0.024585373765775204,0.310450814290012,-1.6528253528993702
1.3062827275767286,5.8188255506057445,-0.024376551302241554,0.29649993061426033,-1.654289594071619
1.3011871425385302,5.758016546093174,-0.02415283001393297,0.28263344569594695,-1.6524326445450057
1.2961403439711734,5.700110201970098,-0.023911918246607086,0.268855545952397,-1.647003557979597
1.2911461991730697,5.645087411441409,-0.023651365544857295,0.2551710305113197,-1.6377356018982616
1.2862091092252639,5.592927988586279,-0.02336853871995945,0.2415853776327747,-1.6243453368173355
1.2813340503025885,5.543610518295708,-0.0230605938769478,0.22810481561074972,-1.6065318483682314
1.2765266213909168,5.497112191032503,-0.02272444337706832,0.21473639641976988,-1.5839762469547953
1.2717930996265656,5.453408622164925,-0.022356716283419127,0.20148806898572302,-1.5563416025588641
1.267140504848372,5.412473656502385,-0.02195371017556924,0.1883687468479971,-1.5232735579818195
1.2625766755056445,5.374279160092712,-0.021511331183740844,0.17538836181555503,-1.4844019711318177
1.258110358898033,5.338794803593064,-0.021025017460177868,0.1625578905620413,-1.4393440878718091
1.2537513199997186,5.305987844972208,-0.02048963871424463,0.149889334398499,-1.3877099562285335
1.249510475101727,5.2758229244353245,-0.019899360314246974,0.13739562309561867,-1.3291110764959293
1.2454000596094255,5.2482618918894595,-0.019247453898147925,0.12509040115072664,-1.263173651813975
1.2414338442162154,5.223263697611159,-0.0185260260371862,0.1129876395949994,-1.1895582535146512
1.23762742136691,5.2007843903829,-0.01772562014667419,0.10110100067414335,-1.10798818685182
1.2339985960017543,5.180777283567423,-0.01683462142623794,0.08944287375897289,-1.018289157761346
1.2305679334167035,5.1631933651286275,-0.01583835557424596,0.07802301613431407,-0.9204425749651413
1.2273595463230356,5.147982033555504,-0.01471771198449604,0.06684680837161222,-0.8146531058096872
1.2244022489291961,5.135092218261981,-0.013447025099689728,0.05591333728097883,-0.7014264447701763
1.221731281096933,5.124473852819676,-0.011990763779007972,0.04521395264572549,-0.5816437365849052
1.2193909482117717,5.1160794498045945,-0.010298120841574993,0.03473274273599172,-0.456603895769372
1.2174388694391862,5.109865073256721,-0.008293105564000551,0.0244517958151705,-0.3279881564180406
1.2159536632040837,5.10578903345106,-0.005851715722689586,0.014367630905418803,-0.19769480645306875
1.2150532170409232,5.103803334469312,-0.0027239620216968964,0.004543787968386451,-0.06751550380842
