x,y,v_x,v_y,omega
2.375,32.48,0.0,2.6666666666666665,-7.755102040816326
2.3735142296533365,31.952441533967054,-0.014857703466635794,2.6089179936627636,-7.316464955765377
2.36925210932415,31.43621572893468,-0.027763499825226794,2.5533400566609687,-6.914606533902299
2.3625794509231413,30.93090276422896,-0.038963084184860955,2.499789590396228,-6.545448759990081
2.3538163532891394,30.43611004960136,-0.04866789215516028,2.448137555879756,-6.20545970592991
2.34324351060096,29.951469577038125,-0.05706053472663102,2.3982671697526103,-5.891568172012019
2.3311075326242663,29.476635632025683,-0.06429924504030621,2.3500722803718017,-5.601093659330749
2.3176254538450323,29.01128280210787,-0.07052154275203383,2.303456018806335,-5.331688544068311
2.3029885722592938,28.55510423326527,-0.07584727310535136,2.2583296696196875,-5.081290042192728
2.2873657307429105,28.107810094426306,-0.08038114205848078,2.214611718769921,-4.848080088199541
2.2709061323218287,27.669126218016178,-0.08421484215233675,2.1722270453313763,-4.630451654814379
2.2537417637360972,27.23879289039754,-0.08742884370497864,2.1311062308550057,-4.426980347656008
2.2359894883060765,26.816563770749475,-0.09009391059522939,2.0911849656256454,-4.236400344918699
2.217752858436627,26.40220492066007,-0.092272388099266,2.0524035352683927,-4.057583935201607
2.199123689519455,25.995493929692035,-0.09401930107245196,2.014706374411954,-3.889524049753833
2.1801834300545315,25.59621912458467,-0.0953832935767832,1.9780416766616877,-3.731319298179653
2.1610043571599746,25.20417885170476,-0.09640743536878647,1.9423610521374237,-3.5821611061316507
2.141650622009686,24.819180823949345,-0.09712991613410149,1.9076192254167303,-3.4413226249899393
2.122179165924008,24.441041524608917,-0.09758464472268111,1.8737737679875501,-3.3081491409608796
2.102640524681106,24.069585661777502,-0.09780176770633497,1.840784860326613,-3.1820497574499
2.0830795359905587,23.70464566779122,-0.09780811919913916,1.8086150795361844,-3.0624901622837397
2.0635359628769647,23.34606123892427,-0.09762761193679896,1.777229209133309,-2.9489863221622215
2.044045043881771,22.993678911198447,-0.09728157801513576,1.7465940681249352,-2.8410989719949575
2.0246379794430798,22.64735166869154,-0.0967890663717795,1.7166783569441217,-2.738428787608412
2.0053423625053988,22.30693858117849,-0.09616710300503058,1.6874525181863997,-2.6406121475466646
1.9861825603031757,21.972304468321198,-0.0954309190172019,1.6588886103865268,-2.547317404010385
1.9671800533201755,21.643319587949907,-0.09459415081279958,1.6309601933263627,-2.458241594920538
1.9483537366241286,21.319859346259882,-0.0936690161476698,1.6036422235739058,-2.373107539086241
1.9297201880901562,21.001804027989564,-0.0926664691920536,1.576910959129248,-2.2916612648459522
1.9112939074388666,20.6890385448565,-0.09159633732084205,1.550743872201361,-2.2136697296170924
1.8930875295103824,20.38145220070986,-0.09046744196400101,1.525119569265093,-2.1389187937581133
1.8751120147612272,20.078938472017903,-0.08928770552755042,1.5000177176544471,-2.0672114172036102
1.8573768195963574,19.78139480244853,-0.08806424612114974,1.4754189780392901,-1.9983660516285093
1.839907994333555,19.48873008574232,-0.08662400650687246,1.451228189022837,-1.9268591151041767
1.8227280247781512,19.200856367626272,-0.08517568904716394,1.4275089921375879,-1.8586074168927558
1.8058381470934264,18.917681029619338,-0.08372308780008592,1.4042443879317572,-1.793424125687662
1.789238883416009,18.63911477378384,-0.08226954897408906,1.3814181704232171,-1.7311351764606666
1.7729301266803432,18.365071468759048,-0.08081801838256614,1.3590148798247201,-1.6715782582726655
1.7569112164643632,18.095468004908074,-0.079371083777235,1.3370197586850163,-1.6146018932027593
1.7411810068224736,17.830224157924306,-0.07793101264166179,1.315418711152671,-1.5600645972225606
1.725737926962701,17.569262460299168,-0.07649978595606592,1.2941982650987087,-1.507834114863513
1.710580035528752,17.312508080103278,-0.07507912838342214,1.2733455368601643,-1.4577867204213835
1.695705069163055,17.0598887065783,-0.07367053527354667,1.2528481983896487,-1.4098065792304877
1.6811104859521744,16.81133444207768,-0.07227529683525985,1.2326944466165182,-1.3637851632347893
1.6667935042900535,16.566777699931684,-0.07089451978594906,1.2128729748434726,-1.3196207156959148
1.652751137636245,16.326153107845467,-0.06952914675213677,1.193372946018691,-1.277217760419792
1.638980225594699,16.08939741646978,-0.06817997366332258,1.1741839677381747,-1.2364866513630526
1.6254774616929826,15.856449412811362,-0.06684766535384189,1.1552960688460117,-1.1973431589053014
1.6122394182012707,15.627249838175562,-0.06553276956327592,1.1366996775119829,-1.1597080894505885
1.59926256829448,15.40174131035672,-0.0642357295046317,1.1183856006764528,-1.123506935356718
1.5865433058289449,15.179868249812877,-0.06295689515072048,1.1003450047619647,-1.088669552489485
1.5740779629766148,14.96157680958073,-0.06169653337258029,1.082569397559502,-1.0551298629649184
1.561862825934443,14.746814808704272,-0.06045483704913904,1.065050611205095,-1.0228255808799787
1.5498941489040932,14.535531668966819,-0.059231933254358236,1.0477807861694335,-0.9916979590442334
1.5381681665169946,14.327678354730928,-0.05802789061662874,1.0307523561894643,-0.9616915549147658
1.526681104861829,14.123207315704313,-0.05684272593502624,1.0139580340766883,-0.9327540141064871
1.5154291912555244,13.922072432462436,-0.05567641012801981,0.9973907983420759,-0.9048358700023909
1.5044190765055592,13.724415462832798,-0.05442473737163034,0.9791788979543142,-0.9150261614352252
1.4936544599528925,13.530388804835685,-0.05322142815503904,0.9610876820168198,-0.9273046407818845
1.4831257685433177,13.339968659375355,-0.05206548594070798,0.9431137725864928,-0.9415427993173935
1.4728236349548356,13.153131888776304,-0.050955849944112674,0.9252539334039998,-0.957615515086164
1.4627389097634584,12.969855989011403,-0.049891401969658945,0.9075050642449982,-0.9754007611867028
1.4528626723015505,12.79011906300973,-0.04887097264942066,0.8898641957717448,-0.9947793231373695
1.4431862403238453,12.613899794945922,-0.047893347127630846,0.8723284848663161,-1.0156345241127966
1.4337011785880711,12.441177425416303,-0.04695727023011228,0.8548952104298876,-1.037851956874746
1.4243993064496285,12.271931727409743,-0.04606145115431321,0.8375617696356952,-1.061319221246837
1.4152727045629678,12.106142982983528,-0.04520456771229138,0.8203256746264684,-1.0859256659998908
1.4063137207761547,11.94379196055585,-0.0443852701558398,0.80318454965032,-1.111562134023661
1.3975149752995764,11.784859892727582,-0.043602184609945624,0.786136128632338,-1.1381207096614583
1.3888693652247923,11.629328454546098,-0.04285391613789467,0.7691782531824882,-1.1654944670765297
1.3803700684651472,11.477179742123454,-0.0421390514585548,0.7523088710439559,-1.1935772185028795
1.372010547185925,11.328396251520083,-0.04145616133366828,0.735526034989756,-1.222263261208261
1.363784550788525,11.182960857803167,-0.040803802640331566,0.718827902179407,-1.2514471219630658
1.35568611851037,11.040856794186055,-0.04018052014121792,0.7022127339917176,-1.2810232977654021
1.3477095817000004,10.902067631151446,-0.03958484796247719,0.6856788963543646,-1.310885991519405
1.3398495658250924,10.766577255456408,-0.03901531078660375,0.6692248605960034,-1.340928841300318
1.3321009922699452,10.634369848911586,-0.0384704247648692,0.6528492048522331,-1.3710446417656603
1.324459079978344,10.50542986682007,-0.037948698151143045,0.6365506160629225,-1.4011250561864368
1.3169193469976257,10.379742015953248,-0.03744863165604046,0.6203278926052905,-1.431060317475461
1.309477611980291,10.257291231931234,-0.0369687185173076,0.6041799476148383,-1.4607389164812017
1.3021299957006456,10.138062655864264,-0.03650744427914519,0.5881058130548721,-1.4900472756950878
1.2948729226457572,10.02204161009827,-0.03606328626973924,0.5721046446050745,-1.5188694063881936
1.2877031227425264,9.90921357289271,-0.03563471276256799,0.5561757274505241,-1.5470865470504813
1.280617633285966,9.799564151841167,-0.03522018180303631,0.5403184830649017,-1.5745767808538298
1.273613801137903,9.693079055825127,-0.03481813967759321,0.5245324770955136,-1.6012146297015586
1.2666892852703788,9.589744065268235,-0.03442701899764896,0.5088174284734029,-1.626870622266237
1.2598420597340894,9.489545000431956,-0.0340452363652464,0.4931732198893651,-1.6514108332606288
1.2530704171394185,9.392467687463391,-0.03367118958146273,0.47759990979630207,-1.6746963910431656
1.246372972746091,9.298497921871746,-0.0333032543518107,0.4620977461201401,-1.6965829505432415
1.239748669267377,9.207621429071178,-0.03293978043533024,0.4466671818855406,-1.716920128422909
1.2331967825063004,9.11982382158375,-0.032579087175434486,0.4313088929887478,-1.735550897398896
1.2267169279546903,9.035090552447095,-0.03221945834066503,0.41602379837782055,-1.7523109367729939
1.2203090685014233,8.95340686431636,-0.031859136192006476,0.4008130829295341,-1.7670279365174884
1.2139735234142344,8.874757733689286,-0.031496314679882106,0.385678223341219,-1.779520852816904
1.2077109787804665,8.799127809616891,-0.031129131657796502,0.37062101738273767,-1.7895991138928082
1.2015224996166927,8.726501346191068,-0.030755659979941345,0.35564361687548685,-1.797061776396718
1.1954095438861316,8.656862128025846,-0.030373897325669374,0.3407485647767362,-1.8016966348755008
1.1893739786972963,8.590193387874066,-0.02998175456268455,0.3259388367410696,-1.803279290115888
1.1834180989990024,8.526477715450511,-0.02957704242025512,0.3112178874944801,-1.8015721870139267
1.1775446491380361,8.465696956473742,-0.029157456189406815,0.2965897022732064,-1.7963236396325835
1.1717568477098708,8.407832100904177,-0.028720558092247567,0.2820588534224604,-1.7872668712121023
1.166058416214945,8.352863159363835,-0.028263756857010786,0.2676305619809419,-1.7741191113624777
1.1604536121409426,8.300769026801909,-0.02778428388301366,0.2533107636383213,-1.7565808133004357
1.1549472672371097,8.25152733266195,-0.027279165155314485,0.2391061777612536,-1.7343350833334945
1.149544831948304,8.205114277173994,-0.026745187732742454,0.22502437711831158,-1.7070474563927305
1.1442524272627803,8.161504454029828,-0.026178859122494715,0.21107385432335016,-1.6743662101945342
1.1390769056434813,8.120670660735549,-0.0255763570704961,0.19726407861945353,-1.6359234932767446
1.1340259233281968,8.082583699562075,-0.02493346608234795,0.18360553311527103,-1.5913376575972393
1.1291080272102159,8.047212174496352,-0.024245495097462235,0.17010971754198181,-1.5402173458286434
1.1243327609224085,8.014522293288962,-0.02350716778061053,0.15678909453191758,-1.4821680998287046
1.1197107969175872,7.984477689048283,-0.022712472267602014,0.14365694787488886,-1.4168025418386914
1.115254104692488,7.957039283354142,-0.02185444998339114,0.13072710906651525,-1.3437555370083492
1.1109761704976975,7.932165222982441,-0.0209248919645147,0.1180134946504993,-1.2627061519211729
1.1068922919047672,7.9098109350304355,-0.0199138939647882,0.10552938486955471,-1.1734085923352222
1.103019982940907,7.8899293592401705,-0.018809195673812496,0.09328637303309942,-1.0757344117917562
1.0993795443202803,7.8724714274723695,-0.01759519053245443,0.08129294464489899,-0.9697276496304871
1.095994881887061,7.857386858601526,-0.016251433799738545,0.06955274406352384,-0.8556722804888564
1.092894700503769,7.844625302316647,-0.014750380033182273,0.058062818785280024,-0.7341660415550939
1.0901142737592526,7.834137761578983,-0.013053887411980778,0.04681258859135167,-0.606184888487201
1.0876981338679625,7.825877994192268,-0.01110751150091957,0.035785085275792626,-0.47310821870823744
1.0857043940702613,7.8198031420666325,-0.00882988647609332,0.024963435980563827,-0.33666174645851105
1.08421266100949,7.815871849602768,-0.006087444131619731,0.014349488658079786,-0.19873411647388647
1.0833435221959447,7.81403446663721,-0.0026039440038330293,0.004024340997484138,-0.06105299135042824
