x,y,v_x,v_y,omega
2.375,32.48,0.0,3.641025641025641,-8.0
2.372571898027539,31.726115138150675,-0.023124780690103312,3.5388301861107725,-7.374387540843729
2.3657174048058605,30.993132062274107,-0.04215610713540863,3.4419610127136897,-6.823039050324413
2.3552223363827918,30.279979939902706,-0.05779692546524538,3.3499639622520236,-6.334626761500694
2.341738715248025,29.58567739080798,-0.0706185139134824,3.262441267221562,-5.899865435338197
2.325809544082987,28.9093216571766,-0.0810878781345015,3.1790419102201133,-5.511091138488146
2.307888493911182,28.250079576549133,-0.08958879016840399,3.099454095755796,-5.16193776891572
2.288355668703408,27.607179971815853,-0.09643811657229981,3.023399282656365,-4.847086058531916
2.267530312715262,26.979907171401784,-0.1018986071243292,2.9506273879538227,-4.562067002524708
2.245681114760385,26.367595442891485,-0.1061889924459262,2.8809128835728357,-4.303106623938881
2.2230346090617363,25.769624173881912,-0.10949201420787148,2.814051583185019,-4.067002448952772
2.1997820580606278,25.185413670826073,-0.11196085246935383,2.7498579697277354,-3.851024531016667
2.176085117031158,24.61442147407019,-0.11372430019225988,2.688162951756844,-3.6528356365002375
2.152080515614937,24.056139107928697,-0.11489095139079822,2.628811963876432,-3.470426499522096
2.1278839419213624,23.510089200370466,-0.11555260759562916,2.5716633462019436,-3.30206300968977
2.1035932767048857,22.975822919022704,-0.11578706113272186,2.516586952348189,-3.146242909672942
2.0792912955061844,22.452917679666715,-0.11566037885490825,2.4634629462802846,-3.001660116613742
2.055047933468407,21.940975090869152,-0.1152287834096354,2.412180756553637,-2.8671751893402955
2.0309221892930127,21.439619104345546,-0.11454020873697905,2.362638162718822,-2.7417907756977664
2.0069637303498156,20.9484943454438,-0.11363559072204174,2.314740493488274,-2.624631115205193
1.9832142494509877,20.467264602025615,-0.1125499416477471,2.26839992001826,-2.5149248592918467
1.959708614592956,19.99561145320912,-0.11131324747636318,2.223534830615037,-2.411990617516218
1.93647584556967,19.5332330220649,-0.10995121941207525,2.1800692755204056,-2.315224753037726
1.9135399453856003,19.07984283854262,-0.10848592519811208,2.1379324723107813,-2.2240910413899173
1.8909206095527615,18.635168800734107,-0.10693632082892394,2.097058363960784,-2.1381118787182913
1.8686338324137108,18.198952224118308,-0.10531869954298748,2.0573852228563427,-2.056860783214357
1.846692426412236,17.77094696973778,-0.1036470718996311,2.0188552950534464,-1.979955979647607
1.8251064675938578,17.350918643366327,-0.10193348827540048,1.9814144799127607,-1.907054894089084
1.8038836784474483,16.938643858677548,-0.1001883131189723,1.945012040932776,-1.8378494160059275
1.783029757408285,16.53390955824046,-0.09842045868258384,1.9096003441823588,-1.7720618093412541
1.7625486628607572,16.136512386873306,-0.09663758462720692,1.8751346212190976,-1.7094411741154873
1.7424428582488982,15.74625811249739,-0.09484626881906867,1.8415727537896216,-1.6497603763872764
1.7227135238791673,15.362961090164141,-0.09305215374979603,1.8088750779556033,-1.59281337779929
1.703360740145591,14.986443765392355,-0.0912600722842636,1.7770042055852227,-1.5384129069650776
1.684383646192594,14.616536213358575,-0.08947415583951791,1.7459248614031635,-1.4863884240723557
1.665780577431316,14.253075710840218,-0.08769792760122463,1.715603734009759,-1.436584337640704
1.6475491848211385,13.895906338125112,-0.08593438297189462,1.6860093394674376,-1.3888584386625462
1.629686538403343,13.544878608378472,-0.08418605910234923,1.6571118962148577,-1.3430805226048141
1.6121892172150276,13.199849122203872,-0.08245509507208153,1.6288832102099104,-1.2991311741400478
1.5950533874077024,12.860680245352672,-0.0807432840453027,1.60129656932534,-1.2569006931600715
1.5782748701373637,12.527239807730098,-0.07905211852935254,1.5743266461277388,-1.2162881437249058
1.5618492005738982,12.19940082201893,-0.07738282969412782,1.5479494082643503,-1.177200510213888
1.545771679191187,11.877041220395917,-0.07573642156978731,1.5221420357643416,-1.1395519471566138
1.5300374163401806,11.560043607954139,-0.07411370082074956,1.4968828446335363,-1.1032631110952045
1.5146629356270327,11.248298768348693,-0.07230992501875515,1.4721156277992817,-1.0623630092507257
1.499662679001819,10.941701456699388,-0.0705496618880427,1.4478587688607827,-1.0234020393834407
1.4850275630121255,10.640146478973556,-0.06883239515665683,1.4240933999566772,-0.9862646730287843
1.470748622218265,10.343532508865717,-0.0671575171658238,1.4008015534513039,-0.9508435753401886
1.4568170266514942,10.05176190441956,-0.06552434537485215,1.3779661079406584,-0.9170389318061837
1.4432240960429388,9.76474053558264,-0.06393213661138897,1.3555707381252433,-0.8847578376676613
1.429961311265465,9.482377621915646,-0.062380099364552716,1.333599868227062,-0.8539137435238732
1.4170203233724623,9.20458557974263,-0.06086740437832985,1.3120386286587837,-0.8244259513603172
1.4043929605670844,8.931279878087,-0.059393193768126414,1.290872815680567,-0.7962191558834322
1.392071233391795,8.662378902791058,-0.057956588853677,1.2700888538045982,-0.7692230266184957
1.3800473383901863,8.39780382826499,-0.05655669687593042,1.2496737607293826,-0.7433718267289804
1.3683136604601502,8.13747849635482,-0.05519261674346067,1.2296151146055592,-0.7186040649570528
1.3568627740889236,7.8813293018587025,-0.05386344393488788,1.2099010234527168,-0.694862177473761
1.345687443635693,7.629285084257091,-0.052568274667310455,1.1905200965626317,-0.6720922367705173
1.334780622805845,7.381277025255454,-0.05130620942648063,1.1714614177386968,-0.6502436850265788
1.3241354534421448,7.1372385517682915,-0.05007635594209216,1.1527145202342612,-0.6292690896553992
1.3137452637417384,6.897105244000944,-0.048877831680824886,1.134269363264292,-0.6091239189703156
1.3036035659936014,6.660814748310781,-0.04770976592048079,1.1161163099753437,-0.5897663361208199
1.293704053918603,6.428306694552688,-0.04657130146045578,1.0982461067683982,-0.5711570096379202
1.284040599683496,6.1995226176348375,-0.04546159601675518,1.0806498638778128,-0.5532589390936576
1.274607250650655,5.974405883030329,-0.04437982334363614,1.0633190371174965,-0.5360372945281896
1.2653982259171175,5.75290161600817,-0.043325174118624465,1.0462454107125894,-0.5194592684301329
1.2564079126892467,5.5349566343635,-0.04229685662300225,1.0294210811414302,-0.5034939391739636
1.247630862533022,5.320519384442203,-0.04129409724580425,1.012838441918528,-0.4881121449238366
1.2390617875344514,5.109539880269018,-0.04031614083581871,0.9964901692546573,-0.47328636710766414
1.2307040242238818,4.902109502214053,-0.039281604979130226,0.9790372407926274,-0.4858192295576701
1.2225586815615996,4.6983318536266125,-0.038293087042603834,0.961702269563956,-0.5004257096918958
1.2146161782652214,4.498182514134619,-0.03734980149433166,0.9444819160740661,-0.5169868215465174
1.2068671052969389,4.301637750565153,-0.03645089344169282,0.9273729750637074,-0.5353870198723547
1.1993022396657773,4.108674489365146,-0.035595445902703735,0.91037236969825,-0.5555139333484901
1.191912556768262,3.9192702901942162,-0.0347824864545849,0.8934771462153618,-0.5772581073316316
1.1846892413934367,3.7334033205955777,-0.034010993305657045,0.8766844690097765,-0.6005127550658367
1.177623697508899,3.5510523316552067,-0.03327990083279844,0.8599916161366207,-0.625173516316241
1.1707075569360328,3.3721966345630285,-0.03258810462307036,0.8433959752174527,-0.6511382224221403
1.1639326870148645,3.1968160779929384,-0.03193446605472277,0.8268950397357805,-0.6783066667893396
1.1572911973519107,3.024891026220981,-0.031317816449600376,0.8104864057114155,-0.706580379859241
1.1507754457379773,2.8564023379029955,-0.030736960825955607,0.7941677687455991,-0.735862407602733
1.1443780433170812,2.6913313454344063,-0.030190681277816527,0.7779369214314479,-0.766057092590548
1.1380918590824556,2.529659834815778,-0.029677740004330804,0.7617917511269268,-0.7970698566882726
1.1319100237709625,2.371370025947968,-0.029196882009889364,0.7457302380903148,-0.8288069844134562
1.1258259332231273,2.2164445532804784,-0.028746837493303118,0.7297504539810052,-0.8611754059740296
1.1198332512724372,2.064866446735664,-0.028326323941841095,0.7138505607315283,-0.8940824789811886
1.1139259122244747,1.91661911282986,-0.027934047943515755,0.6980288097999361,-0.9274357677956377
1.1080981229839026,1.7716863159102694,-0.027568706728598635,0.6822835418151996,-0.9611428194231393
1.1023443648852609,1.630052159423304,-0.02722898944894277,0.6666131866320886,-0.9951109348231342
1.0966593952819903,1.4917010671262325,-0.026913578201252775,0.6510162638161981,-1.0292469344321742
1.0910382489470738,1.356617764149167,-0.026621148797952836,0.635491383584423,-1.0634569166313264
1.0854762393381823,1.2247872578085115,-0.026350371286728902,0.6200372482313382,-1.097646007802845
1.0799689597802766,1.09619481806606,-0.02609991021713394,0.6046526540777165,-1.1317181025254353
1.0745122846192474,0.9708259575195903,-0.025868424649811077,0.5893364939838972,-1.1655755923485709
1.0691023704014255,0.8486664108010871,-0.02565456790087291,0.5740877604780413,-1.1991190814637407
1.0637356571357066,0.7297021132473454,-0.02545698701073619,0.5589055495575938,-1.2322470874535052
1.0584088696976428,0.6139191786944735,-0.025274321923205435,0.543789065231678,-1.2648557251472563
1.0531190194382447,0.5013038762324484,-0.02510520435677728,0.5287376248828428,-1.2968383714453349
1.047863406064459,0.39184260573818364,-0.024948256345943984,0.5137506655387578,-1.328085308790858
1.042639619863442,0.2855218719849901,-0.02480208842564677,0.4988277511583283,-1.358483344772157
1.037445544348925,0.18232825710285283,-0.024665297426895688,0.48396858105249774,-1.3879154051301115
1.0322793594152866,0.08224839113665183,-0.024536463845850082,0.46917299957798553,-1.416260097227476
1.0271395450935363,-0.014731079581608242,-0.024414148742246636,0.45444100726261655,-1.443391240817448
1.0220248860134356,-0.10862352656630492,-0.024296890115856975,0.4397727735439937,-1.4691773627354925
1.0169344766876112,-0.19944237617799843,-0.024183198701518773,0.42516865132926485,-1.4934811519458842
1.0118677277469768,-0.2872011498969158,-0.024071553114047062,0.4106291936127948,-1.5161588712235836
1.006824373272304,-0.37191350833042947,-0.023960394263788917,0.3961551724206951,-1.5370597216736743
1.0018044793847019,-0.4535932994751519,-0.023848118951467996,0.38174760038619526,-1.5560251563295409
0.9968084542784208,-0.5322546118219051,-0.023733072536923437,0.3674077552971892,-1.572888139292004
0.9918370599032544,-0.607911832967666,-0.023613540559899796,0.3531372079958043,-1.587472347368038
0.9868914255314556,-0.6805797144822066,-0.023487739171518824,0.3389378540474392,-1.5995913120733591
0.9819730634762396,-0.7502734438683234,-0.02335380421149119,0.32481194962988225,-1.60904750137014
0.9770838872666396,-0.8170087245516555,-0.023209778737079582,0.31076215211613656,-1.615631342894627
0.9722262326280648,-0.8808018649358331,-0.02305359877315659,0.29679156582838556,-1.6191201940842954
0.9674028816713454,-0.9416698776559684,-0.0228830770051249,0.28290379341099087,-1.6192772701068725
0.9626170907581548,-0.9996305902486284,-0.022695884072881076,0.26910299318575487,-1.6158505486378163
0.9578726225916809,-1.0547027685144954,-0.022489527036394206,0.25539394267966814,-1.6085716824982716
0.9531737831846512,-1.1069062538572467,-0.022261324459127367,0.24178210820365564,-1.5971549686337156
0.9485254644921581,-1.1562621158012831,-0.022008377374138896,0.22827371983475578,-1.5812964473001296
0.943933193679583,-1.2027928206655147,-0.021727535126577463,0.21487585030080952,-1.5606732420913276
0.9394031902506723,-1.2465224169136349,-0.021415354672571288,0.20159649491938125,-1.5349433045230225
0.9349424326264515,-1.287476736884308,-0.021068051272389702,0.18844464765843474,-1.5037458032546525
0.930558736304766,-1.3256836132364214,-0.020681437505566655,0.1754303652188121,-1.4667025073549944
0.9262608465440272,-1.361173106246909,-0.020250845930040968,0.1625648063096541,-1.4234206683517974
0.9220585497670035,-1.3939777346787068,-0.01977102813685026,0.14986022637412388,-1.3734981238432138
0.9179628098365797,-1.4241326977586368,-0.019236018819566363,0.1373298981966322,-1.316531645404164
0.9139859384435145,-1.4516760681909133,-0.018638946828673515,0.12498791544410448,-1.2521299522577525
0.9101418137526518,-1.476648925335148,-0.01797176451287506,0.11284881926288189,-1.1799333104360703
0.9064461692654253,-1.4990953831613467,-0.017224849651186203,0.10092696955806327,-1.0996421863159294
0.9029169872653744,-1.5190624497575698,-0.016386407492156623,0.08923556945360481,-1.011057853482618
0.8995750508131655,-1.5365996369953194,-0.015441558719357594,0.07778526138212741,-0.9141377315309268
0.8964447390327608,-1.5517582293486853,-0.014370934427353644,0.06658228484039956,-0.8090666429127222
0.8935551989818098,-1.5645901404203855,-0.013148494629321585,0.05562639203293998,-0.6963404475059083
0.8909421074160224,-1.5751463750142207,-0.011738091711510194,0.0449091755274104,-0.5768483737076777
0.8886503864360642,-1.5834753431089936,-0.01008782238333105,0.03441433013711051,-0.45192346495678826
0.8867386012747518,-1.5896217555648562,-0.008119655343454631,0.02412293134729228,-0.323310764110217
0.8852869671048187,-1.5936278773113486,-0.005705431989242128,0.014030609095490428,-0.192993872070323
0.8844166114783008,-1.5955424752369964,-0.0025836692156904835,0.004203656863066216,-0.06284512451525351
