x,y,v_x,v_y,omega
2.375,32.48,0.0,2.923076923076923,-6.408163265306122
2.3731526806466987,31.816271456655898,-0.01606364655044538,2.8484756277413323,-5.962090494824159
2.367904906929916,31.16930802008452,-0.02956916837810284,2.77729338592279,-5.562703849439581
2.359799891900168,30.538353153628666,-0.04090922318491909,2.7092706702150906,-5.203668863627027
2.349298109141097,29.92270671468558,-0.05041062689395914,2.6441766249421805,-4.879671996935219
2.3367910222053316,29.32171886301471,-0.058346650808351205,2.581804693934971,-4.586231778716351
2.3226122811412306,28.73478487595703,-0.06494674974904781,2.5219691065665875,-4.319549391862236
2.307046907889398,28.161340696383185,-0.07040432200601833,2.4645020201624996,-4.076389490160202
2.290338872185894,27.60085907942413,-0.0748829449809729,2.4092511707858124,-3.853984426340891
2.2726973703345457,27.05284623369472,-0.078521418943795,2.3560779225134016,-3.6499567721495976
2.2543020520041708,26.516838874853786,-0.08143787088555415,2.3048556326251464,-3.4622562482735075
2.2353073890249195,25.99240162606013,-0.08373311154271708,2.2554682699284028,-3.289108090644979
2.215846340777503,25.479124712652713,-0.08549339495655696,2.2078092379621808,-3.1289705552187006
2.196033440189499,24.976621908243704,-0.08679269711304421,2.161780365594398,-2.980499770911978
2.1759674004114276,24.484528697106846,-0.0876946053049651,2.117291035595655,-2.8425205354526155
2.155733323361713,24.002500623806903,-0.08825389077951032,2.074257427882145,-2.7140019435522174
2.1354045763354566,23.53021180583956,-0.08851782249228421,2.0326018587903802,-2.5940369641491885
2.1150443908934204,23.067353588923407,-0.0885272683080292,1.9922522013500863,-2.4818252601386597
2.0947072286248023,22.613633327720457,-0.0883176209843032,1.9531413743277286,-2.3766586822530753
2.0744399506074043,22.16877327732078,-0.08791957916698294,1.915206890017297,-2.2779089776212227
2.0542828210851503,21.732509582931186,-0.08735980798305418,1.878390452500911,-2.1850173397654995
2.0342703707463623,21.30459135695155,-0.08666149931075387,1.8426375994959137,-2.097485495478098
2.0144321407835255,20.884779834076426,-0.08584484819217654,1.8078973820269055,-2.014868079000671
1.9947933254633923,20.472847596280225,-0.08492745893941508,1.7741220770704857,-1.936766088163634
1.9753753280908635,20.068577860574905,-0.08392469212605184,1.7412669290627394,-1.862821252885595
1.9561962428965045,19.6717638233042,-0.0828499617379404,1.709289916769475,-1.792711175443684
1.937271273424541,19.28220805548549,-0.0817149901921759,1.6781515425236464,-1.7261451255667337
1.918613096372528,18.899721944351057,-0.08053002765141475,1.6478146412540549,-1.6628603927440195
1.9002321784767644,18.524125176792573,-0.07930404100739886,1.6182442070805534,-1.602619114023452
1.8821370529014123,18.15524526089048,-0.07804487703914201,1.5894072355463376,-1.545205508659771
1.8643345606356079,17.792917082124777,-0.07675940353307041,1.561272579807628,-1.4904234617936707
1.8468300616002802,17.436982491225884,-0.07545363155673432,1.533810819313186,-1.4380944083184448
1.8296276194892993,17.087289920940847,-0.07413282158223147,1.506994139687128,-1.3880554755593983
1.812730163796985,16.74369402926821,-0.07280157574223818,1.480796222683636,-1.3401578496246587
1.796169099132201,16.406060533107627,-0.07120768221240616,1.4551472221909838,-1.2871175568101574
1.779972231306584,16.074260364276018,-0.06963464670600247,1.430071637214312,-1.236777943078671
1.76413455398572,15.748164243621257,-0.06808428651890133,1.4055468032618803,-1.1889666262722232
1.7486506820850072,15.42764797109491,-0.0665580778351235,1.3815512187063461,-1.143524316795739
1.7335149250618995,15.11259216692411,-0.06505720062668287,1.3580644697354043,-1.100303666538897
1.7187213505374253,14.802882029377098,-0.06358257784700654,1.3350671611081848,-1.059168232422801
1.7042638394736505,14.498407107847619,-0.062134909664077566,1.312540852191643,-1.0199915418472494
1.690136133973915,14.199061090097903,-0.060714703377100686,1.2904679978058864,-0.9826562488696061
1.6763318786346577,13.90474160260283,-0.059322299572962624,1.2688318934556337,-0.9470533712942256
1.662844656258332,13.61535002303015,-0.057957895003781006,1.2476166245676594,-0.9130816000219498
1.649668018633609,13.330791303974806,-0.05662156260250743,1.2268070193918568,-0.8806466730276289
1.636795512999519,13.050973807140178,-0.055313268998274386,1.2063886052570842,-0.8496608072213144
1.6242207047324726,12.775809147226795,-0.05403288984560772,1.1863475679027813,-0.820042182223887
1.6119371967275549,12.505212044850076,-0.05278022324063284,1.1666707136339036,-0.791714470765855
1.5999386458867493,12.239100187864079,-0.05155500146202585,1.147345434070434,-0.764606411012071
1.5882187770755687,11.977394100518328,-0.05035690124389015,1.1283596732839245,-0.7386514166364014
1.5767713948649735,11.72001701992044,-0.049185552761286826,1.1097018971324968,-0.7137872209285848
1.565590393336509,11.466894779318586,-0.04804054748623006,1.091361064622758,-0.6899555516188879
1.5546697641946032,11.217955697755595,-0.046921445052079576,1.07332660114237,-0.6671018334618077
1.5440036034002094,10.973130475680833,-0.045827779246998594,1.0555883734207687,-0.6451749159340872
1.533586116513959,10.732352096137333,-0.044759063242135175,1.0381366660879199,-0.6241268236799786
1.5234116229141947,10.495555731170324,-0.043714794147120005,1.0209621597121727,-0.603912527582559
1.5134745590352556,10.262678653129463,-0.04269445697408916,1.0040559102083706,-0.584489734557907
1.5037694807538617,10.0336601505611,-0.04169752808151026,0.9874093295165081,-0.5658186943625216
1.4942998767311215,9.808555338628917,-0.040646854724926317,0.9700238177198698,-0.5678765068052275
1.4850672260473603,9.587434085713483,-0.039637064264300935,0.9527696858925945,-0.5724797488063402
1.4760621429622716,9.370266635228923,-0.03866800604082043,0.9356429270166293,-0.5794890962305794
1.4672752907855071,9.157024132571902,-0.03773940419191332,0.9186397047835537,-0.588769948835639
1.4586974093186371,8.947678586818505,-0.03685086943304238,0.9017563452459724,-0.6001920896845294
1.4503193396998708,8.742202834268411,-0.03600190986057756,0.8849893291026553,-0.6136293596762208
1.442132046868037,8.540570503694802,-0.035191940851023375,0.868335284580906,-0.6289593457179506
1.4341266398457226,8.34275598316638,-0.03442029412562265,0.8517909808836218,-0.646063081139164
1.4262943900262641,8.148734388314953,-0.033686226043581846,0.8353533221722691,-0.6648247570131061
1.4186267476353436,7.958481531928175,-0.032988925181813115,0.8190193420605798,-0.6851314431081257
1.4111153565252113,7.771973894752531,-0.03232751925411961,0.8027861985972116,-0.7068728172372374
1.4037520674479034,7.5891885973961735,-0.03170108141812328,0.7866511697189452,-0.7299409018117643
1.3965289499432196,7.41010337322518,-0.03110863601390928,0.7706116491592583,-0.754229806433182
1.3894383029675752,7.234696542149827,-0.03054916377430396,0.7546651428003416,-0.779635475376756
1.382472664381099,7.062946985199904,-0.03002160654287891,0.7388092654598644,-0.806055438831243
1.3756248194024705,6.8948341197897065,-0.029524871532151456,0.7230417381070737,-0.83338856676078
1.3688878081339082,6.7303378755741825,-0.029057835150999894,0.7073603855061853,-0.8615348242479501
1.3622549322524382,6.5694386707977905,-0.02861934642700055,0.6917631342885225,-0.890395027160669
1.355719760958021,6.412117389036876,-0.028208230046193213,0.6762480114585471,-0.919870596959639
1.3492761362642975,6.258355356234716,-0.02782328902966221,0.6608131433428405,-0.9498633134272453
1.3429181777136123,6.108134317925828,-0.0274633070632522,0.6454567549953137,-0.9802750640523914
1.336640286594564,5.961436416542568,-0.027127050493690165,0.6301771700764992,-1.0110075887482808
1.330437149737637,5.818244168692345,-0.026813270001325853,0.614972811229796,-1.0419622185108357
1.3243037429624758,5.678540442287865,-0.02652070195659905,0.5998422009830835,-1.0730396065435226
1.3182353342490887,5.542308433405626,-0.02624806946415755,0.5847839632102833,-1.1041394502789736
1.3122274867047572,5.409531642739093,-0.02599408309524703,0.5697968251943482,-1.1351602026180638
1.3062760613986677,5.280193851502538,-0.025757441305531363,0.554879620340923,-1.1659987705821326
1.3003772201373707,5.154279096629253,-0.025536830531834816,0.5400312916006871,-1.1965501994329801
1.2945274282561114,5.031771645093315,-0.025330924957375822,0.5252508956683317,-1.2267073401574298
1.2887234575039677,4.912655967167154,-0.025138385930831057,0.5105376080374251,-1.2563604980381915
1.282962389104626,4.796916708407473,-0.024957861019966377,0.4958907290032867,-1.2853970598404958
1.2772416170796441,4.684538660139218,-0.02478798267552847,0.4813096907206628,-1.313701096935233
1.2715588519272725,4.575506728180773,-0.02462736647552893,0.46679406543973,-1.3411529414559307
1.2659121247574905,4.469805899522957,-0.02447460891388003,0.45234357506302236,-1.367628732352295
1.2602997919929921,4.367421206639136,-0.024328284690453728,0.437958102187579,-1.3929999279630552
1.2547205407566204,4.268337689063124,-0.024186943451908503,0.4236377028212243,-1.4171327814948633
1.2491733950784008,4.172540351824868,-0.024049105923914165,0.4093826209896898,-1.439887775576389
1.2436577230701156,4.08001412028057,-0.023913259365522094,0.39519330548246073,-1.4611190118792305
1.2381732452325882,3.990743790812804,-0.023777852265151108,0.3810704290198468,-1.4806735516920144
1.2327200440808557,3.904713976806928,-0.023641288184696723,0.36701491016167553,-1.4983907033482604
1.227298575295643,3.8219090492316923,-0.02350191864323989,0.3530279383186333,-1.5141012526110051
1.2219096806365366,3.7423130710640606,-0.023358034914206464,0.339111002269453,-1.5276266326074504
1.2165546028836822,3.665909724700775,-0.023207858588875505,0.32526592262869225,-1.5387780308290921
1.2112350031115755,3.592682231392569,-0.02304953073379155,0.3114948887470179,-1.5473554322748388
1.2059529806417812,3.5226132616231176,-0.022881099438333004,0.2978005005525613,-1.553146600316556
1.200711096072832,3.455684835237033,-0.022700505509052178,0.28418581584817276,-1.555926000741287
1.1955123978474762,3.3918782100062685,-0.022505566015780132,0.2706544035497744,-1.5554536802974883
1.190360452893266,3.3311737572229845,-0.022293955325177504,0.2572104032613855,-1.551474119848065
1.1852593819673103,3.273550822837418,-0.0220631831613941,0.24385859139571212,-1.543715095218841
1.1802139004576666,3.2189875726503914,-0.021810569096376978,0.23060445370887137,-1.5318865979203098
1.175229365554423,3.16746082016698,-0.021533212670958354,0.21745426353818173,-1.5156798958505844
1.1703118309221354,3.1189458359903988,-0.021227958044586846,0.20441516408425894,-1.494766854807242
1.1654681103124094,3.073416138189984,-0.0208913516052053,0.19149525157151895,-1.468799700811186
1.16070585200008,3.030843264075237,-0.02051959024113772,0.17870365377409753,-1.4374114889257235
1.156033626588094,2.9911965254886503,-0.02010845681961081,0.16605059480492448,-1.4002176676733689
1.1514610317341942,2.954442752443178,-0.019653237562126512,0.15354743167743826,-1.356819304512466
1.146998818917925,2.920546034172961,-0.019148613014127406,0.14120664023748775,-1.3068087865612852
1.1426590498336697,2.889467473114376,-0.018588509457658137,0.12904171679368734,-1.2497791539248002
1.1384552939239807,2.8611649768398557,-0.01796588975702918,0.11706694646300862,-1.1853386787973212
1.134402884859255,2.8355931264355156,-0.01727244993623804,0.10529697009645991,-1.1131328679853136
1.1305192638590729,2.8127031777969336,-0.01649816745665004,0.09374606154338888,-1.0328766691774696
1.1268244538774876,2.7924432739419913,-0.01563061499191653,0.08242701545610505,-0.9444000694898067
1.1233417342833631,2.774758966998025,-0.014653903217861588,0.07134956666535168,-0.8477099096079035
1.1200986261173471,2.759594154686024,-0.013547037356190703,0.06051836648247165,-0.7430683840153591
1.1171283625970467,2.746892497821751,-0.012281341081203349,0.04993082364164716,-0.6310822478888553
1.114472129500987,2.7365992448054364,-0.010816338014967872,0.039575724326291764,-0.5127835959121353
1.1121825827523633,2.7286630488707893,-0.009092764146977364,0.02943467510542474,-0.3896626552587379
1.1103297518810509,2.7230366480566666,-0.007018808647043707,0.019490549365211676,-0.2635925845617485
1.1090127003156405,2.7196735557011635,-0.004433813660872065,0.009753731986979292,-0.13658438011710905
1.1083939831620322,2.7185096793374512,-0.0009463355009398226,0.00036693204529679446,-0.01037707674105312
