x,y,v_x,v_y,omega
2.375,32.48,0.0,3.1794871794871797,-8.0
2.3733111806789062,31.882986587152114,-0.017777045485198727,3.1048645347010564,-7.495603701332902
2.3684894553568046,31.299855149394332,-0.03297795790534518,3.033361125907156,-7.038842153797241
2.360990126828265,30.730034059593503,-0.045962342395072686,2.964755608838433,-6.623837875362185
2.3512054161267013,30.172991534701822,-0.057034612358226836,2.898849916337175,-6.245580884096381
2.339474044020077,29.628231536573608,-0.06645351507992286,2.835465853433478,-5.899780614221046
2.326089179355231,29.095290259127246,-0.07443979718161478,2.7744423302124575,-5.582746607544564
2.3113050686021883,28.573733094148082,-0.08118242127146477,2.7156330906208344,-5.291291679098965
2.295342592532611,28.06315199160086,-0.08684364261882374,2.6589048309288468,-5.022652796630792
2.2783939443219023,27.56316314806181,-0.09156318065179597,2.604135627376973,-4.774426037897574
2.2606265839053687,27.073404970370984,-0.09546166583803128,2.5512136114738326,-4.544512820588779
2.2421865929384324,26.593536271963764,-0.09864350223498114,2.5000358454442533,-4.331075220903445
2.2232015309324984,26.12323466736823,-0.10119925572221687,2.4505073608245413,-4.132498666263337
2.2037828744219565,25.662195136632786,-0.10320765491506599,2.4025403311274833,-3.9473606458907526
2.1840281061670144,25.210128736399838,-0.10473727408432724,2.3560533555351357,-3.7744043588443876
2.164022509527024,24.766761438278827,-0.10584795370504683,2.310970835212327,-3.6125164332977024
2.143840713588336,24.331833078328586,-0.10659200354429944,2.267222427421787,-3.4607080184244126
2.123548026899787,23.905096404008518,-0.10701522475621478,2.2247425654210766,-3.318098682295968
2.1032015913764037,23.486316207032935,-0.10715778075308358,2.183470034321879,-3.1839026539148225
2.0828513827842143,23.07526853226308,-0.10705494126996137,2.143347594834487,-3.057417031062757
2.0625410799882724,22.671739954173894,-0.10673771973995369,2.1043216482096128,-2.9380116426894536
2.0423088216538083,22.275526913597503,-0.10623342062282654,2.0663419368050406,-2.825120308648539
2.022187866196383,21.886435108418443,-0.10556611050796906,2.0293612756061004,-2.718233283428212
2.002207168369618,21.50427893271346,-0.10475702451060855,1.993335310762111,-2.616890706225261
1.9823918838697054,21.128880959519968,-0.10382491759373315,1.9582223018009755,-2.520676908911862
1.9627638116531712,20.76007146300446,-0.10278636889610272,1.9239829246780649,-2.429215457425772
1.943341782250873,20.397687976303715,-0.10165604586493064,1.8905800932245316,-2.342164821885523
1.9241419991704034,20.04157488174182,-0.1004469339294845,1.8579787969006825,-2.259214587092045
1.9051783394730974,19.69158303049698,-0.0991705365684746,1.8261459530450326,-2.1800821286624967
1.8864626187598061,19.34756938911301,-0.09783704988722208,1.7950502720493737,-2.1045096913592816
1.8680048250761303,19.0093967105295,-0.0964555152041024,1.764662134092833,-2.0322618156354957
1.8498133256320308,18.676933227547885,-0.09503395262852253,1.7349534762399643,-1.9631230663466828
1.8318950497054522,18.350052366863892,-0.09357947817756875,1.705897688854689,-1.8968960242443955
1.8142556506504923,18.02863248198397,-0.09209840661148194,1.6774695204076229,-1.8333995064864819
1.7968996495459058,17.712556603508315,-0.09059634185785247,1.6496449898624397,-1.7724669871491023
1.7798305626894175,17.401712205408955,-0.08907825663149646,1.6224013059202647,-1.713945192751066
1.763051014859228,17.095990986060748,-0.08754856263365828,1.595716792481957,-1.6576928512211202
1.7465628400192408,16.795288662897907,-0.08601117252410181,1.5695708197584561,-1.6035795756513942
1.7303671709331863,16.499504779671387,-0.0844695546975231,1.543943740520696,-1.5514848666663263
1.7144645189699923,16.208542525373666,-0.08292678175715049,1.518816831034261,-1.501297219363289
1.6988548452243875,15.922308563979662,-0.0813855734597426,1.4941722362710546,-1.4529133226046278
1.683550546463922,15.640717669297125,-0.0797123082293684,1.4699424445977585,-1.402262450484134
1.6685618876473365,15.363687496549126,-0.07806304773468678,1.4461646369601366,-1.3538430072188605
1.6538842227957349,15.091133663839642,-0.07643868754533248,1.422823075771264,-1.3075308447761185
1.6395127534666265,14.82297471276351,-0.07483993697159703,1.3999027250301186,-1.263210033122824
1.6254425620124724,14.559131978872784,-0.07326734149318323,1.3773892106617298,-1.2207722292023704
1.6116686408193628,14.299529469423131,-0.07172130264481119,1.3552687835451598,-1.1801161008712775
1.5981859179810691,14.04409374790987,-0.07020209565301824,1.3335282850155032,-1.14114680045125
1.5849892798111607,13.792753824942057,-0.0687098850828612,1.3121551146456718,-1.1037754831253461
1.572073590549685,13.545441055038246,-0.06724473872214475,1.291137200131272,-1.0679188659129286
1.5594337095802344,13.3020890389596,-0.06580663990365038,1.2704629691176228,-1.0334988234054465
1.5470645064373882,13.062633531225327,-0.0643954984420996,1.2501213228221184,-1.0004420168412367
1.5349608738529175,12.82701235248203,-0.0630111603418013,1.230101611317873,-0.9686795534487902
1.5231177390612383,12.595165306423002,-0.06165341641271795,1.2103936103560804,-0.9381466732998144
1.511530073559943,12.367034100975761,-0.06032200991670363,1.1909874996148857,-0.9087824611907169
1.5001929014994515,12.142562273496512,-0.059016643351629886,1.1718738422719504,-0.880529581317998
1.489101306856513,11.921695119729073,-0.05773698446877442,1.1530435658063802,-0.8533340327330798
1.4782504395292209,11.704379626302845,-0.05648267160798655,1.1344879439433848,-0.8271449237584865
1.4676355204760325,11.490564406560331,-0.05525331842557554,1.1161985796620242,-0.8019142637227629
1.4572518460078667,11.280199639519129,-0.0540485180814315,1.0981673891927506,-0.7775967705285084
1.4470947913304086,11.07323701178678,-0.05286784694444302,1.080386586937229,-0.7541496927085001
1.4371598134231602,10.869629662259165,-0.05171086786869887,1.0628486712481888,-0.7315326447509505
1.4274424533323549,10.66933212944446,-0.050577133087146245,1.0455464110118526,-0.709707454588113
1.4179383379464738,10.472300301265246,-0.04946618676423337,1.028472832979879,-0.6886380222441403
1.4086431813156435,10.278491367200992,-0.048377567244507966,1.0116212098017552,-0.6682901887295816
1.399552785569555,10.087863772642162,-0.047310809030105226,0.9949850487122448,-0.6486316143522852
1.3906725502796173,9.90058509376425,-0.04616535191660891,0.9763694657920962,-0.6734184485781716
1.382004767795399,9.716832765215969,-0.04507446370674048,0.9578655715582055,-0.6998245156559993
1.3735392251249297,9.536585845824774,-0.04403651177188492,0.9394704220333169,-0.7277340436081765
1.3652660214302579,9.359823942352339,-0.04304984290886971,0.9211811934659984,-0.7570336370701857
1.3571755715734184,9.186527187026634,-0.042112787163123756,0.9029951783835207,-0.7876120177658378
1.3492586089743308,9.016676215783427,-0.041223661248324675,0.8849097820713031,-0.8193597699285174
1.3415061878546761,8.850252147136928,-0.040380771590144804,0.8669225194707971,-0.8521690895654553
1.3339096849368257,8.687236561600585,-0.03958241701880775,0.849031012490712,-0.8859335364663017
1.3264608006624619,8.527611481579655,-0.03882689113239179,0.8312329877295945,-0.9205477878531685
1.3191515599916213,8.371359351657297,-0.0381124843501411,0.8135262746110006,-0.95590739255669
1.3119743128394754,8.218463019195344,-0.03743748567244673,0.7959088039358736,-0.9919085245812469
1.3049217342052397,8.068905715169706,-0.036800184161613195,0.7783786068603316,-1.0284477348919663
1.2979868240451606,7.922671035158437,-0.03619887015500979,0.7609338143109017,-1.0654217002160082
1.2911629069395638,7.77974292039783,-0.03563183621969319,0.7435726568533965,-1.1027269676004643
1.2844436316024628,7.640105638818323,-0.03509737785505385,0.7262934650361565,-1.1402596934083231
1.2778229702812243,7.5037437659677195,-0.03459379394745674,0.7090946702333688,-1.1779153753617297
1.2712952180932882,7.37064216572368,-0.034119386978186866,0.6919748060196891,-1.2155885761574359
1.2648549923469523,7.240785970691022,-0.033672462983242495,0.6749325101135453,-1.2531726370821212
1.2584972318937864,7.114160562171563,-0.033251331260609036,0.6579665269333828,-1.2905593799443487
1.2522171965613604,6.990751549585099,-0.03285430381755824,0.641075710818858,-1.327638795514502
1.2460104667167073,6.870544749209422,-0.03247969454721065,0.624259029977726,-1.364298716523422
1.2398729430133195,6.753526162094776,-0.03212581812002878,0.6075155712290645,-1.400424473114053
1.2338008463775745,6.639681950993669,-0.03179098857202525,0.5908445456247015,-1.4358985284679544
1.2277907182943464,6.528998416130193,-0.031473517567218286,0.5742452950434676,-1.4706000921402183
1.2218394214562782,6.4214619696136594,-0.031171712307183113,0.5577172998674003,-1.5044047084330794
1.2159441408468366,6.317059108279032,-0.030883873055360955,0.5412601878655127,-1.5371838169222907
1.2101023853339659,6.21577638471101,-0.0306082902380144,0.524873744429476,-1.568804282024766
1.2043119898590144,6.117600376179162,-0.03034324107726366,0.5085579243268056,-1.5991278882669577
1.1985711183147574,6.022517651177807,-0.030086985704389505,0.4923128651611499,-1.6280107976901994
1.1928782672169664,5.93051473322565,-0.02983776269341026,0.47613890275629256,-1.6553029656258198
1.187232270286254,5.841578061536289,-0.029593783945667196,0.4600365887106545,-1.6808475109100935
1.1816323040710859,5.755693948120541,-0.029353228845577742,0.44400671040247336,-1.704480036517601
1.1760778947591763,5.67284853082489,-0.0291142375955742,0.4280503137622601,-1.7260278966156903
1.1705689263432992,5.593027721746509,-0.02887490362418599,0.4121687291680666,-1.7453094062464747
1.1651056503292485,5.516217150393896,-0.028633264944769848,0.3963636008594355,-1.762132990318015
1.1596886971988218,5.442402100883214,-0.02838729432287834,0.3806369203056488,-1.7762962694646507
1.1543190898699092,5.371567442374207,-0.028134888086728406,0.3649910639996693,-1.7875850818059962
1.1489982594299728,5.303697551857567,-0.027873853386285737,0.34942883617547343,-1.7957724419639638
1.1437280634596236,5.238776228310211,-0.027601893670020406,0.33395351695459835,-1.8006174422719419
1.138510807311356,5.176786597141135,-0.02731659210121926,0.3185689164040985,-1.8018641064803123
1.1333492687673117,5.117711003766118,-0.027015392572930688,0.30327943491185594,-1.7992402142159736
1.1282467265729088,5.06153089508766,-0.026695577894468712,0.2880901301245238,-1.7924561261199112
1.1232069934358602,5.0082266876378085,-0.026354244600780667,0.27300679040024584,-1.781203656585256
1.118234454201123,4.957777621197881,-0.025988273659609228,0.2580360142305666,-1.7651550656684911
1.113334110074964,4.910161596889736,-0.025594296089434306,0.24318529427621519,-1.743962277365233
1.1085116299965754,4.865354999112277,-0.025168652104131994,0.22846310338122994,-1.7172564827501817
1.1037734105768018,4.823332501385973,-0.024707341788221367,0.21387897794827754,-1.6846483601418136
1.0991266464936487,4.784066857331634,-0.024205964350232475,0.19944359104478013,-1.645729249734586
1.0945794139386438,4.747528679887324,-0.02365964149192387,0.18516880310587064,-1.6000737696138823
1.0901407707840802,4.7136862147998215,-0.02306291802979815,0.1710676714994296,-1.5472445700255728
1.0858208788096786,4.682505118882535,-0.022409629069165285,0.15715439078779622,-1.4868002125779205
1.0816311559431493,4.653948260116092,-0.021692716894300898,0.14344412254319405,-1.4183075494948492
1.0775844705985786,4.627975566080153,-0.02090397094328436,0.12995265678246523,-1.3413604724290142
1.0736953967324137,4.604543960049391,-0.02003364870055707,0.11669582775187165,-1.2556074695870603
1.0699805585645636,4.583607440348441,-0.01906991096102223,0.1036885901528739,-1.1607909449145764
1.0664591101413199,4.565117376385981,-0.017997967178386157,0.09094366208355527,-1.0568013676869668
1.0631534202310091,4.549023107954845,-0.01679876871962108,0.07846968982313125,-0.9437482657879964
1.0600900724559814,4.535272927707439,-0.015446997333302754,0.06626904962324551,-0.8220463923843455
1.0573013534799167,4.523815469067948,-0.013907939256852226,0.05433577816088056,-0.6925068659529316
1.0548275126942865,4.514601358107033,-0.012132490065571284,0.04265486353297197,-0.5564076891601525
1.0527203175299478,4.5075846293312765,-0.010048511664311116,0.031205439369712526,-0.4154973726407718
1.0510491316457087,4.50272267087454,-0.007542918696101191,0.01997307070120488,-0.2718700003022086
1.0499135829257453,4.499971517952858,-0.004410225724564679,0.008986433737567015,-0.12765929603013745
1.0494867508508685,4.499261442198332,-8.274348466588699e-05,-0.0015119521109928698,0.015351700129126344
