x,y,v_x,v_y,omega
2.375,32.48,0.0,2.2051282051282053,-6.530612244897959
2.373651227962828,31.978195964928865,-0.011728452497148972,2.1583851433164334,-6.175392714373691
2.3697767722331746,31.48695041285421,-0.02196246689113826,2.1133153095066417,-5.8485475297335885
2.3636995294942014,31.005890734360495,-0.0308831221434145,2.069812329569142,-5.547061814529693
2.3557035436704234,30.53466761731823,-0.03864718936769505,2.0277799925374898,-5.268308792038445
2.346039169190438,30.0729528651866,-0.045390849588704985,1.987130895563661,-5.009991362379614
2.3349274542166594,29.620437500573665,-0.05123275887893069,1.9477853184618523,-4.770093800362861
2.322563878840712,29.176830106520146,-0.05627659221626752,1.9096702820035343,-4.546841579135077
2.3091215564865535,28.74185536733265,-0.0606131673851083,1.8727187544094668,-4.3386677670942015
2.2947539860295327,28.315252778077642,-0.06432222789333544,1.836868978242788,-4.144184778949666
2.2795974259114757,27.896775497561606,-0.06747394704628865,1.8020638958096864,-3.9621605156716977
2.2637729487129263,27.486189324138017,-0.07013020250631316,1.7682506556997717,-3.791498123207322
2.247388224431034,27.08327177727424,-0.07234566081448993,1.7353801865939522,-3.631218751167165
2.230539072511437,26.687811270689455,-0.07416870370374437,1.7034068271867828,-3.4804468110092834
2.213310816050465,26.299606365195025,-0.07564222204384263,1.6722880031995728,-3.33839732647446
2.1957794661844354,25.918465091251125,-0.07680429853032718,1.6419839441386874,-3.204365043010584
2.1780127602597052,25.54420433278999,-0.07768879646732604,1.6124574337842021,-3.0777150220273874
2.160071073733319,25.17664926511742,-0.07832586897951029,1.583673589455577,-2.9578744933343915
2.142008222736652,24.815632840745472,-0.07874240055672337,1.5555996659526339,-2.8443257775309023
2.123872171723596,24.460995317873852,-0.07896239086115506,1.5282048807571393,-2.736600121348091
2.105705658526234,24.112583826958463,-0.07900728911590729,1.5014602576375218,-2.6342723144631845
2.08754674737965,23.77025197141099,-0.07889628607177848,1.4753384862535723,-2.5369559772589816
2.0694673387082374,23.4338700751821,-0.07831596324485282,1.4497214809541519,-2.4364147512216436
2.051531339649805,23.103313606863,-0.07764924595890811,1.4246825913858494,-2.341012664316892
2.0337573247612273,22.778452285197766,-0.07690740524611497,1.4001984665726974,-2.2504200935332994
2.016161415105568,22.459161056319815,-0.07610050480309365,1.3762470019312452,-2.1643326133033467
1.9987575409314,22.145319816924236,-0.07523753149402075,1.3528072536824944,-2.082468759515459
1.9815576760540963,21.836813156293246,-0.0743265109173154,1.329859360500007,-2.004568019264856
1.9645720471631438,21.53353011559498,-0.07337460987357595,1.3073844716588245,-1.9303890207738243
1.9478093208849843,21.2353639630349,-0.0723882273278119,1.2853646810375337,-1.859707901128413
1.931276771088564,20.94221198357941,-0.07137307524975578,1.2637829664015154,-1.7923168322490715
1.9149804286231353,20.653975282095224,-0.07033425053657996,1.2426231334609623,-1.7280226879051213
1.8989252154186007,20.370558598857983,-0.06927629906807008,1.2218697642541743,-1.6666458366536088
1.883115064652463,20.091870136481287,-0.06820327281138651,1.2015081694562182,-1.6080190473794027
1.8675530284897095,19.817821397404344,-0.06711878077777546,1.1815243442563323,-1.5519864956750697
1.8522413747288216,19.548327031154045,-0.06602603453429252,1.1619049274853663,-1.498402860659589
1.837181673535313,19.28330469066683,-0.06492788888752252,1.1426371637078312,-1.4471325030226327
1.8223748753108728,19.02267489701785,-0.0638268782815217,1.123708868022418,-1.3980487161199187
1.8078213806289734,18.766360911961094,-0.06272524938717049,1.1051083933406862,-1.3510330428553794
1.7935211030645521,18.514288617734223,-0.061624990303446696,1.08682459993646,-1.3059746518849555
1.7794735256543652,18.266386403627475,-0.06052785674165791,1.0688468270787226,-1.2627697673794793
1.7656777516442257,18.022585058856862,-0.059435395520424344,1.0511648665787654,-1.221321147203057
1.752132550108323,17.782817671318995,-0.05834896566134099,1.0337689380983537,-1.181537604909445
1.7388363969629324,17.547019531838494,-0.05726975734205282,1.0166496660799262,-1.14333357144147
1.7257875118411479,17.31512804354945,-0.05619880893433457,0.9997980581725916,-1.1066286928456195
1.7129838912458473,17.08708263608011,-0.0551370223291481,0.9832054850390857,-1.0713474606924636
1.7004338907971341,16.862959142468558,-0.0539934163553159,0.9656944594091807,-1.0606922537678718
1.6881432223776591,16.64284718838437,-0.05288196120533516,0.9483225326272364,-1.052934745713164
1.6761044376235787,16.426715283447166,-0.05180312361275626,0.9310853363919123,-1.0479189433331952
1.6643100001855777,16.21453291961621,-0.05075720193507723,0.9139786969207325,-1.0454943325893045
1.6527523227896905,16.006270527569193,-0.049744340637854,0.8969986252272484,-1.045515489212406
1.6414238010994928,15.801899435231682,-0.04876454362473566,0.8801413081423897,-1.0478417076243902
1.6303168446350487,15.601391828291217,-0.04781768650086588,0.8634031000355795,-1.0523366464336232
1.6194239049847101,15.40472071253959,-0.04690352784990433,0.8467805151959652,-1.0588679888700279
1.6087375015281657,15.211859877895613,-0.046021719598308225,0.8302702208386021,-1.067307116612245
1.5982502448729028,15.022783863968137,-0.04517181653441231,0.8138690307046681,-1.077528795534533
1.5879548581913623,14.837467927025784,-0.0443532850442014,0.7975738992288256,-1.0894108719650673
1.577844196632429,14.655888008245636,-0.043565511120434254,0.7813819162507348,-1.102833978100712
1.5679112649684348,14.478020703117881,-0.04280780769690546,0.7652903022514885,-1.1176812452665985
1.5581492336274563,14.303843231887523,-0.04207942135508252,0.7492964040994426,-1.1338380237423227
1.5485514532503215,14.133333410917324,-0.04137953844609003,0.7333976912935822,-1.1511916079004774
1.5391114679023166,13.966469624858494,-0.04070729066699653,0.717591752696249,-1.1696309654177524
1.5298230270610578,13.803230799517085,-0.040061760126557724,0.7018762937507942,-1.1890464693239755
1.520680096494329,13.643596375304632,-0.039441983931952,0.6862491341835706,-1.2093296316502526
1.511676868134828,13.48754628116125,-0.03884695832457712,0.6707082061936754,-1.2303728374236464
1.502807769052694,13.335060908838098,-0.038275642389633054,0.6552515531380693,-1.252069077732459
1.4940674696213754,13.186121087423942,-0.03772696136096316,0.6398773287241735,-1.2743116805529013
1.4854508909678295,13.040708057997072,-0.037199809539435566,0.6245837967268615,-1.2969940379844485
1.476953211794196,12.898803448279505,-0.036693052839987694,0.6093693312519763,-1.3200093284871766
1.468569874654978,12.760389247164493,-0.0362055309792987,0.5942324175742079,-1.3432502326495086
1.4602965917713793,12.625447778981364,-0.03573605931286392,0.5791716535834368,-1.366608640938756
1.4521293504627963,12.493961677353,-0.03528343032698871,0.5641857518806018,-1.3899753517993976
1.4440644182745888,12.365913858490966,-0.034846414787859076,0.5492735425718706,-1.4132397583650842
1.4360983478811553,12.241287493761071,-0.03442376254634429,0.5344339768185311,-1.4362895219400293
1.4282279818440733,12.120065981337827,-0.034014202993498645,0.5196661312096864,-1.4590102302842856
1.4204504573066732,12.002232916749609,-0.03361644515780789,0.5049692130356894,-1.4812850386064482
1.4127632107089583,11.887772062096975,-0.033229177431017796,0.49034256655244657,-1.5029942910284992
1.4051639826103361,11.776667313704298,-0.03285106690482599,0.4757856803404102,-1.5240151201438712
1.3976508227122708,11.668902667939246,-0.03248075829574413,0.4612981958774372,-1.5442210221461696
1.3902220951788142,11.564462184905228,-0.03211687242996379,0.4468799174618666,-1.563481404869513
1.38287648436016,11.463329949678364,-0.031758004253986435,0.4325308236412834,-1.5816611059627312
1.3756130010330032,11.365490030722405,-0.031402720329986665,0.41825108032357017,-1.5986198783340457
1.3684309892818247,11.270926435071647,-0.0310495557672167,0.40404105576996757,-1.6142118399723846
1.3613301341574107,11.1796230598232,-0.030697010532035607,0.3899013376948001,-1.628284885307596
1.3543104702632796,11.091563639425171,-0.030343545069103757,0.37583275272283123,-1.6406800554590961
1.3473723914375564,11.006731688186608,-0.029987575154575407,0.36183638848207794,-1.651230865103966
1.340516661717629,10.92511043736804,-0.02962746588827111,0.34791361863591036,-1.6597625843601647
1.333744427798237,10.84668276613909,-0.02926152471513663,0.3340661311810565,-1.6660914751537648
1.327057233221228,10.771431125612555,-0.028887993345812275,0.3202959603540372,-1.6700239831977175
1.320457034568114,10.699337455085278,-0.028505038420397682,0.3066055224918415,-1.6713558892028046
1.3139462199662393,10.63038308953864,-0.028110740726337798,0.29299765617458423,-1.6698714266207038
1.3075276302678975,10.564548657382158,-0.027703082737503854,0.27947566692526415,-1.665342378580726
1.301204583322155,10.501813967372748,-0.027279934181996802,0.2660433766348174,-1.6575271744268114
1.2949809018359515,10.442157883625384,-0.02683903526325176,0.2527051776900788,-1.6461700173801712
1.288860945420997,10.385558187672586,-0.026377977040700912,0.23946609146469125,-1.631000090743926
1.282849647556372,10.331991426666782,-0.025894178303863678,0.2263318303249205,-1.6117309126997965
1.2769525583793657,10.281432747105605,-0.02538485801792945,0.2133088615114067,-1.588059941889048
1.2711758944734581,10.233855713975878,-0.024847002033440438,0.20040447005143752,-1.5596685814735796
1.2655265971906908,10.189232116074589,-0.024277322164536593,0.18762681604672887,-1.5262227935391879
1.260012401585866,10.147531759643051,-0.02367220483393921,0.1749849790101231,-1.487374625670858
1.2546419188462066,10.108722254581373,-0.023027645076142744,0.16248897804793877,-1.4427650765698559
1.2494247363203508,10.072768800720276,-0.02233915949651596,0.15014975117899285,-1.3920288989551826
1.244371541117317,10.039633986342952,-0.02160166835595017,0.13797906949338154,-1.334802167589328
1.2394942761224432,10.009277617886067,-0.020809331599474915,0.12598935187082672,-1.270733736321967
1.234806341725294,9.981656609027315,-0.01995531533225788,0.11419333385745516,-1.1995020643884917
1.2303228634318648,9.95672496947223,-0.019031452436691146,0.10260353183893028,-1.120839264357931
1.226061056125366,9.934433948150645,-0.01802774153286412,0.0912314361748609,-1.0345644807542236
1.2220407319391762,9.914732399630545,-0.01693159921661238,0.08008637704340933,-0.9406285425783035
1.218285023309959,9.897567449344297,-0.015726736689625275,0.06917406022829076,-0.8391706262346668
1.2148214302675224,9.882885517341158,-0.01439146367938685,0.05849491371205937,-0.7305843526892244
1.2116833603890287,9.870633692657705,-0.012896100481428882,0.04804269223100459,-0.6155839048304603
1.2089124357790133,9.86076128270998,-0.011198896127400099,0.03780435079268725,-0.49524950683339153
1.206562078291681,9.85322101820475,-0.00923899506679275,0.027763166644116807,-0.37101801165049586
1.2047035831023465,9.847968705472503,-0.006921832666550687,0.017909117984119118,-0.2445763006874467
1.203438669065344,9.844958262914616,-0.0040774198291226044,0.008268643388824591,-0.11762491410753989
