x,y,v_x,v_y,omega
2.375,32.48,0.0,2.41025641025641,-3.959183673469388
2.374072385047625,31.93177283034849,-0.008066216977176273,2.356936369321907,-3.727440614125027
2.3714165276757138,31.39558212265765,-0.0150281949524849,2.3055915236419104,-3.51572822552632
2.3672699053331825,30.870987440651483,-0.02102939063474396,2.2561013633682405,-3.32177847109592
2.3618393296079008,30.35757487854379,-0.02619300697639938,2.2083556984377837,-3.1436290317719986
2.3553052407715076,29.854954824997073,-0.03062515681832518,2.1622534628380397,-2.979576126640161
2.3478253376305136,29.362759981432145,-0.034417479190317554,2.1177016985960915,-2.8281355127712815
2.339537656520179,28.880643597174533,-0.03764931307346123,2.074614686252703,-2.6880100887713287
2.33056319172408,28.408277890743655,-0.04038951124044383,2.0329131957549493,-2.558062861279859
2.3210081325561958,27.94535263196068,-0.04269795978463839,1.9925238371404632,-2.437294290405219
2.310965778764306,27.491573863816335,-0.04462685579701251,1.953378494549519,-2.324823228658932
2.300518185027411,27.046662746456914,-0.04622178539337484,1.915413830315004,-2.2198708227054422
2.289737576540161,26.610354508406743,-0.04752263623488629,1.8785708483821508,-2.1217468686969756
2.278687570557781,26.182397492391374,-0.048564372307549286,1.8427945082732258,-2.0298382079041146
2.2674242329728607,25.762552284967956,-0.04937769364828033,1.80803338236518,-1.9435988255987757
2.2559969942449465,25.35059092069011,-0.04998959963792815,1.7742393504856793,-1.8625413770818666
2.2444494450978394,24.946296152799242,-0.050423871206483346,1.741367326826195,-1.7862299137035036
2.232820029174878,24.54946078349225,-0.0507014846453574,1.7093750149737357,-1.7142736212481875
2.221142647170465,24.159887047705908,-0.050840967566925056,1.6782226875161967,-1.6463214151151917
2.2094471847341546,23.777386045112223,-0.0508587057922979,1.647872987211497,-1.5820572628393583
2.1977599745898293,23.40177721566045,-0.05076920850618262,1.6182907471517654,-1.5211961258587323
2.186104201761046,23.032887854550246,-0.05058533783106349,1.5894428277195443,-1.4634804299763493
2.1745002594912664,22.67055266299214,-0.05031850799310678,1.5612979684379134,-1.4086769884205175
2.1629660623514155,22.314613331518494,-0.04997885844037751,1.5338266530720626,-1.3565743133652004
2.15151732210186,21.96491815296135,-0.049575404599236574,1.5070009865552605,-1.3069802616950152
2.140167791092832,21.621321662520618,-0.04911616939231263,1.4807945824945734,-1.2597199690604326
2.1289510716777666,21.283687584881314,-0.0484205211734713,1.4551539187167457,-1.2097958238742283
2.117896984475508,20.95188502725773,-0.04770197623747468,1.4300857127927038,-1.162419602691449
2.1070102805624247,20.625784920782216,-0.04696501431107744,1.405567386994359,-1.117428386162187
2.0962947420011955,20.3052632566367,-0.04621358187352116,1.3815775186188097,-1.074671645144178
2.085753297481025,19.990200828943813,-0.04545115308448413,1.3580957656671666,-1.0340101502100374
2.0753881247749297,19.680482994092213,-0.04468078349025609,1.3351027982598063,-0.995314989859268
2.0652007415708695,19.375999445236413,-0.04390515741461527,1.312580235268879,-0.9584666853524455
2.0551920860389226,19.076644000824643,-0.04312662981970627,1.290510585703013,-0.9233543915644608
2.045362588328052,18.78231440610971,-0.04234726331830208,1.2688771944268737,-0.8898751745354918
2.035712234039547,18.492912146688973,-0.041568860929564126,1.2476641918403764,-0.8579333575110738
2.026240620596884,18.20834227320167,-0.04079299509359316,1.226856447179671,-0.8274399282304096
2.0169470073208284,17.92851323638547,-0.0400210333938464,1.206439525135123,-0.7983120010653485
2.007830359921914,17.653336731761172,-0.03925416137932541,1.1863996455109362,-0.7704723283485986
1.998889390037956,17.382727553274528,-0.03849340282900269,1.1667236456772825,-0.7438488558734644
1.9901225903704345,17.116603455278884,-0.03773963775814124,1.1473989455891769,-0.7183743181112798
1.98152826590891,16.854885022291896,-0.03699361842902876,1.1284135151672492,-0.693985869187453
1.9731045616759861,16.59749554600442,-0.036255983596396854,1.1097558438542674,-0.6706247460918325
1.9648494873755797,16.344360909060704,-0.03552727118974491,1.091414912178058,-0.6482359609818061
1.9567609392835679,16.095409475166075,-0.03480792961035872,1.0733801651665364,-0.6267680197739051
1.9488367196814331,15.8505719851124,-0.03409832779950918,1.0556414874741207,-0.6061726645175318
1.9410745540996823,15.609781458342407,-0.03339876421571418,1.0381891800910177,-0.586404637307754
1.9334721066079668,15.372973099702381,-0.0327094748426832,1.0210139385178891,-0.5674214637272538
1.9260269933624954,15.140084211058515,-0.03203064033532852,1.0041068322983588,-0.5491832540142264
1.9187367945980762,14.911054107475959,-0.03136239239875151,0.9874592858108242,-0.5316525203365342
1.9116047031448282,14.685936824641345,-0.030655794151231076,0.970082304055374,-0.5345468228831427
1.9046319084642467,14.464801197735063,-0.02997720307121537,0.952836190781865,-0.5399391959825153
1.8978119173969936,14.247617583454616,-0.02932706707881259,0.9357169768741884,-0.5476938164015945
1.8911381514434236,14.034357232204336,-0.02870568034353591,0.9187208600847837,-0.5576793536953178
1.8846039805987616,13.824992250639152,-0.028113196566567977,0.901844197003763,-0.5697686479314499
1.878202754255629,13.619495565986242,-0.027549641199801637,0.8850834956302402,-0.5838384010649793
1.871927829409215,13.41784089200986,-0.027014922682060072,0.8684354085122055,-0.59976888061684
1.8657725963826588,13.220002696492084,-0.026508842766254478,0.8518967264249613,-0.6174436343757027
1.8597305022739525,13.025956170108625,-0.02603110600510349,0.8354643725616343,-0.6367492148962782
1.8537950723107692,12.835677196584587,-0.025581328457362412,0.8191353972126062,-0.657574912613381
1.8479599292859796,12.649142324020037,-0.025159045671243083,0.8029069729139292,-0.6798124964282535
1.8422188112341544,12.466328737279422,-0.024763719996802377,0.7867763900479259,-0.70335596065256
1.836565587497955,12.287214231342453,-0.024394747274497676,0.770741052882253,-0.7281012772161619
1.8309942733229643,12.111777185516765,-0.02405146294281282,0.7547984760367814,-0.7539461520573378
1.8254990431101024,11.9399965384149,-0.023733147603811733,0.7389462813707289,-0.7807897846184558
1.8200742424462748,11.771851763599418,-0.02343903208164524,0.7231821952856354,-0.8085326293661282
1.8147143990262662,11.607322845800624,-0.023168302005386155,0.7075040464430126,-0.8370761582423454
1.8094142325720792,11.446390257611306,-0.022920101944066823,0.691909763898896,-0.8663226229317004
1.8041686638498944,11.289034936561904,-0.022693539118410332,0.6763973756611068,-0.8961748157991622
1.7989728228795752,11.13523826247781,-0.022487686710450056,0.6609650076788594,-0.9265358283124454
1.7938220564271397,10.984982035017715,-0.02230158678899045,0.6456108832784857,-0.9573088057122555
1.788711934866857,10.838248451288383,-0.02213425286564252,0.6303333230635492,-0.9883966966318779
1.7836382584966204,10.695020083426279,-0.02198467209293637,0.615130745302576,-1.0197019962939338
1.778597063387968,10.555279856030673,-0.021851807112735527,0.6000016668331196,-1.05112648182578
1.7735846268506246,10.41901102332541,-0.021734597559815397,0.5849447045169932,-1.0825709381350344
1.7685974725907179,10.286197145917793,-0.021631961221981483,0.5699585772883792,-1.1139348726720562
1.7636323756419285,10.156822067012538,-0.021542794854447503,0.5550421088442626,-1.145116217275884
1.7586863671498,10.030869887926375,-0.021465974642322163,0.5401942310354115,-1.176011015153133
1.753756739091328,9.908324942734303,-0.0214003563009129,0.525413988026086,-1.206513090874801
1.7488410490148278,9.789171771861572,-0.021344774799087224,0.5107005413020119,-1.2365137010931697
1.7439371248890345,9.673395094415643,-0.02129804368607173,0.49605317561910656,-1.265901163479766
1.739043070155511,9.560979779029417,-0.021258953996741863,0.48147130600024846,-1.2945604611660568
1.7341572690848592,9.451910812960392,-0.02122627270457822,0.4669544859043069,-1.3223728197326199
1.7292783925450643,9.346173269159635,-0.02119874068494194,0.4525024167109837,-1.3492152535428907
1.7244054042997314,9.243752270988857,-0.02117507014404156,0.4381149586870876,-1.3749600779594866
1.7195375679651748,9.14463295422297,-0.021153941460796983,0.4237921436249731,-1.3994743837231074
1.7146744547685293,9.048800425928281,-0.02113399937959882,0.4095341893723376,-1.4226194695295886
1.7098159522645,8.956239719752428,-0.0211138484815266,0.3953415165046314,-1.4442502286303263
1.7049622741864092,8.866935747100278,-0.021092047849696482,0.3812147674271231,-1.4642144851357137
1.7001139716281561,8.780873243599352,-0.021067104830765113,0.3671548282331118,-1.4823522756657783
1.6952719457780518,8.698036710178489,-0.02103746777883775,0.35316285368743994,-1.498495072133344
1.6904374624537817,8.618410347993262,-0.02100151764959964,0.33924029574931297,-1.5124649418596263
1.685612168720648,8.54197798633134,-0.020957558290691885,0.3253889360934788,-1.524073642050817
1.6807981119136803,8.468723002520573,-0.02090380524815823,0.3116109231305769,-1.533121647110788
1.6759977614293233,8.398628232743647,-0.020838372876684313,0.29790881406008707,-1.539397109624744
1.6712140337058834,8.331675872538852,-0.02075925950105545,0.28428562250332945,-1.5426747595491341
1.6664503208759711,8.267847365642869,-0.02066433032426759,0.2707448722443636,-1.5427147518042388
1.661710523652196,8.207123279718832,-0.020551297708558548,0.25729065752986685,-1.5392614809868663
1.656999089104243,8.149483167428897,-0.020417698360599885,0.24392771020870901,-1.5320423946074373
1.6523210541087856,8.094905411282618,-0.020260866817290085,0.2306614736719945,-1.520766855005673
1.6476820954151727,8.043367050765394,-0.020077904431516528,0.21749818299951282,-1.5051251276674202
1.6430885874880046,7.994843590493467,-0.01986564276124898,0.2044449497998449,-1.484787614045139
1.638547669592276,7.949308788659572,-0.01962059981030396,0.1915098487557533,-1.4594045059369405
1.6340673240256356,7.906734425987242,-0.01933892685613381,0.17870200056883995,-1.428606124240369
1.629656468053633,7.867090057042919,-0.019016342465627802,0.16603164242527452,-1.3920043290569541
1.6253250630955796,7.830342748418513,-0.018648048473968577,0.1535101716999807,-1.3491955665339395
1.6210842462512023,7.796456812502242,-0.0182286197380059,0.14115014061542563,-1.299766371077873
1.6169464916975342,7.765393552003747,-0.017751854641715973,0.12896516806715505,-1.2433024937484913
1.6129258133886606,7.73711103998955,-0.017210565435446513,0.11696971901283526,-1.1794033002930329
1.6090380267816495,7.7115639739074595,-0.016596274625520612,0.10517868170099083,-1.1077036766157788
1.6053010974762292,7.688703660622856,-0.015898762812916762,0.09360665120860553,-1.0279063321706012
1.6017356210457745,7.668478212179316,-0.015105380060601973,0.08226681351782522,-0.9398278770606194
1.5983655046212868,7.650833054334342,-0.014199980152334547,0.07116934165586801,-0.8434617856761197
1.5952189627464715,7.635711858603564,-0.013161253541713457,0.060319316872626726,-0.7390590988783984
1.592330007685973,7.62305797276327,-0.011960094810445923,0.04971447304297517,-0.6272212274479939
1.5897407303134337,7.6128162840498845,-0.010555360602938945,0.03934368968212553,-0.5089856200103122
1.587504902601017,7.604935099786783,-0.00888661950503202,0.02918834738833879,-0.38586340799658664
1.58569406603154,7.5993668827407035,-0.006859785446941621,0.019230931273226587,-0.2597656683832362
1.5844096663338028,7.59606485934982,-0.0043089075768614725,0.009482315604028842,-0.13275153235593826
1.5838195909746706,7.594963641033196,-0.0008221825025481948,9.349584486346291e-05,-0.006605585032242012
