x,y,v_x,v_y,omega
2.375,32.48,0.0,3.3846153846153846,-4.816326530612245
2.373763447954301,31.811640100383162,-0.012365520456989486,3.298983611552967,-4.480268609182789
2.3702521671065284,31.160022018126437,-0.022747288020736313,3.2171972110142786,-4.179508481518838
2.36483229859841,30.52440417949966,-0.0314513970604491,3.138981175253507,-3.909264729971738
2.357813882682276,29.904097283653233,-0.03873276210089294,3.0640877832107543,-3.665519797685996
2.3494601538933098,29.29845920637067,-0.04480452578876887,2.992292989614879,-3.4448812959293464
2.339995144667745,28.70689056448788,-0.04984556646687812,2.9233934292130486,-3.2444713934948606
2.3296099353957542,28.12883083084666,-0.05400652625302727,2.8572039071991275,-3.0618380188801146
2.3184678149206133,27.563754912271197,-0.05741467849838135,2.793555278555483,-2.8948831375764286
2.3067085592213448,27.01117012022123,-0.06017787849430502,2.732292641944205,-2.741804491285262
2.2944519928206293,26.470613476966342,-0.06238778551285042,2.673273790604659,-2.6010480203758823
2.2818009640344994,25.941649310384577,-0.06412250234844918,2.6163678752129975,-2.471268816265111
2.268843839125832,25.423867098557494,-0.06544874673822591,2.5614542430578315,-2.351298923233894
2.2556565999792575,24.916879531748222,-0.0664236447275148,2.5084214250348897,-2.2401206696266027
2.2423046137749725,24.420320764498683,-0.06709621731533562,2.457166247460486,-2.1368444851970434
2.2288441303252426,23.93384483475516,-0.06750861718196469,2.4075930499747624,-2.0406903754472934
2.2153235525115758,23.457124230341947,-0.06769716095470323,2.359612994157377,-1.9509723904405452
2.2017845170602914,22.98984858591289,-0.0676931935581421,2.313143450133189,-1.8670855560555635
2.1882628162884044,22.53172349584285,-0.06752381416072589,2.2681074505672107,-1.7884948384075028
2.1747891861075774,22.082469430470343,-0.06721248764754294,2.224433203157862,-1.7147257935104467
2.161389981232908,21.641820744741935,-0.06677956109915215,2.182053654126242,-1.6453566189834943
2.1480877550037243,21.209524769695776,-0.06624270119268741,2.140906096335354,-1.5800113763461436
2.1349017583268672,20.785340978401308,-0.06561726557588402,2.1009318166092843,-1.5183541940004626
2.1218483698741593,20.369040218980533,-0.06491661895119269,2.0620757775984817,-1.4600842945077823
2.108941467705804,19.96040400820221,-0.06415240273235967,2.024286330184757,-1.4049317169032296
2.0961927508714577,19.559223879887462,-0.0633347656111044,1.9875149529627028,-1.3526536268509617
2.083612018197627,19.16530078301197,-0.06247256112720171,1.9517160157922475,-1.303031125443238
2.0712074103532614,18.778444524952228,-0.06157351731645582,1.9168465648051325,-1.255866482187243
2.058985620354192,18.39847325581387,-0.06064438267423818,1.8828661265784719,-1.2109807298368676
2.0469520768884832,18.025212990208924,-0.05969105198284821,1.8497365294709793,-1.1682115687139336
2.035111104192066,17.658497163225842,-0.05871867498132251,1.8174217403598492,-1.1274115364241848
2.023466061655501,17.298166217667344,-0.05773175038432701,1.7858877152251103,-1.088446405727385
2.012019465880607,16.94406721992395,-0.05673420736461738,1.7551022622088102,-1.0511937790246695
2.0007730975154567,16.596053502109775,-0.055729476286884655,1.725034915932975,-1.0155418526866589
1.9897280948659692,16.253984328316825,-0.05472055020798988,1.6956568219965291,-0.9813883284299771
1.9788850360021508,15.917724583048148,-0.0537100384301951,1.6669406306902377,-0.9486394522933299
1.968244010838898,15.58714448007185,-0.05270021320233157,1.6388603990727426,-0.9172091645776322
1.9578046844684018,15.262119290100376,-0.05169305050263159,1.611391500642006,-0.8870183464879262
1.947566352848034,14.942529085844505,-0.050690265701046185,1.5845105419167147,-0.8579941512218401
1.9375279917995238,14.628258503121543,-0.04969334478405445,1.5581952853129153,-0.8300694089507171
1.927688300148342,14.31919651681389,-0.04870357172776531,1.5324245777636345,-0.8031820965852252
1.9180457377233004,14.015236230579074,-0.04772205252264843,1.5071782845845367,-0.7772748644484786
1.9085985588427223,13.716274679306846,-0.04674973628313387,1.4824372281377352,-0.7522946130306175
1.8993548041200996,13.422214176007184,-0.04568781094309464,1.4581678048588862,-0.7253740897013443
1.8903212772524438,13.132960508026525,-0.0446474577334621,1.4343688749477232,-0.6996761668822878
1.881493661306215,12.848421246845422,-0.04362870172882567,1.4110237368633118,-0.6751309090056642
1.8728676420300423,12.56850722843987,-0.04263149103290082,1.3881164471921943,-0.6516731390876377
1.864438922129684,12.293132405981751,-0.0416557079706823,1.365631777388979,-0.6292420635143998
1.8562032334443899,12.022213710897585,-0.0407011788822603,1.3435551734526698,-0.6077809303570929
1.8481563472869575,11.755670921721588,-0.03976768269206304,1.3218727183073014,-0.5872367178742751
1.8402940831772558,11.493426540223236,-0.03885495840495559,1.300571096676201,-0.5675598502272694
1.8326123161706303,11.23540567432983,-0.037962711661298346,1.2796375622578713,-0.5487039377565339
1.825106982957868,10.981535927401211,-0.037090620466323755,1.259059907028295,-0.5306255394518028
1.8177740868917693,10.73174729344742,-0.036238340194664063,1.2388264325096314,-0.5132839455000544
1.8106097020764782,10.485972057910562,-0.03540550795824691,1.2189259228589622,-0.49664097801758994
1.8036099766391729,10.244144703660353,-0.0345917464148061,1.199347619643125,-0.48066080826927754
1.7967711352892217,10.006201821878353,-0.033796667084706376,1.1800811981768777,-0.46530978885249796
1.790089481257205,9.772082027529486,-0.03301987323546006,1.1611167453117937,-0.45055629947824116
1.7835613976950535,9.541725879141055,-0.03226096238605528,1.1424447385724972,-0.4363706051195274
1.7771833486087603,9.31507580262928,-0.031519528476877556,1.1240560265452255,-0.42272472541991984
1.770951879386526,9.092076018931628,-0.030795163745466692,1.1059418104313077,-0.4095923143641608
1.7648636169776286,8.87267247521999,-0.030087460343504676,1.0880936266850825,-0.3969485493104654
1.7589152697706596,8.656812779485271,-0.029396011726185972,1.070503330662089,-0.3847700285711142
1.753103627213901,8.44444613829815,-0.028720413841402212,1.0531630812091226,-0.3730346768059026
1.7474255592154697,8.235523297563937,-0.028060266142910278,1.0360653261330053,-0.36172165756277563
1.7418780153562996,8.029996486101663,-0.027415172448788376,1.0192027884897277,-0.3508112923625239
1.736458023945024,7.8278193618886895,-0.026784741663967843,1.0025684536400128,-0.34028498578055183
1.7311626909402857,7.6289469608225495,-0.026168588383415542,0.9861555570213788,-0.330125156029162
1.7259944783477674,7.4335144524929255,-0.02551353754176708,0.968169526274849,-0.35598499752576085
1.7209531722014546,7.24166811208179,-0.024899523921361574,0.950293877836511,-0.38347514667380705
1.716030657887442,7.053386159388982,-0.02432561921876419,0.9325256490915579,-0.4124874429721578
1.7112190114972636,6.86864739520454,-0.02379084468301945,0.914861992752871,-0.4429161395891894
1.7065105093627513,6.687431178659573,-0.023294176662102466,0.8973001726968228,-0.4746576674760447
1.7018976365315586,6.509717405371195,-0.02283455164982551,0.8798375601869635,-0.5076104045816563
1.6973730942797864,6.335486486304987,-0.02241087086789664,0.862471630475117,-0.5416744492099529
1.6929298067515424,6.164719327280277,-0.022022004414543123,0.8451999597719795,-0.5767513965658502
1.6885609268092885,5.997397309044889,-0.021666795007996006,0.8280202225818981,-0.6127441175357277
1.684259841173473,5.833502267846782,-0.021344061350157945,0.8109301893991707,-0.6495565387399201
1.6800201749251653,5.67301647643027,-0.02105260113291935,0.793927724765958,-0.6870934228790478
1.675835795441191,5.515922625384196,-0.020791193706822926,0.7770107856947929,-0.725260148372437
1.671700815827601,5.362203804768544,-0.020558602429079163,0.7601774204617366,-0.7639624872550068
1.667609597914165,5.211843485944417,-0.020353576705279562,0.7434257677795189,-0.8031063802583044
1.6635567548699854,5.064825503530109,-0.020174853736514575,0.7267540563635603,-0.8425977079512439
1.6595371534982388,4.921134037402986,-0.0200211599809521,0.7101606049076656,-0.8823420567558218
1.6555459162665196,4.7807535946631745,-0.019891212336241353,0.6936438224904615,-0.9222444785818263
1.6515784231282609,4.643668991470289,-0.019783719046345554,0.6772022094384107,-0.9622092427414083
1.647630313190272,4.5098653346587945,-0.019697380333542566,0.6608343586765496,-1.0021395787082885
1.6436974862815847,4.379328003030732,-0.019630888753329537,0.6445389576040649,-1.0419374081762307
1.6397761044795731,4.2520426282164685,-0.01958292926678739,0.6283147905385671,-1.0815030647459638
1.6358625936507383,4.127995074984554,-0.019552179021560357,0.6121607417805621,-1.120734999427731
1.6319536450656886,4.007171420870666,-0.0195373068289377,0.5960757993583161,-1.1595294699867382
1.6280462171507413,3.889557934982509,-0.01953697232053603,0.5800590595232353,-1.19778021197971
1.6241375374423166,3.7751410558224627,-0.01954982476371228,0.5641097320772333,-1.23537808913135
1.620225104814943,3.6639073679520813,-0.019574501510022456,0.5482271466265669,-1.2722107204788813
1.6163066920593703,3.5558435773022694,-0.019609626045704515,0.532410759871552,-1.308162081470548
1.612380348894078,3.4509364849092456,-0.01965380560721916,0.5166601640587015,-1.3431120759403388
1.6084444055015328,3.349172958829225,-0.019705628318232044,0.50097509674151,-1.376936075597784
1.6044974766900144,3.2505399039532072,-0.019763659796952056,0.48535545201867,-1.4095044233718141
1.600538466792887,3.155024229406905,-0.019826439174321992,0.46980129344435684,-1.4406818966374537
1.5965665754300513,3.0626128131789976,-0.01989247445403654,0.4543128688347212,-1.4703271260436412
1.592581304271192,2.9732924635726974,-0.0199602371345555,0.4388906272282792,-1.498291965365711
1.5885824649576399,2.887049877020292,-0.02002815600096652,0.4235352382957802,-1.5244208075515755
1.5845701883594976,2.8038715917369608,-0.02009460998045804,0.4082476145375487,-1.548549841953358
1.5805449353675574,2.7237439366178897,-0.02015791993894264,0.3930289366531452,-1.5705062476910143
1.5765075094459062,2.646652974700679,-0.020216339277569915,0.37788068251896034,-1.5901073182621916
1.5724590712015618,2.5725844404225064,-0.02026804316587404,0.3628046602627785,-1.607159513011544
1.5684011552627481,2.5015236697984307,-0.020311116222260086,0.34780304597798856,-1.621457432075628
1.5643356897984007,2.4334555225336665,-0.02034353842121615,0.3328784266696525,-1.6327827131778392
1.5602650190594565,2.368364294960422,-0.020363168968224918,0.3180338490628051,-1.6409028515275375
1.5561919293791266,2.30623362256231,-0.020367727835075736,0.30327287491829985,-1.6455699486112496
1.5521196791370326,2.247046370723048,-0.020354774585862122,0.2885996434743319,-1.6465194026274366
1.5480520332743832,2.190784512222347,-0.020321684040632598,0.2740189415326935,-1.6434685638410222
1.5439933030494566,2.1374289899199255,-0.02026561820863506,0.2595362814915237,-1.636115393870591
1.5399483918527064,2.086959563048847,-0.020183493758866494,0.2451579872192693,-1.6241371912803308
1.5359228480714548,2.0393546356310956,-0.020071944053648653,0.23089128695823785,-1.6071894803481435
1.53192292622567,1.9945910658078603,-0.01992727440419995,0.21674441127412064,-1.5849052106426893
1.527955657921463,1.952643955462431,-0.019745408637867792,0.2027266921801589,-1.556894489484651
1.5240289346411309,1.913486420585322,-0.019521824165454914,0.18884865659091535,-1.5227451781320636
1.5201516050957693,1.877089344659769,-0.019251471288161376,0.17512210266460257,-1.4820248406077974
1.5163335909542597,1.8434211203307385,-0.01892867012693595,0.16156014062569687,-1.4342847619362609
1.512586026472316,1.8124473893340927,-0.018546974692498216,0.14817716934075256,-1.3790670764759785
1.5089214302782668,1.7841307978874674,-0.018098987247995933,0.1349887451254979,-1.315916496865193
1.5053539219915548,1.758430795464136,-0.017576095619122205,0.12201127910782279,-1.2443987335284534
1.5018995035442584,1.7353035201096105,-0.01696808885384195,0.10926147443744902,-1.1641284335872744
1.4985764368093775,1.7147018337340612,-0.01626257849496693,0.09675538931804212,-1.074810234808978
1.4954057682250017,1.6965755946970802,-0.015444107348789307,0.08450700105176348,-0.9762969643814352
1.492412081977506,1.680872275892117,-0.014492755126168818,0.0725261869978715,-0.8686682222926163
1.489624613162262,1.6675380362584953,-0.01338193302627327,0.06081620933835579,-0.752328726924955
1.4870789345990385,1.656519291802521,-0.012074852605961202,0.049371235221385736,-0.6281157733953329
1.484819579473586,1.6477646323725743,-0.010518698648565417,0.03817535907807056,-0.49738562747245385
1.4829042936405958,1.6412264625082607,-0.008634159681333546,0.027206339565071923,-0.3620207343047158
1.481411628332471,1.6368607282661678,-0.006292493399913762,0.016451002855843107,-0.22427728604125524
1.4804581252907094,1.6346200829241369,-0.0032425370177030883,0.005955450564459992,-0.08640515600385701
