x,y,v_x,v_y,omega
2.375,32.48,0.0,3.128205128205128,-3.591836734693878
2.374319005118647,31.923111059505874,-0.007566609792808951,3.059449766174009,-3.3799404842785292
2.3723700005148602,31.3783683088824,-0.014088996915935655,2.993247462975701,-3.1866144514812746
2.3693285932908057,30.845325890446038,-0.019704416684670482,2.9294460752060987,-3.0097372414001393
2.365347443804834,30.32356422003655,-0.024530577603900126,2.867905818232685,-2.8474746265202735
2.3605595086409967,29.812687880834176,-0.02866870199429631,2.808497950682556,-2.698235287621411
2.3550807799979365,29.31232373789991,-0.032206060706373364,2.751103637475953,-2.5606341633250613
2.3490126072695663,28.82211924399877,-0.03521808071995952,2.6956129614256215,-2.433461967354118
2.3424436706270586,28.34174091212325,-0.03777010419679499,2.6419240594134967,-2.315659730739518
2.3354516636846765,27.870872934036033,-0.03991886182966929,2.5899423637777983,-2.2062974573498817
2.328104732127918,27.409215927313234,-0.04171371102320274,2.5395799331421984,-2.1045561615301183
2.3204627069587858,26.956485795953284,-0.04319767974493692,2.4907548597461324,-2.0097126983402283
2.312578164353614,26.512412691744288,-0.044408349201415766,2.4433907425760353,-1.9211269088455587
2.30449733871205,26.076740065347543,-0.045378602371515975,2.3974162173877853,-1.838230691855069
2.296260911051237,25.6492237975289,-0.046137260526408874,2.352764536152694,-1.7605186845301037
2.287904691270989,25.2296314022085,-0.04670962592079025,2.309373189629531,-1.6875402912778505
2.279460209829421,24.817741294046918,-0.04711794565218248,2.2671835677214056,-1.618892846283336
2.2709552319018775,24.413342114176302,-0.04738180909830596,2.226140653063168,-1.5542157322249377
2.2624142050518588,24.016232108446324,-0.04751848923523664,2.186192743936583,-1.4931853079506399
2.253858649743239,23.626218553208233,-0.04754323641609447,2.1472912031533236,-1.4355105225636458
2.2453075006059207,23.243117224224378,-0.047469531776327664,2.109390230000619,-1.3809291135743205
2.2367774051819413,22.86675190477885,-0.04730930626788971,2.0724466527274767,-1.3292043033870065
2.2282829858851136,22.496953929489745,-0.04707313036352614,2.0364197393736903,-1.2801219220917135
2.219837070071531,22.133561760694338,-0.046770378676285494,2.0012710250197157,-1.2334878958687796
2.2114508924136445,21.776420594603156,-0.04640937307800392,1.9669641537711875,-1.1891260497264244
2.203134273175165,21.42538199470428,-0.04599750734954519,1.9334647339940625,-1.1468761811275556
2.194895775479525,21.080303550150667,-0.04554135593534629,1.9007402054905684,-1.1065923676059148
2.1867428442362993,20.74104855708541,-0.04504676898938323,1.868759717456727,-1.0681414769512758
2.1786819290254087,20.407485721056947,-0.044518955576070315,1.8374940161928648,-1.0314018531444205
2.1707185929280084,20.07948887885089,-0.0439625566172625,1.8069153416522457,-0.9962621550960411
2.162857609027244,19.756936738221082,-0.04338170894679013,1.7769973320122447,-0.9626203285128971
2.1551030460744585,19.439712634141433,-0.042780101639715726,1.7477149355394197,-0.9303826939805548
2.1474583446211812,19.12770430032423,-0.04216102561891756,1.7190443290961748,-0.8994631366978841
2.139926384749312,18.82080365486222,-0.041527417401851216,1.6909628427039123,-0.8697823852926386
2.132509546387317,18.518906598951553,-0.0408818977314263,1.6634488896368738,-0.8412673688464195
2.125209763075469,18.221912827742635,-0.04022680573355142,1.6364819015733303,-0.813850642708015
2.118028569935293,17.929725652447075,-0.03956422915729323,1.6100422683772886,-0.787469874915414
2.110967146504984,17.642251832901856,-0.03889603117947171,1.5841112821251977,-0.7620673861111569
2.104026355021556,17.359401419857985,-0.038223874191956476,1.5586710850289145,-0.7375897367501637
2.0972067746600995,17.08108760632087,-0.03754924093533526,1.5337046209389944,-0.7139873561864323
2.0905087321793108,16.807226587323612,-0.03687345329564825,1.5091955901416765,-0.6912142089040213
2.0839323293690675,16.537737427563833,-0.03619768904039046,1.485128407189171,-0.6692274937445067
2.0774808367434145,16.27254285939856,-0.03548556235575401,1.4614779057583291,-0.6468041388970966
2.071156723311425,16.01156819062287,-0.034782364666349354,1.4382406361937474,-0.6253224443111873
2.0649583430145206,15.754740272800131,-0.034088527521476536,1.4154028951700366,-0.6047323481337415
2.058883979124488,15.501988372421206,-0.03340440458999767,1.3929515534847,-0.5849869513309779
2.0529318574609983,15.253244070297058,-0.03273028055988932,1.3708740256725127,-0.566042285899149
2.0471001580945507,15.008441166248897,-0.03206637906730757,1.3491582415292926,-0.5478571023346981
2.0413870256997564,14.767515588764756,-0.03141286976374149,1.3277926194055927,-0.530392674578061
2.0357905787054813,14.530405309315434,-0.030769874617092602,1.3067660411424404,-0.5136126208278081
2.0303089173721207,14.297050261044756,-0.030137473531356797,1.2860678285317526,-0.4974827387839257
2.024940130911917,14.067392261569474,-0.029515709359795864,1.2656877211935897,-0.4819708540232621
2.019682303755525,13.841374939642652,-0.0289045923778893,1.2456158557710897,-0.46704668033864494
2.014533521056783,13.618943665451592,-0.02830410427480036,1.2258427463518031,-0.45268169098777394
2.0094918735176615,13.40004548433711,-0.027714201715440423,1.2063592660313394,-0.43884899990033066
2.0045554616065298,13.184629053735527,-0.02713481951935791,1.1871566295417835,-0.42552325198323876
1.9997223992350113,12.972644583158168,-0.02656587349751261,1.1682263768733214,-0.4126805217459055
1.9949908169517259,12.7640437770355,-0.026007262983437217,1.1495603578229758,-0.4002982195406609
1.990358864705003,12.55877978026459,-0.025458873091259826,1.1311507174093447,-0.38835500477944374
1.9858247142211347,12.356807126309036,-0.024920576729499395,1.1129898820968145,-0.3768307055469086
1.9813865610398045,12.1580816877104,-0.02439223639639335,1.0950705467769013,-0.36570624408327873
1.9770426262439538,11.962560628879238,-0.02387370577972377,1.0773856624582192,-0.3549635676581037
1.9727911579174318,11.770202361042191,-0.02336483118163213,1.0599284246200966,-0.3445855843991755
1.9686304323602806,11.580966499229454,-0.02286545278671523,1.0426922621881052,-0.3345561036797134
1.9645587550883992,11.39481382119418,-0.022375405789743296,1.025670827092735,-0.32485978070200733
1.9605744616415377,11.211706228162065,-0.021894521397606583,1.0088579843751968,-0.31548206494740133
1.9566759182210833,11.031606707315682,-0.021422627718553928,0.9922478028068479,-0.30640915219116127
1.952865288079665,10.854699852920138,-0.02091770718609319,0.9733839126991755,-0.3462181290718163
1.9491416557426837,10.681179345817817,-0.020455985447034537,0.9546217217710374,-0.38715918832631363
1.945497373108235,10.511027106323777,-0.020036043824616826,0.9359587170516402,-0.4291326960105645
1.9419250487178803,10.344225498323155,-0.019656449401547024,0.9173924829552744,-0.47204031068634233
1.9384175500758427,10.180757311951648,-0.019315757732204474,0.8989206989503721,-0.5157847663573535
1.9349680055084275,10.020605746664586,-0.01901251523907586,0.880541137572526,-0.5602696558093615
1.9315698056189377,9.863754394632537,-0.01874526131080973,0.8622516627835789,-0.6053992133906341
1.9282166043904527,9.71018722440066,-0.01851253011679997,0.8440502286817115,-0.651078096239133
1.9249023199863724,9.559888564747965,-0.018312852150761706,0.8259348785704679,-0.6972111629246239
1.9216211352966044,9.412843088680809,-0.018144755513326793,0.8079037443979125,-0.7437032484266232
1.918367498275694,9.269035797492737,-0.018006766941233578,0.7899550465806624,-0.7904589343121325
1.9151361221180458,9.12845200481965,-0.01789741258819095,0.772087094231434,-0.8373823129096086
1.9119219853147147,8.991077320615645,-0.017815218559930592,0.7542982858130663,-0.8843767441966484
1.9087203316360246,8.856897634970256,-0.017758711203293528,0.7365871102468,-0.9313446040273865
1.9055266700845528,8.725899101682323,-0.01772641714639382,0.7189521485079913,-0.9781870222204131
1.9023367748638238,8.598068121499235,-0.017716863083926976,0.7013920757485392,-1.024803608907831
1.8991466854094052,8.47339132492257,-0.017728575298502688,0.683905663992202,-1.0710921674094567
1.8959527065310506,8.351855554472156,-0.017760078905435985,0.6664917854568309,-1.116948391741607
1.8927514087171404,8.233447846290055,-0.017809896804677625,0.6491494165665078,-1.1622655466957976
1.8895396286559691,8.118155410953655,-0.017876548319446926,0.6318776427268211,-1.2069341282273982
1.8863144700325263,8.005965613352895,-0.017958547496585205,0.6146756639482687,-1.2508415016762573
1.8830733046643593,7.896865951470087,-0.018054401038603726,0.5975428014162861,-1.2938715150991311
1.8798137740460252,7.790844033881648,-0.018162605831775234,0.5804785051219363,-1.3359040847263766
1.8765337913786166,7.687887555779007,-0.01828164602832067,0.5634823626851889,-1.376814749262349
1.8732315441690377,7.587984273280242,-0.018409989633666416,0.5465541095233286,-1.4164741894308763
1.8699054974932483,7.4911219757744725,-0.01854608454177171,0.5296936405407549,-1.4547477088261913
1.8665543980287629,7.397288456006869,-0.01868835395251014,0.5129010235437181,-1.4914946717703774
1.8631772789744985,7.3064714775726,-0.018835191094870384,0.4961765146148423,-1.5265678935088605
1.8597734659908287,7.218658739442638,-0.018984953168127584,0.4795205757180805,-1.5598129777092824
1.8563425843097066,7.133837837091917,-0.019135954399898198,0.46293389484548786,-1.5910675958875307
1.8528845671842793,7.051996219740133,-0.01928645810484902,0.4464174090632122,-1.620160703100533
1.8493996658699035,6.9731211431465425,-0.019434667610437925,0.42997233086556025,-1.646911684068046
1.8458884613543263,6.897199617321402,-0.019578715895975488,0.4136001783026823,-1.6711294238886396
1.8423518780845751,6.824218348427394,-0.019716653767927046,0.3973028094085006,-1.6926112978070815
1.8387911999724385,6.754163674043905,-0.019846436366923872,0.3810824615191294,-1.7111420752311146
1.835208089000179,6.687021490855063,-0.019965907769291347,0.3649417961346721,-1.7264927346192187
1.831604606794368,6.622777173699994,-0.020072783406385082,0.3488839500327587,-1.7384191883097777
1.827983239589937,6.561415484792828,-0.020164629976183488,0.3329125933801752,-1.7466609203367993
1.824346927070715,6.502920471785277,-0.02023884245961721,0.31703199559261136,-1.7509395465105035
1.8206990956497746,6.447275353214788,-0.02029261777305377,0.30124709963503377,-1.7509573156052485
1.81704369684712,6.394462389771167,-0.020322924478665495,0.28556360529410274,-1.7463955849646997
1.8133852515401814,6.344462739748607,-0.02032646782065155,0.26998806162322675,-1.7369133255115405
1.8097289010144262,6.297256297068309,-0.020299649132184478,0.25452796815787776,-1.7221457434213887
1.8060804659433916,6.252821510422123,-0.02023851832375724,0.23919188346640624,-1.7017031535499163
1.8024465147058562,6.211135182499099,-0.020138717648857125,0.2239895379005395,-1.675170310338292
1.7988344428456355,6.172172249066811,-0.019995414131372142,0.20893194468041967,-1.64210650588407
1.7952525660676075,6.135905539121129,-0.01980321673560725,0.19403149916050996,-1.6020468972177322
1.7917102300602052,6.102305519740533,-0.01955607223552848,0.1793020495127788,-1.554505746644527
1.7882179418372774,6.071340033196368,-0.01924713024144605,0.16475891208907006,-1.4989825785426287
1.7847875295318412,6.042974040001091,-0.018868562041178805,0.1504187900806589,-1.43497270805446
1.7814323412045057,6.017169390882785,-0.01841130826255149,0.1362995334560998,-1.3619842168468121
1.778167499171667,5.993884664279893,-0.017864714324545342,0.12241965102047354,-1.279564253373159
1.775010236131191,5.973075124797116,-0.01721598612518543,0.10879745434371242,-1.1873384593676215
1.7719803554312217,5.954692881886107,-0.01644935498558539,0.09544968911195126,-1.0850681066998027
1.7691008841349074,5.938687352848913,-0.015544770529016459,0.08238952241244946,-0.9727294366561752
1.7663990304211485,5.925006147137896,-0.01447582629052734,0.06962387437662979,-0.8506170659289619
1.7639076273865193,5.913596458177675,-0.013206429649796635,0.05715044740358653,-0.7194650431627885
1.7616673679624513,5.904406909958592,-0.011685341728739158,0.04495564391957775,-0.5805609091252839
1.7597303865781488,5.897389444130965,-0.009836673652398558,0.03301619860961406,-0.4357979720141808
1.75816642984694,5.892500037475141,-0.007540623361031279,0.02131054201065767,-0.28757860243948297
1.7570755521655435,5.889695031411112,-0.004580239765597561,0.009856192034131999,-0.1384755771580068
1.7566295263501295,5.888908984946404,-0.0003756026278897238,-0.0011223424262590941,0.009309101206020604
