x,y,v_x,v_y,omega
2.375,32.48,0.0,2.9743589743589745,-4.326530612244898
2.374037855452628,31.89196555428697,-0.009621445473723941,2.905985482771301,-4.057977158162939
2.3712901111027533,31.317335541197096,-0.017855998025018936,2.8403146481274493,-3.81427865610377
2.367015043260422,30.755586689179665,-0.024894680398295517,2.777173872046842,-3.5924432959107877
2.3614355786838273,30.206228714599888,-0.03089996536765102,2.7164058737509373,-3.3899060256807267
2.354744534203959,29.668801440147117,-0.03601047943102964,2.65786687077677,-3.2044591262786715
2.3471090010266598,29.142872249194752,-0.04034485234196278,2.601425038746881,-3.034195421148226
2.338674027479864,28.62803382558194,-0.0440048831259993,2.546959197381235,-2.877461577807824
2.3295657235894307,28.12390213767694,-0.04707815577833149,2.494357681668773,-2.732819519604711
2.319893887071318,27.6301146329185,-0.04964020940279382,2.4435173659156106,-2.599014392835279
2.309754231555305,27.1463286148215,-0.05175634575733687,2.3943428150544217,-2.4749478607780535
2.2992302829471574,26.67221977904589,-0.05348314032414142,2.3467455427016626,-2.359655748007625
2.2883949979247427,26.20748088883665,-0.05486970990000594,2.300643359390747,-2.252289254044963
2.2773121489937926,25.751820573149377,-0.05595877940948987,2.2559597974819674,-2.1520991084955323
2.2660375128010672,25.304962233234523,-0.056787582517764446,2.212623601666566,-2.0584221603536386
2.2546198921324874,24.866643045477968,-0.05738862416803698,2.1705682758989866,-1.9706699895924902
2.2431019969139463,24.43661304997569,-0.05779032801737147,2.129731679123806,-1.8883192051481241
2.231521205351035,24.014634315723445,-0.05801758761174254,2.090055663398642,-1.8109031542156107
2.219910222908906,23.60048017448192,-0.058092236809545034,2.051485749016609,-1.738004816673464
2.208297654001407,23.193934516375137,-0.05803345226544497,2.0139708320512213,-1.6692506979488453
2.1967084989154912,22.794791141127934,-0.05785809859371407,1.9774629204208138,-1.6043055656760814
2.185164586552042,22.402853159573063,-0.0575810250407807,1.9419168951278947,-1.5428679015976912
2.1736849519448485,22.01793244068088,-0.057215321031153295,1.9072902937939296,-1.484665961495139
2.1622861661670947,21.63984909990151,-0.05677253674638328,1.8735431139997523,-1.4294543534479562
2.150982625102099,21.268431025074538,-0.056262873903575816,1.840637634269995,-1.3770110591415154
2.139786802603892,20.90351343656576,-0.05569535107848965,1.808538250817775,-1.3271348348608187
2.1287094727723654,20.544938478643765,-0.05507794723678142,1.77721132840218,-1.2796429386869628
2.11775990539169,20.19255483941825,-0.054417726569973596,1.7466250638529863,-1.2343691386283597
2.1069460380087204,19.846217396933923,-0.05372094725972247,1.7167493609902416,-1.1911619632709793
2.0962746276429165,19.505786889253347,-0.052993156398316144,1.6875557158155305,-1.1498831622635
2.0857513847069296,19.17112960657372,-0.05223927296154902,1.6590171109807117,-1.1104063487608857
2.075381091365654,18.84211710361047,-0.05146366045120901,1.6311079186518025,-1.0726157999933401
2.0651677062615934,18.518625930646984,-0.050670190589394794,1.603803810983076,-1.0364053955371095
2.055114457277815,18.20053738179853,-0.049862299248392916,1.577081677501468,-1.001677675745856
2.045223923789792,17.887737259170798,-0.049043035631838365,1.5509195487758543,-0.9683430052437507
2.0354981096685707,17.5801156517121,-0.048215105580371,1.5252965258111384,-0.9363188284560681
2.0259385081351473,17.277566727664517,-0.04738090975386392,1.5001927146646636,-0.9055290059193319
2.0165461594258485,16.979988539614723,-0.0465425773391239,1.4755891658332652,-0.8759032216201378
2.0073311710582025,16.687284624658034,-0.045607306337336506,1.4514499837336303,-0.8446242276686912
1.9983021634868563,16.39936194038686,-0.0446827693761246,1.4277768589781037,-0.814763454041686
1.9894569033399354,16.1161289265696,-0.04376983209308465,1.4045532791944773,-0.7862398985262272
1.9807929987348167,15.837497250621535,-0.04286921395810134,1.3817634802861891,-0.7589780612832587
1.9723079267746857,15.563381662217498,-0.0419815056432086,1.3593924037541916,-0.7329075117237153
1.963999057770941,15.293699856150276,-0.04110718439423907,1.3374256569180318,-0.7079624940222201
1.9558636765674016,15.028372342877784,-0.04024662764115519,1.315849475806876,-0.6840815674241182
1.9478990012978403,14.767322326245907,-0.03940012505445647,1.294650690511888,-0.6612072779228717
1.9401021998694508,14.51047558791372,-0.038567889229438726,1.2738166928099646,-0.6392858582557585
1.9324704044307266,14.257760378044171,-0.03775006515780329,1.2533354058855408,-0.6182669534928956
1.9250007240522746,14.009107311856393,-0.036946738626716595,1.2331952559922557,-0.5981033697834742
1.917690255822752,13.764449271666184,-0.03615794366850988,1.2133851459098517,-0.5787508440785515
1.9105360945389562,13.523721314068801,-0.03538366916944836,1.19389443006397,-0.5601678328760022
1.9035353411487015,13.286860581943643,-0.03462386473310027,1.1747128911876075,-0.5423153182338734
1.8966851100871363,13.053806220983574,-0.03387844588255145,1.1558307184130658,-0.5251566294765636
1.8899825356312983,12.824499300473033,-0.03314729867582692,1.1372384866923448,-0.5086572791766834
1.883424777383694,12.598882738058578,-0.03243028380021496,1.118927137452218,-0.49278481213649983
1.8770090249833145,12.376901228273582,-0.031727240203582016,1.1008879603977522,-0.47750866621860943
1.8707325021315477,12.158501174595319,-0.031037988314083557,1.0831125763848881,-0.4628000439876978
1.8645924700107597,11.943630624827936,-0.030362332893797476,1.0655929212889361,-0.4486317942255237
1.858586230164717,11.73223920961889,-0.029700065566631514,1.0483212308015275,-0.4349783024709675
1.8527111269024243,11.52427808392936,-0.029050967056295833,1.0312900260937623,-0.42181538981732986
1.8469645492801838,11.319699871291181,-0.0284148091661094,1.0144921002880294,-0.4091202192711013
1.841343932710687,11.118458610693846,-0.027791356528857863,0.9979205056853224,-0.3968712090410891
1.8358518618756028,10.920682724433775,-0.027129351821982617,0.9798383569153949,-0.4195524437013217
1.8304883069648215,10.726511912905156,-0.026506197285830157,0.9618697583707752,-0.4439842611034541
1.8252455715170042,10.535923774582827,-0.02592115719234309,0.944011624852505,-0.4700548153370596
1.8201161125968748,10.348896512882327,-0.025373432008951827,0.9262609921524831,-0.49765490155932873
1.8150925529123216,10.16540891241647,-0.024862164836579968,0.9086150125060894,-0.5266777125108231
1.8101676916996141,9.98544031612084,-0.024386447290495196,0.8910709504502003,-0.5570186009547874
1.8053345144842603,9.808970603168419,-0.023945324863042766,0.8736261790740056,-0.5885748470621615
1.8005862018175802,9.635980167595754,-0.023537801803757766,0.8562781766526343,-0.6212454297762134
1.7959161370823038,9.466449897564871,-0.023162845549007112,0.8390245236562058,-0.6549308011954749
1.7913179134543893,9.300361155186295,-0.022819390730136276,0.8218629001295739,-0.6895326630112679
1.7867853401027696,9.137695756829263,-0.022506342786062828,0.8047910834407498,-0.7249537440264082
1.7823124477038288,8.978435953845306,-0.022222581203343503,0.7878069463988283,-0.7610975777643505
1.7778934933431025,8.822564413630904,-0.021966962403918683,0.7709084557452112,-0.7978682791527906
1.7735229648729125,8.670064200953874,-0.02173832229798223,0.7540936710250941,-0.8351703192320962
1.7691955847914431,8.520918759466408,-0.021535478516710168,0.7373607438495817,-0.8729082967963899
1.764906313706084,8.375111893325201,-0.02135723233688194,0.7207079175624878,-0.910986705823036
1.7606503534417242,8.23262774883596,-0.021202370306715713,0.7041335273299134,-0.9493096974839654
1.756423149853104,8.093450796035452,-0.02106966557948517,0.6876360006751561,-0.9877808354589144
1.7522203953992896,7.957565810119291,-0.02095787895865874,0.6712138584864452,-1.0263028431853238
1.7480380315378867,7.824957852617594,-0.020865759655370106,0.6548657165305385,-1.0647773415813666
1.7438722509967544,7.695612252213397,-0.02079204575595511,0.6385902875114267,-1.1031045756662452
1.7397194999817553,7.569514585090214,-0.020735464394035504,0.622386383720418,-1.1411831283743823
1.7355764803805367,7.446650654684991,-0.020694731618151392,0.6062529203318311,-1.1789096197162479
1.7314401520245022,7.327006470711051,-0.02066855194219324,0.5901889194075779,-1.216178389277142
1.7273077350741022,7.21056822730187,-0.02065561756180814,0.574193514684242,-1.2528811598652387
1.723176712596372,7.097322280110639,-0.02065460721549329,0.5582659572280536,-1.288906679920714
1.7190448334084052,6.987255122182166,-0.020664184664175286,0.5424056220566683,-1.324140342078356
1.7149101152662245,6.880353358392288,-0.020682996757630367,0.5266120158421193,-1.3584637750368302
1.7107708484854574,6.776603678225371,-0.02070967105004127,0.5108847858270413,-1.3917544056298627
1.7066256000884321,6.675992826632012,-0.020742812920211545,0.49522373010655585,-1.4238849877206279
1.7024732185819758,6.578507572676216,-0.020781002144352537,0.4796288094514192,-1.454723094255448
1.6983128394814617,6.484134675643624,-0.020822788860787766,0.46410016087451544,-1.4841305685246478
1.6941438917097604,6.392860848238886,-0.020866688856225106,0.4486381131728638,-1.511962930400008
1.6899661050149142,6.304672716450469,-0.020911178092237914,0.43324320471131816,-1.5380687330696448
1.6857795185678865,6.2195567756041115,-0.02095468637803781,0.41791620375225286,-1.5622888656022318
1.6815844909219608,6.137499342061108,-0.02099559008121943,0.4026581316777671,-1.5844557965877872
1.677381711538686,6.058486499943633,-0.021032203751530247,0.3874702894969659,-1.6043927541870906
1.673172214112197,5.982504042185958,-0.021062770513358565,0.37235428807978677,-1.621912838271617
1.6689573919548772,5.909537405117096,-0.021085451059841078,0.3573120826088275,-1.636818061089487
1.6647390157434654,5.83957159567737,-0.021098311054275818,0.34234601178842067,-1.6488983142517226
1.660519253966894,5.772591110259501,-0.02109930671143727,0.3274588423902551,-1.657930262089011
1.6563006964667246,5.7085798440466675,-0.02108626829025546,0.3126538197380994,-1.663676165005295
1.652086381520018,5.647520989600245,-0.02105688117681257,0.2979347247261389,-1.6658826419644208
1.6478798269855828,5.589396923337301,-0.02100866416753976,0.2833059379033013,-1.66427938958028
1.6436850661219637,5.534189078446545,-0.02093894446865078,0.2687725110042593,-1.6585778877331914
1.6395066887954917,5.481877802744929,-0.020844828796071184,0.2543402460119151,-1.6484701400866242
1.6353498889389715,5.432442200012485,-0.020723169769130606,0.24001578131254087,-1.6336275250630357
1.6312205193114206,5.385859953518569,-0.020570526506376127,0.225806683626613,-1.6136998727246954
1.6271251548711754,5.342107130858388,-0.020383117896077208,0.21172154297519807,-1.5883149413349285
1.6230711664482311,5.301157969991806,-0.020156766333364173,0.19777006569062477,-1.5570785523865571
1.6190668069514031,5.262984647723883,-0.01988682863491625,0.18396315698859944,-1.5195757662446687
1.61512131317764,5.227557034094801,-0.01956810910271377,0.17031297930221193,-1.4753736583879906
1.6112450275790686,5.194842439699922,-0.019194746883000265,0.15683296464658472,-1.424026509892063
1.6074495463758498,5.164805368459145,-0.0187600651491871,0.1435377477611864,-1.3650845812363293
1.6037479036537938,5.137407296614242,-0.01825636207137227,0.13044297068784771,-1.2981081216339745
1.6001548063314934,5.112606510704577,-0.0176746111516343,0.11756488840880369,-1.222688887721782
1.5966869433818789,5.090358053765186,-0.017004018344510118,0.10491968098509177,-1.1384821626875108
1.5933634064598092,5.070613849876988,-0.016231350876186323,0.09252235789690613,-1.0452528945597348
1.5902062812857718,5.053323099494978,-0.01533990086418906,0.08038514592318335,-0.9429396021120229
1.5872415047446395,5.038433051818178,-0.014307864547130891,0.06851533084483272,-0.8317379826564262
1.5845001400350105,5.025890241709643,-0.013105782549159846,0.05691277024052972,-0.712200531057023
1.5820203186661739,5.015642177880519,-0.011692431139206722,0.04556786805070746,-0.5853358065902245
1.5798502834610755,5.007639198637083,-0.010007920911776741,0.034461924383663294,-0.4526691479595162
1.5780534278440663,5.001835620489565,-0.007960635258316417,0.023573857091503513,-0.31620049492322355
1.576717820755896,4.9981879652849805,-0.005395435623387672,0.012902694954347767,-0.17818316833863562
1.5759811108645363,4.996642908596307,-0.0019716632902093043,0.002547871932383105,-0.040686923224457466
