x,y,v_x,v_y,omega
2.375,32.48,0.0,2.6666666666666665,-7.877551020408164
2.3737977492701043,32.0048379177865,-0.013358341443286341,2.6129120245943462,-7.471252005089196
2.3703365994846806,31.539187778879437,-0.025098878394754994,2.5609784077064224,-7.0956974695965895
2.3648910002659798,31.082731679616384,-0.035407779590809346,2.5107560285497206,-6.7477876289287115
2.357704028287605,30.635170582432675,-0.044447464613352375,2.4621450512692755,-6.424801807257708
2.348991351142791,30.196222638032125,-0.05236005921791679,2.415054330959046,-6.1243441578488955
2.338944621248775,29.76562171618041,-0.05927027293781969,2.3694003562822377,-5.844298337054047
2.327734393796508,29.343116112013433,-0.0652878098651459,2.3251063566841452,-5.582789449530832
2.3155126449719354,28.928467400969865,-0.07050939929676947,2.2821015437999534,-5.33815193813816
2.302414952717796,28.52144942035809,-0.07502051463811181,2.2403204629975835,-5.108902364347871
2.2885623912513067,28.121847359458812,-0.07889683498954901,2.1997024358832844,-4.893716235182492
2.2740631817257246,27.72945694317388,-0.08220549307247288,2.1601910783937006,-4.691408196249226
2.2590141343194827,27.344083696732497,-0.08500614477465931,2.1217338820661453,-4.500915038754194
2.243501911277888,26.96554228098926,-0.0873518890208377,2.084281848414214,-4.321281069801832
2.2276041357333405,26.59365588949536,-0.08929006147413207,2.0477891681847042,-4.151645476013084
2.211390367272042,26.228255699871777,-0.09086292142918607,2.012212938744001,-3.991231375177531
2.1949229620296538,25.869180373122934,-0.09210824793068541,1.977512914020944,-3.839336302798277
2.1782578324542556,25.516275595446643,-0.09305985846262575,1.9436512823822936,-3.695323922667324
2.1614451196695,25.169393657859583,-0.09374806136798898,1.9105924685850126,-3.558616785075193
2.144529789522969,24.82839306959524,-0.0942000513712465,1.8783029565743703,-3.428689984498242
2.127552161849944,24.493138201766865,-0.09444025610681311,1.846751130407591,-3.305065591855693
2.1105483811694956,24.16349895823998,-0.09449064034260896,1.815907131002226,-3.187307755653878
2.093550835916444,23.83935047104187,-0.09437097358018919,1.7857427267545463,-3.0750183823010047
2.0765885323656774,23.52057281796155,-0.09409906587277238,1.7562311963601436,-2.9678333191873705
2.059687428597198,23.207050760272438,-0.09369097599921844,1.7273472224077717,-2.8654189752663877
2.042870733158575,22.898673498749194,-0.09316119554103883,1.699066794517168,-2.7674693232283394
2.0261591724878776,22.595334446356315,-0.09252281191115773,1.671367120959266,-2.673703235243595
2.0095712306493416,22.29693101616451,-0.09178765296146435,1.6442265478385683,-2.5838621109177913
1.9931233644933641,22.003364423205703,-0.09096641543828178,1.61762448503709,-2.497707761753824
1.9768301969714022,21.714539499112476,-0.09006877925018657,1.5915413382209405,-2.4150205212223192
1.9607046910061596,21.430364518505836,-0.0891035092525073,1.5659584462973055,-2.3355975536412736
1.9447583060307159,21.150751036198535,-0.08807854603020093,1.5408580237838034,-2.259251338570207
1.9290011390607178,20.87561373437256,-0.0870010869697781,1.5162231076159385,-2.1858083104281367
1.9134420519462392,20.60487027896953,-0.08587765874665047,1.4920375079733197,-2.1151076356257086
1.8980951373183843,20.338448053457853,-0.08464361489618163,1.4682094421563898,-2.0439027962795984
1.8829718162768057,20.076276811364785,-0.08339328556580282,1.4448043588777242,-1.9757136425320017
1.8680746849846126,19.818281706868547,-0.08213039545856742,1.4218079133027073,-1.9103783844986961
1.8534057041716885,19.564390420029255,-0.08085828024058865,1.399206384911627,-1.8477455603187969
1.8389662657645924,19.31453304755272,-0.0795799242827009,1.3769866426054005,-1.7876732701928948
1.8247572530621814,19.068641999622116,-0.0782979946329761,1.3551361121791492,-1.730028474974905
1.8107790950995815,18.826651902388498,-0.07701487161813556,1.3336427459721536,-1.67468635322625
1.797031815775517,18.58849950574413,-0.07573267642702597,1.312494994520802,-1.6215297112772724
1.7835150782579956,18.354123596032103,-0.0744532959898764,1.29168178005726,-1.570448441404112
1.7702282251299981,18.123464913372963,-0.07317840543231849,1.271192471710991,-1.521339023728783
1.757170314689362,17.89646607331349,-0.07190948835252918,1.2510168622831361,-1.4741040678937565
1.7443401537747802,17.67307149252523,-0.07064785514282379,1.231145146475316,-1.4286518909567933
1.7317363274521438,17.45322731830062,-0.06939465955313481,1.2115679004647897,-1.3848961283030266
1.7193572258618213,17.23688136161334,-0.06815091367267063,1.1922760627272335,-1.3427553746844982
1.7072010684974224,17.023983033526374,-0.06691750148731815,1.1732609160168148,-1.3021528527770012
1.695265926159727,16.814483284746984,-0.065695191153742,1.1545140704208197,-1.2630161068940793
1.6835497408054154,16.608334548141947,-0.06448464611638421,1.1360274474129506,-1.225276719721808
1.6720503434886997,16.405490684039577,-0.06328643518045966,1.1177932648356217,-1.188870050138521
1.6607654705746442,16.205906928157123,-0.062101041642380374,1.099804022747199,-1.1537349903635694
1.649692778385651,16.009539842003104,-0.06092887156865511,1.0820524900752444,-1.1198137408408195
1.6388298564270172,15.8163472656144,-0.059770261305052724,1.0645316920214616,-1.0870516014079332
1.6281742393235024,15.626288272497323,-0.0586254842895566,1.047234898168267,-1.0553967774333024
1.617723417586269,15.43932312665051,-0.05749475723526052,1.030155611240757,-1.0248001997204212
1.6074748473182467,15.25541324155552,-0.056378245742762116,1.0132875564813526,-0.9952153570858421
1.597425958955784,15.074521141028413,-0.055276069395711204,0.9966246715976147,-0.9665981406129144
1.587583315281393,14.896842528728524,-0.054086638097523704,0.9775821317345077,-0.989949377618218
1.5779501826279576,14.722581591673887,-0.052948169162869436,0.9586505022059129,-1.0148337362709874
1.5685175295913458,14.551718620215734,-0.051859086799484234,0.9398269584402088,-1.0411328848169823
1.5592766105160485,14.384234402332645,-0.050817791814930555,0.9211087958163449,-1.0687305440160986
1.5502189693801922,14.220110202338617,-0.049822665250139536,0.9024934263395268,-1.0975122258394105
1.541336443060867,14.059327740150522,-0.04887207163125224,0.8839783757504248,-1.1273649755272108
1.5326211640463243,13.901869171037138,-0.04796436186366477,0.8655612810649599,-1.158177115894042
1.52406556265754,13.747717065772243,-0.04709787578949525,0.8472398885449732,-1.1898379927598668
1.515662368838047,13.596854391113883,-0.04627094442709274,0.8290120521034704,-1.2222377203713328
1.5074046135678278,13.449264490530918,-0.0454818919086758,0.8108757321517029,-1.255266925653337
1.499285629954374,13.30493106509634,-0.044729037129701256,0.7928289948991524,-1.28881649009848
1.4912990540518019,13.163838154464475,-0.04401069512109734,0.7748700121215678,-1.3227772880601683
1.4834388254571307,13.025970117846036,-0.04332517815302808,0.7569970614166395,-1.357039920163653
1.4756991877314856,12.891311614891084,-0.042670796576362434,0.7392085269717346,-1.3914944404877314
1.46807468869312,12.759847586385018,-0.04204585940547678,0.7215029008734468,-1.4260300760976994
1.4605601806287214,12.631563234656891,-0.041448674643396195,0.7038787849946097,-1.4605349374269192
1.4531508204695365,12.50644400359229,-0.04087754934754873,0.6863348935009804,-1.4948957179096138
1.4458420699794188,12.38447555813476,-0.04033078943153645,0.6688700560271319,-1.5289973811608006
1.4386296960030052,12.26564376315018,-0.03980669919528257,0.6514832215793003,-1.5627228338804116
1.4315097708238904,12.149934661517147,-0.03930358057265769,0.6341734632321719,-1.595952582527587
1.4244786726849552,12.037334451293521,-0.03881973208217758,0.6169399836969849,-1.6285643716682716
1.4175330865259295,11.927829461794289,-0.038353447462552905,0.5997821218500432,-1.6604328017455021
1.4106700049969363,11.821406128398628,-0.03790301397070453,0.5826993603239546,-1.6914289238589582
1.403886729811198,11.71805096588438,-0.03746671031527484,0.5656913342787939,-1.7214198089714132
1.3971808735053997,11.617750540065444,-0.03704280419359594,0.5487578414871495,-1.7502680887893838
1.390550361682477,11.52049143748188,-0.036629549394435953,0.531898853885804,-1.7778314654006857
1.3839934358189494,11.426260232863058,-0.03622518242253609,0.5151145307677917,-1.8039621866033249
1.3775086567274744,11.33504345405089,-0.03582791859385308,0.49840523381186563,-1.8285064837436091
1.3710949087752131,11.246827544032339,-0.03543594754238277,0.4817715441720242,-1.8513039688187216
1.3647514049700744,11.161598819687878,-0.035047428070270316,0.4652142818775396,-1.8721869876218973
1.3584776930401379,11.07934342681478,-0.03466048226235767,0.4487345278235397,-1.8909799258616924
1.3522736626468619,11.000047290931004,-0.03427318877404336,0.43233364866285295,-1.9074984655340812
1.34613955389038,10.923696063306728,-0.033883575186866195,0.4160133249401954,-1.9215487894567516
1.3400759672857594,10.850275061606723,-0.03348960930891832,0.3997755828376302,-1.9329267329149808
1.334083875413108,10.779769204458354,-0.03308918927609859,0.38362282992200597,-1.9414168829952039
1.3281646364727036,10.712162939188804,-0.032680132283950426,0.36755789529522,-1.9467916286454308
1.3223200100099783,10.647440161903798,-0.03226016174632899,0.3515840745381612,-1.9488101681525676
1.3165521751158114,10.585584129013707,-0.03182689263330531,0.33570517979618386,-1.9472174860608147
1.3108637514574513,10.526577359258773,-0.031377814681807156,0.3199255952586542,-1.9417433192713074
1.3052578235578767,10.470401525255703,-0.030910273091242828,0.3042503381087828,-1.9321011431466195
1.2997379688215311,10.417037333601098,-0.030421446201484074,0.2886851247201676,-1.9179872242847944
1.29430828990979,10.3664643926511,-0.02990831948452834,0.2732364413909289,-1.899079809184222
1.2889734522119072,10.318661067292933,-0.029367654936392287,0.25791161814427216,-1.8750385500422593
1.2837387273546217,10.27360432039401,-0.028795954589001298,0.24271890295487852,-1.8455043142549532
1.2786100439741874,10.231269541248295,-0.028189416304711765,0.22766753199752077,-1.8100995881159683
1.2735940473823015,10.191630362367675,-0.027543879160688067,0.21276778889826625,-1.7684297749538802
1.2686981703612843,10.15465846757338,-0.026854754406170155,0.19803104214945147,-1.7200858130041792
1.2639307182324504,10.120323396785736,-0.026116935914206923,0.183469744379922,-1.6646487106017582
1.2593009727254383,10.088592356533269,-0.02532468083037308,0.16909736953638488,-1.6016968293175227
1.254819321302315,10.05943005043586,-0.024471446093218222,0.15492825376816474,-1.5308170514391162
1.2504974218734088,10.032798551241015,-0.02354965867240749,0.14097729284121632,-1.4516213488000305
1.2463484179191988,10.008657245795398,-0.022550385263259805,0.12725943433232076,-1.3637706981840023
1.2423872268666383,9.986962896551624,-0.021462848654078447,0.11378889059850705,-1.2670086670399647
1.2386309365853037,9.967669876526195,-0.020273710027417322,0.1005779985729345,-1.1612070764204838
1.235099363161232,9.950730644872255,-0.018965994684489798,0.0876356864708448,-1.0464254111386784
1.2318158508525823,9.936096527568814,-0.017517475411616763,0.0749656169007167,-0.9229831188035194
1.22880843795322,9.923718832392304,-0.01589822347018556,0.06256432950495913,-0.7915381397599665
1.2261115834938243,9.913550224713823,-0.014066826078656561,0.05042020025593662,-0.6531544453392356
1.2237687907561945,9.905546066466488,-0.011964204339453338,0.0385148913811138,-0.5093264050964563
1.221836826114111,9.899664981183452,-0.009502069461473667,0.026830500652631442,-0.3619141470215467
1.2203934629637296,9.895866944414411,-0.006535298876096626,0.015369907892266558,-0.21294404376451986
1.2195566691635762,9.894103571551835,-0.002762410014496697,0.004223123914154886,-0.06426142949482416
