x,y,v_x,v_y,omega
2.375,32.48,0.0,3.5897435897435894,-6.408163265306122
2.3730709695912857,31.736564485812522,-0.018371718178229916,3.4905946406133235,-5.914057709624455
2.367622062347032,31.013423892158908,-0.03352263652895203,3.396458632278225,-5.477686076948866
2.3592723082239497,30.30956818374451,-0.04599883130992324,3.3069290669065388,-5.090392283583874
2.3485366144069633,29.624067775221775,-0.05624587170899773,3.221646252357605,-4.745049261551514
2.335844729843197,28.95606447076255,-0.06462921937449197,3.140289980587405,-4.435751611998075
2.3215564060460276,28.304763786056373,-0.07145005488426141,3.0625736832809163,-4.157577341509595
2.3059735956851872,27.669428380477576,-0.07695766283802928,2.988239703183822,-3.9064014974559016
2.2893503252441225,27.049372392417986,-0.08135919850544154,2.917055421193201,-3.678749214113296
2.271900727907128,26.443956518012826,-0.08482744279927118,2.848810049332151,-3.4716789763633225
2.2538056115789296,25.85258370820714,-0.08750699842166537,2.783311948817259,-3.2826892552313156
2.235217853522147,25.27469538501191,-0.08951926878578664,2.720386367327759,-3.109643364674052
2.216266849915299,24.709768097393265,-0.09096647985086026,2.6598735147545836,-2.9507086280567103
2.1970622003421116,24.157310552257726,-0.0919349446556868,2.601626915107673,-2.804306858361241
2.1776967700115963,23.616860967653228,-0.09249772515874598,2.5455119858875754,-2.6690738395063343
2.158249243624407,23.087984704458115,-0.09271681186210577,2.4914048064468486,-2.5438260107786093
2.1387862622308758,22.570272140095874,-0.0926449156953345,2.4391910446221017,-2.427532947151315
2.119364216681652,22.063336753639216,-0.09232694667821917,2.3887650168698746,-2.319294527271511
2.1000307572424552,21.56681339638334,-0.09180123845699165,2.3400288617575296,-2.218321911299332
2.08082606779412,21.080356725819428,-0.09110056581286753,2.2928918102797287,-2.123921629489987
2.0617839441337202,20.603639784109856,-0.09025299285760671,2.247269539335222,-2.035482221870174
2.042932708747412,20.136352704796153,-0.0892825822500914,2.2030835969857807,-1.9524629788205625
2.0242959886681304,19.678201533666744,-0.088209989933543,2.160260889960973,-1.874384418753984
2.0058933783729005,19.228907151557237,-0.08705296525912433,2.1187332253676514,-1.8008202075908613
1.987741005890883,18.78820428841613,-0.08582677266484807,2.0784368997857574,-1.7313902793378795
1.9698520172087892,18.35584061929503,-0.08454454811699884,2.0393123299389777,-1.665754960796376
1.9522369915369095,17.93157593405529,-0.0832176011389975,2.0013037199633343,-1.6036099385864293
1.9349042979277562,17.51518137355491,-0.08185567132912935,1.9643587609926536,-1.5446819350658731
1.9178604020336658,17.10643872591753,-0.08046714670982838,1.9284283593633298,-1.488724982744513
1.9011101303808462,16.70513977720996,-0.07905924998369074,1.8934663902325755,-1.4355172055308323
1.8846568983701482,16.31108571148435,-0.07763819773724301,1.8594294738208745,-1.3848580304549687
1.8685029072450976,15.924086555689566,-0.0762093367870499,1.826276771843716,-1.3365657660601968
1.852649314459837,15.543960665435929,-0.07477726116781133,1.7939698020004522,-1.2904754939777117
1.8370963812047811,15.170534248017859,-0.07334591268986446,1.7624722686478225,-1.2464372287190195
1.8218436002826444,14.803640919468865,-0.07191866752096197,1.7317499080092578,-1.2043143077740586
1.8068898070530734,14.44312129274915,-0.07049841085590428,1.7017703464642266,-1.1639819799614277
1.7922332757648674,14.088822594454331,-0.06908760141272621,1.672502970629282,-1.1253261648569317
1.7778718032580412,13.740598307689016,-0.06768832722371369,1.6439188080879947,-1.0882423602032176
1.7638027817333453,13.398307838975622,-0.06630235396386465,1.6159904177538342,-1.0526346776183189
1.7500232620457215,13.061816207270567,-0.0649311668706491,1.5886917889609724,-1.0184149897895693
1.7365300087734838,12.730993753339767,-0.06357600715066297,1.5619982484752033,-0.9855021747553593
1.7233195481409072,12.4057158679061,-0.06223790363578027,1.535886374702575,-0.9538214449172273
1.7103882097235121,12.085862737125233,-0.06091770033941042,1.5103339184485531,-0.9233037501516003
1.6977321627386348,11.77131910407521,-0.05961608046894568,1.4853197296469074,-0.8938852458557403
1.6853642789604035,11.46197649681476,-0.058173288847540285,1.4608003395002538,-0.8609212738977823
1.6732957663664112,11.157730401843228,-0.05676492633334149,1.4367815173714673,-0.8295102701650037
1.6615194355275849,10.858477627817063,-0.05539060546500305,1.4132449019253397,-0.799560291425229
1.6500281861930532,10.564118748229617,-0.05404986438768112,1.3901729989074831,-0.7709858728798572
1.6388150215241377,10.27455792472082,-0.05274218007818118,1.3675491297477276,-0.7437074993554119
1.6278730597396307,9.989702740799029,-0.05146697977426493,1.3453573837931574,-0.7176511254066388
1.617195543524691,9.709464045244108,-0.05022365084420972,1.32358257387277,-0.6927477392868978
1.606775847509449,9.433755804520487,-0.0490115493009528,1.302210194923611,-0.6689329663143104
1.5966074840833753,9.162494963583022,-0.04783000713784367,1.2812263854331936,-0.646146707663961
1.5866841077767524,8.895601314507623,-0.0466783386395161,1.2606178914753692,-0.6243328110569144
1.5769995184104852,8.632997372423336,-0.04555584580112467,1.2403720331368842,-0.6034387702040027
1.5675476631893388,8.374608258263223,-0.04446182297169899,1.2204766731499057,-0.5834154502032193
1.5583226378909736,8.120361587888468,-0.043395560822255506,1.2009201875620372,-0.5642168363901282
1.5493186872833822,7.870187367174005,-0.042356349726233755,1.1816914382899837,-0.5457998044061033
1.5405302048861347,7.62401789267485,-0.04134348262850329,1.162779747416241,-0.5281239094838992
1.5319517321758576,7.381787657520633,-0.0403562574693746,1.1441748731001227,-0.5111511931578807
1.5235779573233124,7.143433262211669,-0.03939397922153258,1.1258669869852407,-0.4948460057905085
1.5154037135380578,6.908893330013708,-0.038455961590415866,1.1078466529953452,-0.4791748434702971
1.5074239770867397,6.678108426670171,-0.03754152842213647,1.090104807419303,-0.4641061979819232
1.4996338650423842,6.451020984170768,-0.03665001485744043,1.0726327401940525,-0.44961041867864726
1.4920286328144923,6.227575228333713,-0.0357807682653391,1.0554220773017056,-0.43565958520262105
1.4846036715031232,6.007717109975655,-0.03493314898579537,1.0384647642036204,-0.4222273901016411
1.4773545051143642,5.791394239459038,-0.03410653090714659,1.0217530502403551,-0.40928903048291937
1.470276787669539,5.578555824420945,-0.033300301900714084,1.005279473931939,-0.3968211079267449
1.4633663002360802,5.369152610500706,-0.03251386413222665,0.9890368491179582,-0.3848015359566126
1.4566256881074557,5.16327944501597,-0.03168244185467343,0.9716599650223822,-0.40048070146819126
1.4500553689671072,4.9610433279731545,-0.030892026148645415,0.9543982925282373,-0.4181146584144887
1.4436467981709984,4.76242040334089,-0.0301419814333442,0.9372486087314342,-0.43758946738385907
1.4373915721423827,4.567387478515176,-0.02943159979156756,0.9202078181801239,-0.4587943401395823
1.4312814428017981,4.375921998117164,-0.028760108213998405,0.9032729475152439,-0.48162138887444944
1.4253083305400156,4.188002018871568,-0.028126675231549825,0.8864411405380461,-0.505965383724432
1.4194643358577579,4.003606185478034,-0.027530416980428223,0.86970965368609,-0.5317235175480078
1.4137417497870302,3.822713707391312,-0.026970402740789663,0.8530758519017538,-0.558795177007725
1.4081330632006832,3.6453043364292483,-0.026445659986321982,0.8365372048798216,-0.5870817190138421
1.4026309751093498,3.4713583451301346,-0.025955178978759784,0.8200912836831687,-0.616486251606498
1.3972284000380686,3.3008565057830097,-0.025497916938204922,0.8037357577180325,-0.6469134183628542
1.3919184745687554,3.1337800700560194,-0.0250728018171574,0.7874683920628301,-0.678269185418997
1.3866945631291037,2.9701107491489864,-0.02467873570333647,0.7712870451470132,-0.7104606301929512
1.3815502631035184,2.809830694396748,-0.024314597873666417,0.7551896667790526,-0.7433957308847953
1.3764794093372679,2.652922478249785,-0.023979247519193066,0.7391742965253657,-0.7769831558122847
1.3714760781011457,2.4993690755579117,-0.023671526158162877,0.7232390624448637,-0.8111320516153027
1.3665345905805772,2.349153845081581,-0.02339025975201375,0.707382180186856,-0.8457518293294145
1.3616495159502757,2.202260511153309,-0.02313426053657191,0.6916019524633384,-0.8807519472873547
1.3568156740932142,2.058673145409081,-0.022902328578298742,0.6758967689102761,-0.9160416897568254
1.352028138020882,1.918376148506077,-0.022693253062959596,0.660265106356411,-0.9515299401628984
1.3472822360505068,1.7813542317387956,-0.022505813321567297,0.644705529522467,-0.9871249476728411
1.3425735537941772,1.6475923984602012,-0.022338779595857738,0.6292166921784367,-1.0227340858395275
1.3378979360146126,1.517075925208303,-0.022190913542853234,0.6137973387920369,-1.0582636019058476
1.333251488402714,1.389790342430853,-0.02206096847522794,0.5984463067074735,-1.0936183552657694
1.328630579333042,1.2657214146920168,-0.021947689331172575,0.5831625289005056,-1.1287015434569543
1.3240318416550254,1.1448551202342898,-0.02184981236422274,0.5679450373635554,-1.1634144139241107
1.3194521745800798,1.0271776297568564,-0.021766064540022223,0.5527929671834211,-1.1976559596407272
1.3148887457279426,0.9126752842572579,-0.021695162623190146,0.5377055613841978,-1.2313225965086798
1.3103389933995118,0.8013345717668727,-0.021635811933293427,0.5226821766194677,-1.2643078202700577
1.3058006291483613,0.6931421027916826,-0.02158670474433123,0.5077222898109143,-1.2965018404634139
1.3012716407290168,0.5880845842477598,-0.02154651829704474,0.49282550584548124,-1.327791188738334
1.2967502955071193,0.48614879165565483,-0.02151391238769309,0.4779915664602948,-1.3580582986096965
1.2922351444248994,0.38732153932859603,-0.021487526490590884,0.46322036046408765,-1.3871810534899396
1.2877250266251068,0.29158964825592903,-0.021465976364576412,0.44851193546609397,-1.4150322995903064
1.283219074847844,0.19893991134458133,-0.02144785008554423,0.433866511308621,-1.4414793200402816
1.2787167217278637,0.1093590556372348,-0.021431703438078875,0.4192844954280095,-1.4663832663535226
1.274217707135033,0.022833701075221313,-0.021416054588881298,0.40476650040066064,-1.489598543191406
1.2697220867181507,-0.06064968468330534,-0.02139937795285398,0.390313363966286,-1.5109721422757416
1.2652302418324448,-0.14110483594499357,-0.021380097149106266,0.3759261718593399,-1.5303429213299085
1.2607428910543104,-0.21854574379143799,-0.02135657692836473,0.3616062838211118,-1.5475408241548663
1.2562611035136793,-0.2929867167294873,-0.02132711393478902,0.347355363207929,-1.5623860384778032
1.2517863143054853,-0.3644424479848851,-0.02128992614324993,0.3331754106530223,-1.574688089197724
1.247320342277847,-0.43292809034252855,-0.021243140786639844,0.31906880227688356,-1.584244866312028
1.242865410536959,-0.4984593395431247,-0.021184780555150138,0.30503833296688543,-1.5908415894554098
1.2384241700588032,-0.5610525273560185,-0.021112747808237804,0.29108726525116035,-1.5942497150706119
1.2339997268578589,-0.6207247255544743,-0.021024806486470225,0.2772193842579132,-1.594225798414218
1.2295956732362132,-0.6774938621127404,-0.020918561338725494,0.26343905915414983,-1.5905103318254774
1.2252161237276362,-0.731378851006049,-0.02079143398105602,0.24975131125832442,-1.5828265943196878
1.2208657564676109,-0.7823997369975046,-0.020640635162043456,0.23616188866030421,-1.5708795675879246
1.216549860873416,-0.8305778566966424,-0.020463132401716946,0.2226773465695475,-1.5543550027504263
1.2122743927261317,-0.8759360169058894,-0.020255611858134372,0.20930513161376224,-1.5329187648418736
1.208046038037665,-0.9184986907315107,-0.020014432793929313,0.19605366672550986,-1.5062166439084657
1.2038722875069836,-0.9582922309706987,-0.019735572260179142,0.18293243079054775,-1.473874911145889
1.1997615239960548,-0.9953450986681034,-0.019414556415333687,0.16995202347045577,-1.4355020273709531
1.1957231264105368,-1.0296881021299527,-0.01904637297055269,0.15712419997571003,-1.3906920950306974
1.1917675948542763,-1.0613546376196084,-0.018625356136690994,0.14446185230673939,-1.339030903898752
1.1879067042692755,-1.090380916795688,-0.018145030387125644,0.13197890175118782,-1.2801057770247644
1.1841536975104072,-1.1168061568932046,-0.017597891125906207,0.11969005155850156,-1.213520895145075
1.1805235348041516,-1.1406726968538337,-0.016975087028908677,0.10761032901893641,-1.138920357956815
1.1770332261879832,-1.1620259856167934,-0.01626594741079075,0.09575432586637525,-1.0560218510642156
1.1737022889971083,-1.1809143685392343,-0.015457263930876082,0.08413503529969474,-0.9646641765213744
1.1705533971311497,-1.197388579137332,-0.014532182411586008,0.0727622084917076,-0.8648714550765454
1.167613328017313,-1.2115008391117286,-0.013468475815428501,0.06164026745489751,-0.7569342380669846
1.1649143763022334,-1.2233035091616244,-0.0122358262329503,0.0507661139726758,-0.6415008822142171
1.1624965121888011,-1.2328473720864253,-0.010791451037832809,0.04012781864445831,-0.519658711727789
1.160410786534963,-1.240179961857244,-0.00907260280824459,0.029706369649067296,-0.3929634090333022
1.1587250993904852,-1.2453450516562299,-0.006981560472497958,0.019484961769834983,-0.2633547004401623
1.1575357977364522,-1.2483861401087282,-0.0043451219468626755,0.00947778539682649,-0.13289620381805883
1.1570033289757817,-1.249365567596051,-0.0007260091071424595,-0.00014990456516649799,-0.0033622499115834037
