x,y,v_x,v_y,omega
2.375,32.48,0.0,3.6923076923076925,-2.612244897959184
2.3743991143738397,31.82361355582923,-0.006676506957336447,3.600875020700826,-2.4333722749928723
2.372691942974944,31.183327746356017,-0.012292064141504869,3.5134117512237752,-2.27293709822345
2.3700548749507613,30.558452212495165,-0.017008691682745616,3.429649736119024,-2.128490096408554
2.3666375421320636,29.948342690982905,-0.02096167296945499,3.3493449473505073,-1.9979646676754248
2.3625671974617686,29.352396919879272,-0.024264378922709832,3.272274731578763,-1.879609267015965
2.3579523103804503,28.770051003585213,-0.027012144203050297,3.1982354494663254,-1.7719330186155315
2.3528855316702737,28.200776174048066,-0.029285397021131938,3.1270404342797757,-1.6736617281980832
2.347446148113654,27.644075895359645,-0.031152198052420976,3.058518217813791,-1.5837021232493553
2.341702122469093,27.09948326740514,-0.03267030910937099,2.9925109816807005,-1.5011126396685497
2.3357117949329123,26.566558691073112,-0.03388888573707871,2.928873199786282,-1.4250794450565114
2.3295253071297237,26.044887763139826,-0.03484986763168229,2.8674704439168837,-1.3548966723114193
2.3231857977768526,25.534079373559024,-0.035589125177996624,2.808178329203135,-1.289950054813505
2.3167304097619255,25.033763981721805,-0.036137408321194935,2.7508815800993034,-1.2297033225649228
2.3101911409007183,24.543592051454866,-0.03652113458110849,2.6954732006444826,-1.1736868492361263
2.3035955646793167,24.063232627218408,-0.03676304565668589,2.6418537353161557,-1.1214881420810854
2.2969674425050646,23.592372036241482,-0.03688275627944959,2.5899306088719185,-1.0727438467902566
2.2903272451437915,23.13071270326641,-0.036897214401362836,2.5396175352955326,-1.0271330025696939
2.2836925979120815,22.677972066224573,-0.0368210881731894,2.4908339873915635,-0.9843713328646352
2.277078661671558,22.23388158258048,-0.036667092277071794,2.4435047197650066,-0.9442063970776218
2.2704984596189837,21.798185817298588,-0.036446263862643734,2.397559338922689,-0.9064134605782898
2.263963158188432,21.37064160443864,-0.03616819647681737,2.352931915076756,-0.8707919659681045
2.2574823090064715,20.951017275296685,-0.03584123887830118,2.3095606309449837,-0.8371625092664285
2.2510640577100918,20.53909194680111,-0.03547266441480523,2.267387463450266,-0.8053642414488457
2.244715324503737,20.13465486456395,-0.03506881565580674,2.2263578947404103,-0.7752526293946025
2.2384419605593115,19.737504795591864,-0.034635228171140654,2.186420649393883,-0.7466975214148684
2.232248883721842,19.347449466191073,-0.03417673668963153,2.1475274550593415,-0.719581471631571
2.2261401964497103,18.964305041066154,-0.033697566334055275,2.1096328241064444,-0.6937982849488081
2.220119288472877,18.58789564002302,-0.03320141118631356,2.072693854150604,-0.6692517505157718
2.2141889262796473,18.218052889048906,-0.032691502071794144,2.0366700455617734,-0.6458545366692248
2.2083513312296814,17.854615502862917,-0.03217066515005096,2.0015231342825754,-0.623527224562889
2.202608247827804,17.49742889631529,-0.0316413726485841,1.967216938468802,-0.6021974611996196
2.1969610034712845,17.146344822266457,-0.031105786868298305,1.933717217629391,-0.5817992155080736
2.1914105607957315,16.801221033802,-0.030565798415627024,1.9009915430867956,-0.5622721235522812
2.185957563585916,16.461920968840744,-0.030023059471212702,1.8690091787049274,-0.5435609110141005
2.1806023770829954,16.12831345537243,-0.02947901278346193,1.837740970942991,-0.5256148828132934
2.175345123404896,15.800272435722327,-0.028934916973192684,1.807159247391521,-0.508387471183686
2.170185712698841,15.477676708384074,-0.0283918686496464,1.7772377230335195,-0.4918358347521835
2.1651238705614655,15.160409686091537,-0.027850821765632774,1.7479514135502385,-0.4759205022077764
2.1601591621905136,14.848359168916694,-0.027312604578276625,1.7192765550591205,-0.4606050550309203
2.1552910136707775,14.541417131285513,-0.02677793452990338,1.6911905297317855,-0.44585584450525084
2.1505187307443303,14.239479521898222,-0.026247431319512134,1.663671796793686,-0.43164173887456
2.1458415153697734,13.942446075625845,-0.025721628397783667,1.6366998284549292,-0.4179338970557811
2.141258480336178,13.650220136532095,-0.02520098308660996,1.610255050364514,-0.4047055657879384
2.1367686621636675,13.36270849123963,-0.024685885496841795,1.5843187862184434,-0.391931897499722
2.1323710324934373,13.079821211923196,-0.024176666394607263,1.5588732061863868,-0.37958978652468356
2.128064508144733,12.80147150826972,-0.02367360414654985,1.5339012788522444,-0.3676577215914781
2.1238479599943987,12.527575587797784,-0.02317693085716319,1.509386726391507,-0.35611565277423785
2.119720220815557,12.258052523976573,-0.02268683779663456,1.485313982733069,-0.3449448713110336
2.1156826151461106,11.992824429841185,-0.0221754474194354,1.4616648409934532,-0.33339413993447564
2.1117360641241825,11.731816024831314,-0.02167511949088025,1.438428548005105,-0.32232732770796335
2.107878588598825,11.474954226245835,-0.02118571967975258,1.415591436277986,-0.3117187683870307
2.1041082351406577,11.222168360150285,-0.020707096522108025,1.3931404092281092,-0.3015444135792977
2.100423078865245,10.97339006132093,-0.02023908431581047,1.3710629110980315,-0.291781714445429
2.0968212257679824,10.728553178434154,-0.01978150565377907,1.3493468987550306,-0.2824095132079219
2.093300814631598,10.487593684175405,-0.019334173639379473,1.3279808152310912,-0.27340794356038245
2.089860018560069,10.25044958996541,-0.018896893822052556,1.306953564879971,-0.26475833916242547
2.0864970461862886,10.017060865022906,-0.01846946588661852,1.2862544900367363,-0.2564431494875299
2.083210142595186,9.787369359502907,-0.01805168512563104,1.2658733490743668,-0.24844586236433633
2.079997589999025,9.561318731467779,-0.017643343720606473,1.2458002957604062,-0.24075093261706226
2.0768577081972337,9.338854377465157,-0.017244231854848663,1.226025859824269,-0.2333437162688728
2.0737888548492887,9.119923366502224,-0.016854138677872513,1.2065409286527815,-0.22621040982399623
2.070789425585766,8.904474377220062,-0.01647285313904823,1.1873367300378928,-0.21933799419083558
2.0678578539797114,8.692457638085084,-0.016100164706000068,1.1684048159063014,-0.21271418284992427
2.06499261139784,8.483824870426574,-0.015735863981460395,1.1497370469660564,-0.20632737390785907
2.0621922067487484,8.278529234160722,-0.015379743230669589,1.1313255782100617,-0.2001666057117991
2.0594551861432886,8.076525276051939,-0.01503159682999651,1.1131628452208664,-0.1942215157291721
2.05678013248043,7.877768880371793,-0.014691221646208468,1.0952415512252134,-0.18848230242425276
2.054165664970346,7.6822172218249705,-0.01435841735472256,1.0775546548505754,-0.1829396898876032
2.051610438605043,7.489828720619876,-0.014032986704203537,1.0600953585393473,-0.17758489499628416
2.0491131435856027,7.300562999569177,-0.013714735734020808,1.0428570975795397,-0.1724095969025159
2.0466725047140115,7.114380843112784,-0.01340347395032493,1.0258335297137313,-0.1674059086663156
2.044287280756557,6.931244158162382,-0.013099014465839623,1.0090185252907238,-0.16256635086376955
2.0419562637849222,6.751115936672804,-0.01280117410787849,0.9924061579268153,-0.1578838270171885
2.039680768968671,6.5741774991652875,-0.012482101628242951,0.9735764810455926,-0.2010634831235593
2.037459090388336,6.4006194048094365,-0.012203215931036165,0.954846789574988,-0.24530013562979475
2.035284112693139,6.230423877505103,-0.011963202904486988,0.9362146249175984,-0.2904979971347883
2.0331489584701674,6.06357357533026,-0.011760732906306743,0.9176776214695485,-0.3365624346246513
2.031046990796565,5.900051573997388,-0.011594463467051338,0.899233504451254,-0.3833997616944267
2.0289718153331187,5.739841350671064,-0.01146304168235754,0.8808800880634465,-0.43091703065151105
2.0269172820137458,5.58292676808794,-0.011365106310675296,0.8626152739712547,-0.47902182356975215
2.024877486382626,5.429292058919561,-0.01129928959065172,0.8444370501218528,-0.5276220413292665
2.0228467706283784,5.278921810317225,-0.011264218789880013,0.826343489904092,-0.5766256896346822
2.0208197243628034,5.131800948576306,-0.011258517494283282,0.808332751661693,-0.6259406609530743
2.018791185190274,4.987914723854999,-0.011280806644932768,0.790403078575034,-0.6754745112515339
2.0167562391128384,4.847248694879511,-0.011329705326574338,0.7725527989303881,-0.7251342303421833
2.0147102208155894,4.709788713563803,-0.011403831309526291,0.7547803267997099,-0.7748260045584742
2.0126487138767826,4.575520909467535,-0.01150180134388295,0.7370841631588212,-0.8244549703895968
2.010567550947646,4.444431674010293,-0.011622231202076456,0.7194628974771983,-0.8739249575884502
2.00846281394781,4.3165076443536705,-0.011763735462774256,0.701915209818617,-0.9231382201413872
2.00633083432384,4.191735686855104,-0.011924927025778267,0.6844398734987945,-0.971995153343208
2.0041681934205604,4.070102879988351,-0.012104416343994824,0.6670357583540212,-1.0203939950568328
2.0019717230176863,3.9515964966149504,-0.012300810354607356,0.6497018346837651,-1.0682305090518087
1.9997385060879196,3.836203985478761,-0.012512711087244749,0.6324371779405625,-1.1153976481072645
1.997465877837076,3.723912951781397,-0.01273871392212755,0.6152409742523881,-1.161785194331048
1.9951514270921615,3.614711136679805,-0.012977405465812593,0.5981125268764076,-1.207279373885535
1.9927929981096844,3.508586395528031,-0.013227361006154029,0.5810512636988523,-1.2517624430201728
1.9903886928840089,3.4055266746628696,-0.013487141501352686,0.5640567459140619,-1.295112241989823
1.9879368740443548,3.3055199865072815,-0.013755290050358436,0.5471286780369305,-1.3372017130857776
1.9854361684393267,3.208554382735482,-0.014030327783287186,0.5302669194275096,-1.3778983786236076
1.9828854715197624,3.1146179252088686,-0.014310749100759574,0.5134714975348692,-1.417063774321473
1.9802839526444957,3.0236986543517226,-0.014595016179982217,0.4967426231000673,-1.4545528330699828
1.9776310614495487,2.9357845545890946,-0.014881552652763665,0.48008070759578925,-1.4902132136507487
1.9749265354396386,2.850863516415359,-0.01516873634623707,0.4634863832235157,-1.5238845685230122
1.9721704089820276,2.76892329459978,-0.015454890960551713,0.446960525838483,-1.5553977443943194
1.969363023907083,2.6899514619637372,-0.015738276538831555,0.4305042812286486,-1.5845739089656703
1.966505041947934,2.613935358081875,-0.016017078562825336,0.41411909523649415,-1.61122359706018
1.9635974592838725,2.5408620321652613,-0.016289395482302505,0.3978067482814229,-1.6351456694065842
1.960641623489371,2.4707181792776325,-0.01655322445660155,0.3815693949144684,-1.656126177803307
1.9576392532336209,2.403490068915133,-0.016806445051733673,0.3654096091132911,-1.6739371314554397
1.954592461125456,2.3391634648460418,-0.01704680059454289,0.34933043609882813,-1.6883351612814546
1.9515037801568567,2.2777235349606677,-0.017271876834338434,0.33333545151645055,-1.6990600824098767
1.948376194266887,2.21915474972689,-0.017479077498658794,0.31742882885887425,-1.705833360639074
1.9452131736296936,2.163440767690446,-0.01766559624793309,0.30161541599049463,-1.7083564973662226
1.9420187153691275,2.1105643063142097,-0.017828384425025965,0.28590082152323126,-1.7063093609587876
1.9387973905247582,2.06050699633953,-0.017964113845742594,0.27029151152874614,-1.6993485130464283
1.935554398249078,2.0132492178123655,-0.018069133661817408,0.254794916550861,-1.6871056091675114
1.9322956284186616,1.9687699160073961,-0.018139420009474088,0.23941954794879725,-1.6691859996740606
1.9290277341176656,1.9270463958006907,-0.01817051666826,0.22417512101460113,-1.6451677262710238
1.9257582158409159,1.888054093736681,-0.01815746418451244,0.20907267969660362,-1.614601213066381
1.922495519833959,1.8517663283429542,-0.018094713670564786,0.19412471356702105,-1.5770101046113232
1.9192491538532894,1.818154031525232,-0.017976019447987917,0.17934525107434562,-1.5318939301167351
1.9160298249858674,1.7871854676624217,-0.017794301301144465,0.16474990295686578,-1.4787336046628574
1.9128496063437788,1.7588259530977304,-0.017541461388727725,0.15035581442858187,-1.4170012560159275
1.9097221430110785,1.733037598161122,-0.017208131196833145,0.13618146264483016,-1.3461765360071198
1.9066629135224604,1.7097791080007951,-0.016783307565589253,0.12224620580325248,-1.2657724715859087
1.9036895730094108,1.6890056986617132,-0.016253809246072868,0.10856945351986916,-1.1753749996448593
1.9008224206397082,1.6706692113451744,-0.015603439306177785,0.09516929444165857,-1.0747013800974683
1.8980850614941314,1.6547185373850972,-0.014811662311343362,0.08206041622586299,-0.963682972940878
1.8955053787621159,1.6411004866551728,-0.01385147915549504,0.06925125855107896,-0.8425756429068606
1.893117008605569,1.6297612098842968,-0.012685967028356827,0.05674070556977934,-0.7120927997109735
1.8909616440650563,1.6206481496166951,-0.011262527866230042,0.044515519625813654,-0.5735364610395692
1.8890927671356983,1.6137121140976411,-0.009502771348860321,0.03255154169699696,-0.4288671371169586
1.8875821494452296,1.608908198820771,-0.007281869656346442,0.02082529471267259,-0.2806129786357371
1.886533402087407,1.6061920557032678,-0.004370878763906545,0.009354073259566966,-0.13150623104850434
1.8861276508196352,1.6054956209823104,-0.00013746865577779575,-0.0016159096933872335,0.016108285519108395
