x,y,v_x,v_y,omega
2.375,32.48,0.0,2.4615384615384617,-6.8979591836734695
2.3740423566858477,32.041176919785684,-0.010640481268359106,2.4142735408428058,-6.5652973320289965
2.3712791535103377,31.61072966280642,-0.020061776237306872,2.368473758926775,-6.255890704936325
2.3669180361599955,31.188401804352935,-0.02839508321094016,2.3240580016675123,-5.967562043119822
2.361144437679981,30.773950918653952,-0.03575601101144052,2.280951839432305,-5.698381686191276
2.354124195088628,30.36714744503555,-0.04224668444803762,2.2390867563277315,-5.446634644631268
2.346005816312605,29.967773682559933,-0.04795752417444197,2.1983994934013174,-5.2107927091731465
2.3369224508617465,29.575622894435565,-0.05296875861287549,2.1588314857583435,-4.989490720649063
2.326993608326284,29.190498506738543,-0.05735171400337762,2.12032837754189,-4.781506295305699
2.3163266612980777,28.812213388594316,-0.06116991964335735,2.0828396018384385,-4.58574243500721
2.305018163277774,28.440589203077025,-0.06448005836001577,2.046318015020348,-4.40121255762529
2.2931550072196885,28.07545581979752,-0.06733278672982264,2.0107195769741257,-4.227027566932646
2.2808154463484374,27.716650781551376,-0.06977344517296842,1.9760030702052644,-4.062384648436848
2.2680699955738084,27.364018818548924,-0.0718426745451326,1.9421298520441965,-3.906557531557468
2.254982229092238,27.017411404699608,-0.07357695302786957,1.9090636351704062,-3.758888002199262
2.241609487484665,26.67668635121159,-0.07500906483405283,1.8767702924742542,-3.618778485279173
2.228003505715131,26.34170743342537,-0.07616851038299374,1.845217682928169,-3.485685545797983
2.2142109718339915,26.01234404735142,-0.07708186607410882,1.8143754956712923,-3.3591141809066243
2.20027402483953,25.688470892845647,-0.077773100531021,1.7842151099484014,-3.2386127951165515
2.1862306990084863,25.36996768074895,-0.07826385314723958,1.754709468903794,-3.123768767140299
2.172115321034339,25.05671886165003,-0.0785736798988426,1.7258329655286475,-3.0142045304529663
2.157958865483476,24.74861337421474,-0.07872027066630388,1.6975613393078837,-2.909574101039359
2.143789273370432,24.44554441126831,-0.07871964170085036,1.669871582319169,-2.8095599953360177
2.129631738044975,24.147409202025703,-0.07858630635977905,1.6427418537097818,-2.7138704894148753
2.1155089620602956,23.854108809045776,-0.07833342680332793,1.6161514016227312,-2.6222371772463244
2.1014413882398415,23.565547938640748,-0.07797294897949601,1.5900804917665023,-2.5344127916355146
2.087447407769636,23.281634763608324,-0.07751572291167995,1.564510341927078,-2.450169256319188
2.073543547804148,23.002280757272022,-0.07697161003818134,1.5394230618096003,-2.3692959418824557
2.059744640779445,22.727400537918605,-0.07634957912519164,1.514801597672786,-2.291598101721652
2.046063977371002,22.456911722812485,-0.07565779207972291,1.4906296812841209,-2.2168954673365895
2.032517261466853,22.190741144552533,-0.07486127352193635,1.466821188270899,-2.1422867918202866
2.0191173744609765,21.928818064638364,-0.07402635987669165,1.4434352552198417,-2.0708392591906066
2.005870774794524,21.67106771339232,-0.07315808086166947,1.4204575364029142,-2.0023832001966086
1.992783058504213,21.417417847018662,-0.07226098903067532,1.3978743121932764,-1.9367597825989749
1.9798590411090173,21.167798638072725,-0.07133920424927488,1.3756724538726464,-1.873820206674656
1.96710283188246,20.922142572047733,-0.07039645382358614,1.3538393908495145,-1.8134249686390886
1.954517901252113,20.68038434966312,-0.0694361087358247,1.3323630800906012,-1.7554431855587438
1.9421071419908496,20.442460794472144,-0.06846121638932492,1.3112319775869306,-1.6997519760011237
1.929872924795917,20.20831076543697,-0.06747453022103668,1.2904350116927714,-1.6462358912658552
1.9178171487910127,19.977875074147455,-0.06647853650012213,1.2699615581907422,-1.5947863925690853
1.9059412874323112,19.751096406384804,-0.06547547859655949,1.2498014169498082,-1.5453013700224028
1.8942464302510502,19.527919247754376,-0.0644673789730075,1.2299447900549227,-1.4976846996643183
1.8827333208221322,19.30828981313263,-0.06345605912608329,1.2103822612978319,-1.4518458351732775
1.8714023913096554,19.092155979692283,-0.06244315767921473,1.1911047769282375,-1.4076994312217619
1.8602537939058092,18.87946722328715,-0.06143014680796384,1.1721036275732113,-1.36516499572604
1.8492874294487063,18.67017455799391,-0.06041834715984668,1.1533704312405875,-1.3241665685097344
1.8385029734770681,18.464230478622635,-0.05940894141390991,1.1348971173291356,-1.2846324241352167
1.827899899954879,18.261588906021288,-0.05840298661041223,1.1166759115747027,-1.2464947968681228
1.8174775028768506,18.06220513501151,-0.05740142536768158,1.098699321867298,-1.2096896259297538
1.8072349159455348,17.86603578480431,-0.05640509609138459,1.0809601248793346,-1.1741563193622888
1.7971711304929303,17.673038751754675,-0.05541474227088568,1.0634513534499985,-1.139837534984679
1.787285011803236,17.483173164323418,-0.05443102094794301,1.0461662846750444,-1.1066789770547543
1.7775753139788106,17.296399340123692,-0.05345451043455814,1.0290984286552423,-1.0746292073770871
1.7680406934782678,17.112678744937295,-0.05248571734925296,1.0122415178602955,-1.0436394697080098
1.7586797214437486,16.93197395359372,-0.05152508303429181,0.995589497068313,-1.0136635264101685
1.7494982147271063,16.75448226242913,-0.0504916582617355,0.976540404760484,-1.0357915202827002
1.7404987225818318,16.58040937435169,-0.04950269890798305,0.9576027960999449,-1.0594686365643264
1.7316733559592161,16.409735478082,-0.048556930232188496,0.9387738291188741,-1.0845762672369466
1.7230144586672766,16.242441263028606,-0.04765303967825126,0.9200507825854732,-1.1109978360221564
1.7145146137852594,16.078507897854653,-0.046789681233052466,0.9014310526806786,-1.1386185391378851
1.7061666493315797,15.917917009603705,-0.045965479363389065,0.882912150107609,-1.1673250891878733
1.6979636432586944,15.760650663307217,-0.04517903255755722,0.8644916976311465,-1.1970054610887637
1.68989892784399,15.606691341996068,-0.04442891649471539,0.84616742804827,-1.227548638930885
1.6819660935418466,15.456021927038343,-0.04371368686243223,0.8279371825931319,-1.2588443626519634
1.6741589923586122,15.308625678724361,-0.04303188184017115,0.8097989097844227,-1.2907828733777829
1.6664717408092493,15.16448621701839,-0.042382024263860764,0.7917506647263612,-1.3232546562498873
1.6588987225119307,15.02358750239393,-0.041762623484123795,0.7737906088787231,-1.3561501795174422
1.6514345904748249,14.885913816666427,-0.041172176928163405,0.7559170103157518,-1.389359628617925
1.6440742691277461,14.751449743733133,-0.040609171372710126,0.7381282444986331,-1.4227726339089233
1.6368129561502514,14.620180150125016,-0.040072083932788244,0.7204227955915438,-1.4562779906405248
1.6296461241471498,14.49209016526963,-0.039559382768340284,0.702799258357182,-1.4897633696740908
1.6225695222222862,14.367165161356802,-0.039069527507921906,0.6852563406742554,-1.5231150173581722
1.6155791775018589,14.245390732690712,-0.038600969385715216,0.66779286672673,-1.5562174428655904
1.608671396659497,14.126752674402248,-0.03815215108497073,0.6504077809228673,-1.588953091177072
1.6018427674968623,14.01123696038417,-0.037721506277638414,0.633100152611314,-1.6212019997663247
1.5950901606357037,13.898829720298682,-0.03730745884634372,0.615869181671905,-1.652841436899546
1.5884107313801468,13.789517215491859,-0.036908421770956365,0.5987142050705629,-1.683745519310088
1.5818019218115646,13.683285813632228,-0.03652279565773471,0.5816347044808814,-1.713784806848283
1.5752614631827777,13.580121961870862,-0.03614896688434337,0.5646303150898535,-1.7428258715404121
1.5687873786835889,13.480012158297804,-0.035785305328865216,0.5477008357219275,-1.7707308383244074
1.562377986655925,13.382942921443743,-0.035430161645176414,0.5308462404343066,-1.7973568945705687
1.556031904344203,13.288900757546497,-0.03508186404062291,0.5140666917573102,-1.8225557653543136
1.5497480522751235,13.197872125268429,-0.034738714504706746,0.49736255577676713,-1.8461731513407011
1.5435256593710625,13.109843397513245,-0.03439898442930588,0.48073441928081656,-1.868048126090042
1.5373642689127793,13.024800819948084,-0.034060909551616565,0.46418310922099093,-1.8880124896328836
1.53126374548051,12.942730465789197,-0.03372268414026435,0.4477097147666279,-1.9058900753371633
1.525224283017958,12.863618186356646,-0.03338245433253345,0.4313156122617058,-1.921496007465431
1.519246414181596,12.78744955684505,-0.03303831051593593,0.4150024934226982,-1.9346359074874269
1.5133310211584878,12.714209816694165,-0.03268827862970972,0.3987723971426815,-1.9451050483018328
1.5074793481601847,12.643883803875493,-0.03233031024032746,0.3826277452869995,-1.9526874572119635
1.5016930158289086,12.576455882341044,-0.03196227121829526,0.3665713828735604,-1.9571549710483382
1.4959740378264244,12.511909861810846,-0.03158192880930695,0.3506066230175466,-1.9582662505950383
1.4903248399172662,12.45022890901172,-0.03118693684800566,0.33473729697273436,-1.9557657669612971
1.4847482819087356,12.391395449429176,-0.030774818802333476,0.31896780949996445,-1.9493827804560928
1.4792476828737326,12.335391058609442,-0.030342948253254506,0.3033031996082065,-1.938830343873878
1.473826850164214,12.282196342068541,-0.029888526296953735,0.2877492064017998,-1.9238043782959415
1.4684901128307097,12.231790802958496,-0.02940855518642662,0.2723123392653652,-1.9039828925403675
1.4632423602088696,12.184152696849612,-0.02889980727846595,0.25699995083333244,-1.879025450038377
1.4580890866359624,12.139258873375393,-0.02835878797605695,0.2418203099913129,-1.8485730330549974
1.453036443547453,12.09708460514436,-0.02778169078515703,0.22678267035349362,-1.8122485191537314
1.4480913006212401,12.057603405383208,-0.027164341728320964,0.21189732699262975,-1.7696580758647615
1.4432613182555691,12.020786837425376,-0.026502129001353833,0.19717565031659498,-1.7203939061537545
1.4385550345970453,11.98660432165693,-0.025789911648914445,0.1826300804439248,-1.6640389513125553
1.4339819717518658,11.955022949221508,-0.02502189774196761,0.16827405772743967,-1.6001743924852616
1.4295527679890143,11.92600731709586,-0.0241914774008276,0.1541218547797625,-1.5283910983813875
1.4252793461018016,11.899519406544012,-0.023290988012645068,0.14018826246298222,-1.448306545147023
1.421175133283056,11.8755185367974,-0.022311376640085513,0.1264880680549428,-1.359589154147985
1.4172553558691041,11.853961437956851,-0.02124170573715591,0.11303525239562053,-1.2619923507229824
1.413537444570838,11.834802500117156,-0.02006841979913415,0.09984183471210331,-1.1554006852160221
1.4100416044744204,11.817994265167133,-0.01877424793884009,0.0869163313992614,-1.0398895365044845
1.4067916324417817,11.803488223391383,-0.017336552423810946,0.0742619105535265,-0.9157972525238057
1.403816108497704,11.791235938622165,-0.015724824732605523,0.061874586882232185,-0.7838026033573544
1.4011501616640913,11.781190418125828,-0.013896806751983208,0.049742307521501924,-0.6449897281565745
1.3988381594390855,11.77330741168992,-0.011792106859191565,0.03784665287745495,-0.5008679577665651
1.3969380586392186,11.767545870793263,-0.009320124250441321,0.026170468196503455,-0.3533009921701776
1.3955294949317634,11.763865782395222,-0.006330583610173045,0.014719402892864528,-0.20430119626160662
1.3947343888670287,11.762217565691145,-0.0025039282202112814,0.0035941160413197216,-0.055681983376809296
