x,y,v_x,v_y,omega
2.375,32.48,0.0,2.358974358974359,-4.938775510204081
2.3743418086106582,32.05933946019644,-0.007313237659355219,2.3150316388429495,-4.709127356670652
2.372440722316268,31.646474669439435,-0.01380994338942396,2.272354925123751,-4.49481033159504
2.369436102371681,31.241183454349418,-0.01957472266154516,2.230880798098682,-4.29445541427449
2.3654529419408274,30.843254647762375,-0.024682615459045463,2.1905503862017897,-4.106841201597784
2.3606034789975614,30.452487310619112,-0.029200306132798556,2.1513089153900338,-3.9308754782507918
2.3549886069246444,30.06869002973221,-0.033187161344056706,2.1131053166866365,-3.765579402460342
2.348699111282096,29.69168028178512,-0.03669612357315348,2.075891882725448,-3.6100738897594806
2.3418167567141865,29.321283855418258,-0.03977448273694752,2.0396239657952773,-3.46356785165669
2.3344152442616295,28.95733432448731,-0.04246454451368533,2.004259711215242,-3.325348005798739
2.3265610562833494,28.59967256659331,-0.04480421080054136,1.969759820940332,-3.1947700224208964
2.3183142036469455,28.248146321824496,-0.046827485159501164,1.9360873431575853,-3.0712508110145245
2.3097288877213136,27.902609787350503,-0.04856491401418394,1.903207484331223,-2.954261783084029
2.3008540879219157,27.56292324409557,-0.05004397264579534,1.8710874407236227,-2.8433229530644666
2.2917340840575564,27.228952712210845,-0.05128940362486477,1.8396962468844296,-2.737997761060302
2.2824089214580328,26.900569632482785,-0.05232351414761585,1.8090046389829106,-2.6378885189339956
2.2729148257849716,26.57765057116857,-0.05316643777528864,1.778984931175017,-2.542632396122691
2.263284573511369,26.260076946051488,-0.05383636526473998,1.7496109034592318,-2.451897873950247
2.2535478232725454,25.947734771767674,-0.05434974849996596,1.7208576996942584,-2.365381607575998
2.2437314126208405,25.640514422678045,-0.0547214809634227,1.6927017346349795,-2.2828056434388406
2.2338596241407416,25.338310411751138,-0.05496505770434082,1.665120608997323,-2.2039149474043587
2.223954424385545,25.04102118408902,-0.05509271735340295,1.6380930316928803,-2.1284752050378173
2.214035678668927,24.748548923873052,-0.05511556838679614,1.6115987484845136,-2.0562708606976123
2.204121344374827,24.460799373632717,-0.05504370154764541,1.5856184764081196,-1.987103366628044
2.19422764512826,24.17768166485125,-0.05488629008087925,1.5601338433859782,-1.9207896170550123
2.184369227891016,23.89910815901918,-0.05465167922183249,1.5351273325259036,-1.8571605455588531
2.1745593048036183,23.62499429833248,-0.054347466193699026,1.5105822306596233,-1.796059866802243
2.1648097813833203,23.355258465307873,-0.05398057180960875,1.486482580724911,-1.7373429461002279
2.1551328375158736,23.089825419096854,-0.053541026717576316,1.4627734882864085,-1.6789980418659614
2.145538461282597,22.828622439697227,-0.05306315365216256,1.4394818383760948,-1.6231186196556209
2.1360331548771483,22.57157564933697,-0.05255136196393683,1.4165936100711964,-1.5695727510727016
2.126622663342919,22.318613639905102,-0.052009655083053066,1.3940953836162777,-1.5182369020335285
2.1173120442724223,22.069667367709336,-0.05144166792247063,1.3719743074477802,-1.4689953125173931
2.108105731101246,21.824670053972575,-0.050850700646152026,1.3502180674050992,-1.421739428372152
2.099007590616892,21.58355709069008,-0.050239749180003464,1.3288148579559766,-1.376367380285941
2.090020975238586,21.34626595149886,-0.04961153280117344,1.3077533552797957,-1.3327835055437467
2.0811487705671,21.112736107237694,-0.0489685191042272,1.2870226920665135,-1.2908979086377546
2.0723934386528176,20.88290894590056,-0.048312946610020516,1.2666124339016362,-1.2506260571998515
2.063757057385034,20.6567276967087,-0.04764684525424337,1.2465125571190248,-1.211888410079621
2.055241356365112,20.43413735804677,-0.04697205496710862,1.226713428013548,-1.1746100747070338
2.046847749590093,20.215084629027217,-0.04629024253310424,1.2072057833148224,-1.1387204911604851
2.0385773652411365,19.999517844464037,-0.045602916899746694,1.1879807118315855,-1.1041531406119476
2.0304310728423696,19.787386913052657,-0.04491144308655339,1.169029637183773,-1.070845276045347
2.022409508029905,19.578643258566963,-0.04421705482971955,1.1503443015461616,-1.0387376733449387
2.01451309514767,19.373239763897786,-0.04352086608400163,1.131916750333607,-1.007774401030171
2.0067420678659316,19.171130717769046,-0.042823881490867445,1.113739317763494,-0.9779026070746635
1.9990964879997735,18.97227176397908,-0.04212700591089108,1.0958046132361026,-0.9490723213915658
1.9915762626880293,18.776619853024794,-0.04143105310849009,1.0781055084782116,-0.921236272697559
1.9841811600781196,18.584133195975802,-0.0407367536682842,1.0606351253994772,-0.894349718584705
1.976910823648671,18.394771220474503,-0.04004476221447727,1.0433868246149673,-0.8683702877346766
1.9697647852895823,18.208494528745987,-0.03935566399762038,1.026354194590736,-0.8432578333048615
1.9627424772481836,18.025264857509292,-0.03866998090681004,1.0095310413725376,-0.8189742966015338
1.955843243040195,17.8450450396883,-0.03798817695972846,0.9929113788607096,-0.7954835802327116
1.9490707681231974,17.6680295261542,-0.037261544340246734,0.9739276604070615,-0.8232429401621573
1.9424255613058357,17.494421348107807,-0.036574086963770465,0.9550520956639953,-0.8524030267642296
1.9359006707913666,17.324201283196345,-0.035924696530331944,0.9362819589077971,-0.8828521765122863
1.9294893478652289,17.157350589581682,-0.03531222487119771,0.9176146368106668,-0.9144804479949309
1.923185053685884,16.993850985971687,-0.034735488232632936,0.8990476255226301,-0.9471793803181308
1.9169814653417174,16.833684632140958,-0.03419327114699704,0.8805785281521449,-0.9808417533569643
1.910872481246093,16.676834109869205,-0.03368432991549457,0.8622050526451086,-1.0153613488266724
1.9048522259385292,16.52328240422529,-0.03320739572410431,0.8439250100650344,-1.050632711124071
1.8989150543563262,16.3730128851242,-0.03276117741148638,0.8257363132804005,-1.0865509068636852
1.8930555556378423,16.22600928908279,-0.0323443639049987,0.8076369760686258,-1.1230112819978117
1.8872685565159442,16.082255701098127,-0.03195562633831608,0.7896251126498367,-1.159909215365638
1.8815491243579596,15.941736536569557,-0.03159361986151287,0.7716989376676239,-1.1971398674630074
1.87589256990676,15.804436523182016,-0.03125698515181717,0.7538567666384026,-1.2345979231608133
1.8702944497763472,15.670340682663934,-0.03094434963054428,0.7360970168958569,-1.2721773270256618
1.8647505687545936,15.539434312327696,-0.030654328388940354,0.7184182090623492,-1.3097710098106299
1.8592569819655385,15.411702966294417,-0.030385524822782548,0.7008189690852031,-1.3472706045859155
1.853809996943958,15.287132436297323,-0.030136530972556266,0.6832980308825177,-1.3845661508681462
1.8484061756757737,15.165708731949326,-0.029905927562826513,0.6658542396507697,-1.4215457849823467
1.8430423366593294,15.047418060350203,-0.02969228373099821,0.6484865558950359,-1.4580954147514205
1.8377155570446617,14.932246804896938,-0.029494156431975633,0.6311940602523723,-1.4940983764539983
1.832423174910673,14.820181503147133,-0.02931008950123363,0.6139759591898887,-1.5294350718224872
1.8271627917436617,14.711208823569603,-0.029138612354447663,0.5968315916715452,-1.5639825826694245
1.8219322751850284,14.605315540997996,-0.028978238297033204,0.5797604369018846,-1.5976142605328707
1.8167297621212475,14.502488510582435,-0.028827462411645605,0.562762123271015,-1.63019928852269
1.8115536621954766,14.402714640010135,-0.028684758985808106,0.5458364386434279,-1.6616022123329226
1.8064026618275792,14.305980859738376,-0.028548578435271848,0.5289833421539087,-1.6916824371671162
1.8012757288379828,14.212274090951784,-0.028417343671356357,0.5122029776971215,-1.720293687112793
1.7961721177808594,14.121581210919917,-0.0282894458522376,0.4954956893236208,-1.747283423312291
1.791091376103768,14.033889015390212,-0.02816323944877988,0.4788620387842166,-1.772492217130786
1.7860333512643416,13.94918417760492,-0.028037036544844008,0.4623028254967956,-1.7957530744486343
1.780998198950125,13.867453203478188,-0.027909100279786134,0.44581910924468415,-1.8168907072479468
1.775986392565537,13.788682382410407,-0.027777637326746624,0.4294122359528808,-1.8357207488851592
1.770998734170583,13.712857733151228,-0.027640789283851736,0.41308386692686555,-1.8520489099318715
1.7660363670797994,13.639964944049947,-0.02749662283596739,0.3968360119762455,-1.8656700723530297
1.7611007903576514,13.569989306952984,-0.027343118521232366,0.3806710668789016,-1.8763673212564373
1.7561938754790285,13.502915643924013,-0.0271781579079127,0.3645918556652279,-1.8839109157493616
1.7513178854617122,13.438728225875412,-0.02699950895115593,0.3486016782081034,-1.8880572039450934
1.746475496823343,13.377410682114537,-0.02680480925294727,0.3327043635794102,-1.8885474923996781
1.7416698247707192,13.318945899732139,-0.026591546887317023,0.31690432955833425,-1.8851068879752058
1.7369044520976171,13.263315911705067,-0.026357038369371807,0.30120664852024365,-1.8774431413891381
1.7321834623537051,13.210501772569536,-0.026098403229651804,0.28561711965234443,-1.865245538043743
1.727511477959236,13.16048342057389,-0.025812534486670674,0.2701423469659467,-1.8481839053104268
1.7228937040898868,13.113239525384522,-0.0254960640616532,0.2547898218048161,-1.8259078393661572
1.7183359793619195,13.068747320761709,-0.025145321804651143,0.23956800733756284,-1.7980463033299587
1.7138448346390875,13.026982422242298,-0.024756286226814507,0.2244864206558752,-1.764207817992223
1.7094275617059747,12.987918630908467,-0.02432452414110712,0.209555705275586,-1.7239815654111685
1.7050922941821864,12.951527725996687,-0.023845115012094662,0.19478768263306953,-1.6769398656188985
1.7008481040073777,12.917779251707092,-0.023312553596891404,0.18019536502911274,-1.6226426825878248
1.6967051182999109,12.886640307519453,-0.02272062093051858,0.16579290372244476,-1.5606450852868081
1.6926746636885037,12.858075357138485,-0.022062208085116462,0.15159543384388158,-1.4905089507256442
1.688769448824417,12.832046079495576,-0.021329068182516345,0.13761876218843475,-1.4118206565185867
1.6850038014706936,12.80851129658221,-0.020511457969964272,0.12387882573785636,-1.3242170466176013
1.6813939855298856,12.78742702735785,-0.019597608039012664,0.1103908323106099,-1.2274224587766644
1.6779586374389819,12.76874673317932,-0.018572926304365158,0.09716799189529642,-1.1212997858607072
1.6747193832970015,12.752421833263426,-0.01741878638430441,0.08421978494795111,-1.0059177548754812
1.671701732230737,12.738402566505084,-0.01611066990752161,0.07154984570031055,-0.8816335964959943
1.6689363956930736,12.726639233333191,-0.014615291622073803,0.05915385620959933,-0.7491830745146476
1.6664612755205606,12.717083722802808,-0.012886043628072235,0.04701848301686672,-0.6097564100777544
1.6643245561255038,12.709690942306267,-0.010855282983668547,0.03512352250025626,-0.4650195080728529
1.6625898602832558,12.704419182980011,-0.008419115263531776,0.023451581124796797,-0.31702306473967456
1.6613463651591354,12.701227046530633,-0.005397497226693797,0.012016601646062974,-0.16794456078399628
1.6607379996608211,12.700057886645272,-0.0013621194212437935,0.0009740637468422814,-0.019678043766333198
