x,y,v_x,v_y,omega
2.375,32.48,0.0,2.2051282051282053,-7.387755102040816
2.3741145732297415,32.0867013486403,-0.009838075225095574,2.164856809979603,-7.060970981218604
2.37155296709672,31.700548348270736,-0.018624215141809647,2.1257320830154995,-6.754820838775501
2.367495129038238,31.32134008039029,-0.02646287439687802,2.087693115656124,-6.467535107542319
2.3621032438309038,30.94888615085157,-0.03344696124016954,2.0506838792185085,-6.197530787585861
2.355523679534246,30.5830058606713,-0.03965930872269627,2.014652678340086,-5.943388198170836
2.3478886882104235,30.223527468245535,-0.04517392820866425,1.9795516819461816,-5.703831096413601
2.339317897249335,29.870287530177084,-0.05005708247009485,1.945336518814396,-5.477709603189249
2.329919621075675,29.523130310033793,-0.05436820834834871,1.9119659272221388,-5.2639854821172385
2.319792018129369,29.181907246075312,-0.05816071327727476,1.879401450094326,-5.061719400610856
2.309024114040831,28.846476470392002,-0.06148266548425726,1.8476071686091156,-4.870059868136908
2.2976967086751565,28.51670237305616,-0.06437739413434895,1.8165494684558332,-4.6882335998192906
2.2858831820468213,28.19245520584087,-0.06688401284715668,1.7861968339362693,-4.515537096223252
2.27365021189426,27.873610720854835,-0.06903787773685813,1.756519665908541,-4.351329264776701
2.2610584138625716,27.560049840102312,-0.07087098928189942,1.7274901202306008,-4.195024936508605
2.248162913702471,27.25165835253069,-0.0724123458303325,1.6990819638985335,-4.046089154916134
2.2350138595990776,26.948326635593315,-0.07368825531847938,1.6712704465167445,-3.904032132825801
2.221656881651137,26.64994939874766,-0.07472261076975219,1.6440321851016655,-3.7684047888829535
2.208133504594479,26.356425446641484,-0.07553713430422289,1.6173450605224724,-3.638794788413647
2.194481519074606,26.06765746002247,-0.07615159369436458,1.5911881241332537,-3.514823024348162
2.180735316099151,25.783551792648034,-0.07658399492179993,1.5655415133604702,-3.396140483070606
2.166926188722931,25.50401828267895,-0.07685075370287077,1.5403863751849183,-3.2824254477799304
2.1530826045210176,25.228970077217877,-0.07696684854061231,1.5157047966047978,-3.173380998468467
2.1392304519761196,24.958323468807272,-0.0769459575138072,1.4914797412907952,-3.068732773150391
2.1253941517362023,24.69200667567034,-0.07679071181861201,1.4675957380084783,-2.9652739828504417
2.111594113454765,24.429950405031157,-0.07654304686402512,1.4441406024268602,-2.866216281273101
2.0978461688089194,24.172078798228092,-0.07621189364536661,1.4210994731627544,-2.7713222202379777
2.084164611597674,23.91831861109946,-0.07580540870180069,1.3984581615998355,-2.6803696287293435
2.070562330912867,23.66859909647674,-0.07533104335161199,1.3762031119859317,-2.5931504666908323
2.0570509324453314,23.42285189359591,-0.07479560628767352,1.3543213644677534,-2.5094697770917773
2.0436408490591313,23.181010923921722,-0.07420532022566288,1.3328005208010074,-2.4291447267590653
2.0303414416491625,22.943012292924507,-0.07356587321843511,1.31162871250137,-2.352003727496061
2.017161091193234,22.708794197389047,-0.07288246518077007,1.2907945712259863,-2.277885629914559
2.004107282817236,22.47829683787102,-0.07215985010809642,1.2702872011965076,-2.206638983203186
1.9911866826097449,22.25146233594892,-0.0714023744195839,1.2500961534935253,-2.138121354760088
1.9784052078491547,22.028234655948296,-0.07061401180919533,1.2302114020689574,-2.072198704241129
1.9657680912410924,21.80855953084169,-0.06979839494705131,1.2106233213377475,-2.0087448071273446
1.9532799397055225,21.592384392051187,-0.06895884433706051,1.1913226652234066,-1.9476407234060131
1.9409447882007744,21.37965830290215,-0.06809839460458383,1.1723005475436477,-1.8887743073959602
1.9287661490250159,21.17033189549627,-0.06721981845940006,1.153548423632836,-1.8320397551362615
1.9167470569938132,20.96435731078965,-0.06632564855396149,1.1350580731073245,-1.7773371861040776
1.904890110854854,20.761688141678064,-0.06541819743447602,1.1168215836881314,-1.7245722563369037
1.8931975112671369,20.562279378905867,-0.06449957576238118,1.0988313360029267,-1.6736558003114008
1.8816710956415834,20.366087359628956,-0.06357170896598956,1.0810799892960583,-1.624503499178962
1.8703123701126843,20.173069718473982,-0.06263635246622345,1.0635604679814248,-1.5770355731805614
1.8591225388861665,19.983185340947593,-0.061695105606194,1.0462659489784887,-1.5311764962631382
1.8481025311854542,19.79639431905963,-0.06074942440172033,1.029189849776674,-1.4868547310993008
1.8372530259996296,19.612657909033718,-0.05980063321855404,1.0123258171778733,-1.4440024828737397
1.8265744748174866,19.431938490987335,-0.05884993547192336,0.9956677166708413,-1.402555470345369
1.8160737933607278,19.254440956887052,-0.0578243029365078,0.976527106665636,-1.414483972743375
1.8057545816687595,19.080378193142252,-0.05683360475203019,0.9575036016099208,-1.4281922766422597
1.7956106178939133,18.909729393970636,-0.05587710385737272,0.9385941669635757,-1.4435520692297243
1.785635819198168,18.742474287790923,-0.054953992762017095,0.9197959016998992,-1.4604374294676772
1.7758242538712983,18.57859311353821,-0.05406339975875681,0.9011060344413645,-1.4787245503135755
1.7661701523781663,18.418066597632087,-0.05320439460937537,0.8825219200711015,-1.4982914652561663
1.756667917427067,18.26087593151233,-0.052375993736174756,0.8640410368151077,-1.519017778024373
1.7473121331453962,18.107002749657546,-0.051577164949055974,0.845660983793581,-1.540784394328313
1.7380975734438486,17.95642910800223,-0.05080683173480574,0.8273794790432732,-1.5634732544837644
1.7290192096458084,17.809137462666854,-0.05006387713230682,0.8091943580164248,-1.586967065755753
1.7200722174545922,17.665110648914464,-0.049347147214540185,0.79110357256571,-1.6111490332331784
1.711251983327692,17.524331860244963,-0.04865545419546144,0.7731051904287428,-1.6359025880143543
1.7025541103241628,17.386784627535665,-0.047987579177088055,0.7551973952301234,-1.6611111114428507
1.6939744234887786,17.25245279813281,-0.047342274549403894,0.7373784870238007,-1.6866576540838638
1.6855089748345669,17.12132051479433,-0.04671826605294765,0.7196468834037627,-1.712424648073372
1.6771540479837956,16.99337219437848,-0.046114254511176754,0.7020011212168021,-1.7382936114054242
1.6689061625264725,16.8685925061664,-0.0455289172368599,0.6844398589174338,-1.7641448426470512
1.660762078154911,16.746966349698745,-0.04496090911382002,0.6669618796120427,-1.7898571044856455
1.6527187986329608,16.628478831997423,-0.044408863352294055,0.6495660948471168,-1.8153072944206394
1.644773575659088,16.513115244032726,-0.04387139191296017,0.6322515492050679,-1.8403701008107116
1.6369239126837072,16.400861036284002,-0.04334708559126949,0.6150174257807827,-1.8649176423809195
1.6291675687429872,16.29170179322768,-0.04283451375006385,0.597863052622784,-1.8888190891831906
1.6215025623738752,16.185623206570494,-0.04233222368451398,0.5807879102348391,-1.9119402628917301
1.6139271756783484,16.082611047027115,-0.04183873959911739,0.5637916402471369,-1.9341432142068058
1.6064399586089673,15.982651134420593,-0.0413525611717832,0.5468740553808662,-1.9552857750429
1.5990397335527728,15.885729305860153,-0.04087216167482308,0.5300351508462268,-1.9752210831000405
1.5917256002965212,15.791831381724148,-0.04039598561686208,0.5132751173316059,-1.9937970763739725
1.5844969414633194,15.700943129145834,-0.03992244586315777,0.49659435576078437,-2.0108559551708742
1.5773534285190385,15.61305022266598,-0.03944992018440971,0.47999349401538377,-2.026233609282304
1.5702950284566335,15.528138201678914,-0.038976747175643894,0.46347340584091123,-2.0397590081831334
1.5633220112779056,15.446192424257394,-0.03850122147688709,0.4470352321759641,-2.051253552490838
1.5564349584055717,15.367198016896776,-0.03802158821571491,0.4306804051642178,-2.0605303855398773
1.549634772174153,15.291139819670672,-0.0375360365778238,0.4144106751258365,-2.067393664878473
1.54292268656662,15.218002326239507,-0.03704269239476789,0.3982281407760003,-2.071637794923027
1.5363002793855784,15.147769618101563,-0.03653960961680248,0.3821352829789455,-2.073046624096003
1.5297694860740083,15.080425292425584,-0.03602476051175419,0.36613500230972196,-2.071392612786916
1.523332615432348,15.015952382758925,-0.035496024395582464,0.350230660653141,-2.066435982773907
1.5169923675179569,14.954333271871402,-0.034951174653208135,0.33442612698602536,-2.0579238648251175
1.5107518540622213,14.895549595981667,-0.03438786374385183,0.31872582734436505,-2.0455894697571266
1.5046146218036924,14.839582139633919,-0.03380360579535927,0.30313479874172544,-2.029151320220835
1.49858467921832,14.786410720567858,-0.033195756264334395,0.28765874643671213,-2.008312597238538
1.4926665272386415,14.736014064083914,-0.03256148795431468,0.2723041033848802,-1.9827606788546246
1.4868651947055378,14.688369666691095,-0.03189776241350641,0.25707808986864966,-1.9521669806851125
1.4811862795084547,14.643453649297658,-0.031201295331861313,0.24198877005843167,-1.9161872530442925
1.4756359966725983,14.601240600951307,-0.030468513955432486,0.22704510045657397,-1.8744625512040085
1.4702212350901143,14.561703415276465,-0.029695503627721425,0.21225696259722882,-1.8266211800577807
1.464949625236513,14.524813123455417,-0.02887793919007058,0.19763516874776413,-1.772282029266467
1.4598296211704511,14.490538730075059,-0.028010994877281613,0.18319142436733765,-1.7110598680735725
1.4548706015475963,14.458847061683212,-0.027089223154440553,0.16893822443097864,-1.6425733680239256
1.4500829965350732,14.42970264277675,-0.026106388095814517,0.15488865230750576,-1.5664568697830206
1.4454784507635505,14.403067620458518,-0.025055231587770763,0.14105604011730005,-1.4823771963552856
1.4410700373495025,14.37890176723619,-0.02392713967943097,0.12745344013080678,-1.3900570959120435
1.4368725453611915,14.357162600915967,-0.022711660190692515,0.11409285231611642,-1.2893070616558797
1.4329028740361902,14.337805669495264,-0.02139579897598678,0.10098416346944787,-1.1800670829580626
1.4291805832438558,14.32078505299636,-0.0199629876055068,0.08813379762949983,-1.0624588739815521
1.4257286737138468,14.30605412421167,-0.018391562727927163,0.0755431888670406,-0.9368465498382061
1.4225747074007051,14.293566569772466,-0.016652507418090764,0.06320741601300084,-0.8038985937310794
1.4197524406981334,14.283277574975116,-0.014706011499372377,0.051114748401982615,-0.6646356108814785
1.417304270634536,14.275144879967602,-0.012495878096154744,0.039248529459306195,-0.5204378735829759
1.4152851258639998,14.269129046328665,-0.009939063798692251,0.027594066528869914,-0.3729788331993016
1.4137695389290659,14.265191459268795,-0.006900791033907266,0.016156900803009824,-0.22405387239399116
1.4128687729757088,14.26328551313491,-0.0031077195589490126,0.0050202784623742495,-0.07530093480582595
