x,y,v_x,v_y,omega
2.375,32.48,0.0,3.282051282051282,-3.4693877551020407
2.3743044033956227,31.895943057411472,-0.007728851159747184,3.2074703022656466,-3.255800367978457
2.3723174678791143,31.32504978672758,-0.014348210134791012,3.1357882608887504,-3.061830725110865
2.369225208094914,30.766814513925876,-0.020010231911882788,3.06682588135239,-2.8851382412535345
2.3651882841287337,30.220762481451867,-0.02484447882345093,3.0004189239143626,-2.723712514621087
2.3603457367403693,29.686447289256915,-0.02896160326948643,2.9364165449184534,-2.575820392221174
2.354818118875131,29.163448610751928,-0.0324563730109385,2.874679882914733,-2.4399624823839314
2.3487101302735343,28.65137014632537,-0.03541016700680153,2.815080832935901,-2.3148372612450707
2.342112841399677,28.149837783332575,-0.037893042702729036,2.757500978095163,-2.199311316182687
2.335105576622857,27.65849793647064,-0.03996545481749037,2.7018306537041186,-2.0923945736635785
2.327757513636333,27.17701604649692,-0.04167968947721967,2.647968123781644,-1.9932195945517535
2.320129045743283,26.705075218543456,-0.0430810648900017,2.5958188534791002,-1.9010242034468998
2.3122729453210336,26.24237498398545,-0.04420893980165767,2.54529486383206,-1.8151368624448923
2.3042353600593963,25.788630172061392,-0.0450975631054255,2.496314157546376,-1.73496431307664
2.296056668124657,25.343569879308756,-0.04577679172501235,2.4488002063717875,-1.659981100017207
2.2877722139687076,24.906936526445378,-0.046272698896648694,2.4026814921101978,-1.5897206617076276
2.279412942880752,24.478484993648273,-0.04660809096952543,2.357891094524284,-1.5237677302911063
2.271005949408029,24.05798182630392,-0.04680294761628371,2.3143663204129967,-1.4617518292950331
2.2625749523264815,23.64520450426142,-0.046874797734244265,2.2720483689481066,-1.40334169465165
2.2541407068225907,23.239940768441183,-0.04683904119787628,2.23088202905452,-1.3482404747745442
2.245721362874224,22.841987999358878,-0.0467092248950855,2.1908154051933026,-1.2961815899232598
2.237332777427656,22.451152642736275,-0.04649728006678093,2.1517996683911904,-1.246925151113069
2.228988786808775,22.067249677901735,-0.046213726809670834,2.1137888297703857,-1.200254855242305
2.220701444837603,21.690102125146122,-0.045867850647800565,2.076739534180855,-1.1559752866123543
2.212481231303173,21.31954058860472,-0.04546785529031094,2.0406108718347156,-1.1139095661588918
2.204337234773414,20.955402831590852,-0.045020995040344604,2.0053642060971666,-1.0738972989386295
2.1962773131397504,20.59753338161941,-0.044533689778139506,1.9709630158077343,-1.0357927780771825
2.1883082348106058,20.24578316263417,-0.04401162499013057,1.9373727506949743,-0.999463409764683
2.1804358030569686,19.90000915219655,-0.043459838939172775,1.904560698611891,-0.9647883292156582
2.1726649656644303,19.5600740616099,-0.04288279875569795,1.8724958634620035,-0.9316571819738616
2.1649999117495615,19.225846037145384,-0.04228446696506394,1.8411488528103919,-0.8999690486918478
2.1574441573457595,18.897198380706993,-0.041668359743852364,1.8104917742828575,-0.8696314946718023
2.1500006211478855,18.57400928842588,-0.04103759801030289,1.7804981399517168,-0.8405597281187834
2.142671691620354,18.256161605811073,-0.04039495229559952,1.751142777990617,-0.8126758533122774
2.135459286514981,17.943542598205994,-0.039742882208542774,1.7224017509546607,-0.7859082068144213
2.1283649057089065,17.63604373541041,-0.03908357119228785,1.6942522801073983,-0.7601907664590885
2.1213896781558486,17.333560489426084,-0.038418957175025054,1.666672675274024,-0.7354626242513346
2.1145344036430354,17.035992144373797,-0.03775075963400731,1.6396422697513664,-0.711667515489614
2.1077995899590007,16.7432416177096,-0.037080503521932456,1.6131413598508064,-0.6887533974354308
2.1011854860020236,16.455215291940856,-0.03640954044448365,1.587151148690819,-0.6666720717230823
2.0946921112936576,16.171822856108403,-0.03573906742624918,1.5616536938920178,-0.6453788454479692
2.088319282305078,15.892977156360729,-0.035070143557969766,1.5366318588599122,-0.6248322265140217
2.082066635954661,15.61859405500008,-0.03440370477999421,1.5120692673695248,-0.6049936493746385
2.075933650592298,15.348592297429548,-0.03374057702403865,1.487950261191969,-0.5858272277801577
2.0699230730363207,15.082894138368708,-0.033043618042374344,1.4642515061507062,-0.5661816467281126
2.0640369502416154,14.821424428947065,-0.032357746343239804,1.4409674874231193,-0.5473616065497715
2.0582732684629232,14.564109755085866,-0.031683162308895695,1.4180844443679932,-0.5293231951773678
2.05262998301801,14.310879127713473,-0.031020009301250966,1.3955891931030466,-0.5120252764608418
2.047105027921692,14.061663881695438,-0.0303683806578409,1.3734690959862212,-0.4954292866160278
2.0416963243313995,13.816397580085507,-0.029728325900961267,1.3517120330130286,-0.4794990475956506
2.036401787937848,13.57501592336521,-0.029099856249610753,1.3303063749902613,-0.4642005958132141
2.0312193354191916,13.337456663363874,-0.028482949513240895,1.3092409583579456,-0.4495020248103171
2.0261468900636705,13.103659521572887,-0.02787755443699236,1.2885050615419054,-0.43537334060050414
2.0211823866539476,12.87356611158852,-0.02728359455993232,1.2680883827288427,-0.4217863285496014
2.016323775695895,12.647119865436117,-0.02670097164064895,1.2479810189645117,-0.4087144307654786
2.011569027065392,12.4242659635458,-0.026129568698275055,1.2281734464834468,-0.3961326330709538
2.006916133138513,12.204951268165559,-0.025569252711490888,1.2086565021859006,-0.3840173607235473
2.002363111463291,11.98912426001225,-0.025019877013199122,1.1894213661842012,-0.3723463821262409
1.997908007024817,11.776734977974467,-0.02448128341428836,1.170459545346725,-0.36109871984540803
1.9935488941497792,11.567734961693677,-0.0239533040861325,1.151762857773153,-0.350254568316601
1.9892838780914939,11.362077196861524,-0.023435763228148488,1.1333234181396827,-0.33979521767676124
1.9851110963320184,11.159716063081781,-0.022928478543799344,1.1151336238574499,-0.3297029832133955
1.9810287196339513,10.960607284155365,-0.02243126254583503,1.0971861419916078,-0.3199611399679861
1.977034952870992,10.764707880655806,-0.02194392370926914,1.0794738968923727,-0.3105538620729505
1.9731280356631875,10.571976124671135,-0.021466267488558188,1.0619900584928688,-0.30146616643934476
1.9693062428399888,10.382371496595908,-0.020998097213650632,1.0447280312318585,-0.2926838604466603
1.9655678847517422,10.195854643864422,-0.020539214877977295,1.0276814435624324,-0.2841934933168927
1.9619113074480208,10.01238734152286,-0.020089421830039027,1.010844138010474,-0.2759823108829153
1.9583348927392081,9.831932454544486,-0.019648519378990294,0.9942101617492536,-0.268038213486379
1.9548406361617185,9.65467260722247,-0.019176553704226773,0.9753436973842812,-0.30851897767207004
1.951427477326507,9.480799583600689,-0.01874743335368041,0.9565787873021511,-0.3501243782834624
1.9480878302863047,9.310295329805356,-0.018359755981900396,0.9379129215348833,-0.3927555206510836
1.9448143628117163,9.14314223506155,-0.01801210484686022,0.9193436867296227,-0.43631479307093446
1.9415999987377606,8.979323114511981,-0.017703051530423446,0.9008687638211569,-0.48070565172512
1.938437919849113,8.81882119242411,-0.017431158343438488,0.8824859260440707,-0.5258324059857278
1.935321567359246,8.661620085724355,-0.017194980432861884,0.8641930372865367,-0.5716000031479458
1.9322446430357636,8.507703787797421,-0.016993067605832947,0.845988050790508,-0.6179138116084797
1.9292011100217525,8.357056652487731,-0.016823965883179484,0.8278690082060562,-0.6646794014670482
1.9261851934009502,8.209663378238215,-0.01668621879240055,0.8098340390108002,-0.7118023214814845
1.923191380552939,8.065508992299446,-0.016578368407722508,0.7918813603088669,-0.759187871250052
1.9202144213434342,7.924578834939158,-0.01649895614233229,0.7740092770276715,-0.8067408674271487
1.9172493281940448,7.786858543578511,-0.016446523295327854,0.7562161825350597,-0.8543654026996936
1.914291376075672,7.652334036776985,-0.016419611353259776,0.7385005597041051,-0.901964596160088
1.9113361024699782,7.520991497982379,-0.01641676204333581,0.7208609824581834,-0.9494403336065116
1.9083793073441635,7.392817358955998,-0.016436517132385347,0.7032961178349575,-0.9966929961811316
1.9054170531856245,7.2677982827755265,-0.016477417962492195,0.6858047286147162,-1.0436211756200973
1.902445665145032,7.145921146309238,-0.016538004710756532,0.6683856765662631,-1.0901213742344014
1.899461731338944,7.02717302204476,-0.01661681535688991,0.6510379263723948,-1.1360876875661359
1.8964621033663835,6.911541159143603,-0.01671238433822373,0.6337605503071403,-1.1814114674686431
1.8934438970978993,6.7990129635785905,-0.016823240867157883,0.6165527337485539,-1.2259809631398733
1.8904044938005633,6.689575977195041,-0.016947906881019815,0.599413781624221,-1.2696809373943352
1.8873415416682917,6.5832178555176775,-0.01708489458866326,0.5823431259020232,-1.312392255189116
1.8842529578338487,6.479926344103415,-0.017232703571816763,0.5653403342564467,-1.3539914411228013
1.881136930947097,6.379689253214831,-0.017389817392088433,0.5484051200611655,-1.3943502023029684
1.8779919244136223,6.282494430559929,-0.017554699646522693,0.5315373538822029,-1.4333349126298582
1.874816680398936,6.188329731809951,-0.017725789405546078,0.5147370766731183,-1.4708060541747436
1.8716102247163189,6.097182988567933,-0.017901495956868154,0.498004514904867,-1.5066176109485985
1.8683718727311502,6.009041973415609,-0.018080192767228043,0.48134009789873583,-1.5406164099721935
1.8651012364316486,5.923894361614284,-0.01826021056056762,0.46474447767154714,-1.5726414041922423
1.8617982328355582,5.841727688975475,-0.018439829395992462,0.4482185516485548,-1.6025228914701295
1.858463093924892,5.762529305348483,-0.018617269611408634,0.43176348865136216,-1.6300816636461788
1.8550963783267946,5.686286323093547,-0.01879068147856311,0.4153807586256916,-1.6551280796225007
1.851698984988462,5.612985559819972,-0.01895813339180031,0.3990721666362696,-1.6774610566137125
1.848272169128513,5.542613474567741,-0.01911759838540796,0.3828398917218661,-1.6968669743384879
1.8448175607870567,5.4751560964985195,-0.019266938741886872,0.3666865312694852,-1.7131184881881845
1.8413371863430013,5.410598945037815,-0.019403888414283452,0.35061515162722096,-1.725973249637597
1.8378334934213367,5.348926940276492,-0.019526032937545807,0.33462934572082265,-1.7351725358348773
1.8343093796770749,5.290124302300768,-0.01963078644314054,0.3187332984538736,-1.7404397961230302
1.8307682260190843,5.234174437983178,-0.019715365312312123,0.30293186063045335,-1.7414791322315302
1.8272139349302041,5.181059813646236,-0.01977675789746606,0.28723063200222126,-1.7379737425424542
1.8236509746559926,5.1307618119288705,-0.019811689593774582,0.27163605374628585,-1.7295843813996397
1.8200844301828,5.083260571180144,-0.01981658233058397,0.2561555101284316,-1.7159479151549306
1.8165200621218607,5.038534805835287,-0.019787507235411922,0.24079743814777002,-1.6966761023290289
1.8129643748843414,4.996561606589264,-0.019720128737024698,0.22557144236360166,-1.671354792936886
1.8094246959132119,4.957316219919242,-0.019609637608858865,0.21048840952554293,-1.6395438419338926
1.805909268298115,4.920771807842719,-0.019450669225550134,0.19556061354695392,-1.6007781786357325
1.8024273599506269,4.886899191070743,-0.019237201302096052,0.1808017950305635,-1.5545706886650776
1.7989893938461705,4.855666582423872,-0.01896242208075233,0.16622718993467692,-1.5004178757385866
1.7956071059595264,4.827039323234381,-0.018618554437514628,0.1518534677263463,-1.4378097130631828
1.7922937409611286,4.800979644422512,-0.01819661221134882,0.13769851907218517,-1.366245706335097
1.7890643013841034,4.777446487169371,-0.017686049755597115,0.12378100596270658,-1.2852599947455101
1.7859358752810213,4.756395436683036,-0.017074240278650687,0.11011955499658205,-1.194459269991825
1.782928082757649,4.737778846526243,-0.016345676647705993,0.09673144674554802,-1.0935781685918944
1.7800637070520882,4.721546257087951,-0.015480720080746734,0.08363065812435698,-0.9825569247539125
1.7773696172252829,4.707645228432355,-0.014453611328201967,0.07082521582670369,-0.8616438998439925
1.774878157700488,4.696022685506119,-0.013229272280628512,0.0583141500203538,-0.7315180941732549
1.7726292975301106,4.686626750708069,-0.011758062945787334,0.0460851255135404,-0.5934094341882067
1.770674067228438,4.679408703449006,-0.009966718183909571,0.03411539958713567,-0.4491646559293712
1.7690804315856963,4.6743239567300705,-0.0077403445132181,0.022381786178822406,-0.30117179789804677
1.76794509138004,4.671329110848667,-0.004874546660740936,0.010894279170118072,-0.15204462573996716
1.7674294932870023,4.670363289780553,-0.000854321039679134,-0.00016293396883599112,-0.004063169302154057
