x,y,v_x,v_y,omega
2.375,32.48,0.0,3.846153846153846,-5.673469387755102
2.373328946793047,31.721546662769583,-0.016710532069531308,3.738379526150295,-5.227803324246562
2.3686148445474524,30.98409795535554,-0.030430490386413666,3.6361075479901164,-4.835196828738883
2.3614041023116252,30.26659776418385,-0.04167693197185658,3.5388943637267873,-4.487562208962213
2.3521493915867984,29.568073712163542,-0.05087017527641263,3.446346156476315,-4.178259845938436
2.3412270080987243,28.8876279568669,-0.058353659604326376,3.358111396490098,-3.9018043421059385
2.3289507088580814,28.22442933431699,-0.06440933280210458,3.2738748290089945,-3.653637010804879
2.315582808655582,27.577706595741777,-0.06926966922288919,3.193352556743148,-3.4299482287363205
2.3013431294015865,26.946742542845605,-0.0731271233170682,3.116287972218563,-3.2275376424499114
2.2864162556100194,26.330868909688576,-0.07614161459860197,3.0424483593517198,-3.043703373329547
2.2709574452072765,25.72946187086845,-0.078446489428827,2.971622028849544,-2.876153621376485
2.2550974666787744,25.14193807953843,-0.08015329585619439,2.903615884450665,-2.7229357018929683
2.238946574344026,24.56775115703259,-0.0813556274912883,2.8382533406077357,-2.5823787457108742
2.2225977883146553,24.006388570010415,-0.08213223280241737,2.775372529614006,-2.4530471787999986
2.206129610878499,23.457368842129473,-0.08254954155914648,2.7148247491954125,-2.333702757996971
2.189608284081851,22.920239056064617,-0.08266372640733373,2.6564731114531615,-2.2232734372268474
2.173089672254195,22.394572608758644,-0.08252239186922757,2.600191361606553,-2.120827716209689
2.1566208367304602,21.879967188512587,-0.0821659633681198,2.545862840854004,-2.0255534122722065
2.1402413570253507,21.37604294720007,-0.08162883368297522,2.493379572271177,-1.9367400179815966
2.123984442412394,20.882440844742092,-0.0809403124465919,2.442641452308616,-1.8537639793007115
2.107877869657864,20.398821146174882,-0.08012541509870436,2.393555533363474,-1.7760763629297474
2.0919447760992957,19.924862054313763,-0.0792055204869817,2.346035385247714,-1.7031924864376404
2.07620433198872,19.460258463260683,-0.07819892061877964,2.3000005252830955,-1.6346831674220448
2.060672311770799,19.004720819900847,-0.07712128156043022,2.255375908315288,-1.5701673133376144
2.0453615805250793,18.557974082146615,-0.07598603089676119,2.2120914692269977,-1.5093056256409088
2.030282509005316,18.119756764064107,-0.07480468430087464,2.170081711598098,-1.4517952334480526
2.0154433284283626,17.689820059199103,-0.07358712146865705,2.12928533705193,-1.3973651052374676
2.000850434299029,17.26792703443645,-0.07234181982468148,2.08964491057461,-1.3457721139895504
1.9865086470252273,16.85385188760653,-0.07107605291333344,2.0511065577245633,-1.296797652883399
1.9724214358160215,16.44737926281573,-0.06979605917872553,2.0136196901834844,-1.250244716315825
1.9585911113129015,16.048303618141958,-0.06850718585247356,1.9771367565542528,-1.205935375390486
1.9450189915411566,15.656428640916594,-0.06721401186497604,1.9416130156993807,-1.163708588790331
1.9317055450508467,15.271566706322023,-0.0659204530381223,1.9070063302463314,-1.1234182996041961
1.9186505145193042,14.893538375480155,-0.06462985227730304,1.873276978172359,-1.0849317766324291
1.9058530235879867,14.522171929600049,-0.06334505703587165,1.840387480628705,-1.0481281652685122
1.8933116692886045,14.157302937099374,-0.0620684859579501,1.8083024443780469,-1.0128972185009086
1.8810246020626724,13.798773850921066,-0.06080218630137122,1.7769884174050214,-0.9791381831079463
1.8689895950835276,13.446433633538408,-0.05954788349007755,1.7464137564215698,-0.9467588198944695
1.857204104341004,13.100137407383226,-0.05830702393515859,1.7165485051302605,-0.9156745399763094
1.8456653207386506,12.759746128646945,-0.05708081208837277,1.6873642822325277,-0.885807641765967
1.8343702152752779,12.425126282595954,-0.05587024254535578,1.658834178277386,-0.8570866355386247
1.8233155782314638,12.096149598714046,-0.054676127892784206,1.6309326605417034,-0.8294456443337195
1.8124980531531376,11.772692784138144,-0.05349912289047773,1.6036354852173067,-0.8028238715327581
1.8019141663148441,11.454637273990958,-0.052339745492455854,1.5769196162545494,-0.7771651267971762
1.7915603522518404,11.141868997337728,-0.05119839513758308,1.550763150277759,-0.7524174031906027
1.781432975870243,10.834278157605318,-0.05007536867839156,1.5251452470463165,-0.7285324992807196
1.7715283515759932,10.531759026401996,-0.048970874264106,1.5000460649869216,-0.7054656808441316
1.7618427598046549,10.234209749766435,-0.047885043449277485,1.4754467013686943,-0.6831753775058119
1.7523825905859622,9.941533596768586,-0.04671664873764974,1.4513148286098072,-0.6588135161781625
1.7431531635215638,9.65363726585019,-0.04557762190633281,1.427648480574152,-0.6355524772240623
1.7341486613801824,9.37042929914427,-0.044467399507483296,1.4044311864850276,-0.613329585119375
1.7253633824528634,9.091821458480645,-0.04338538976570526,1.3816472201512187,-0.5920864095102648
1.7167917455417878,8.817728580699463,-0.04233097934505165,1.3592815576606199,-0.5717684319485047
1.7084282936913877,8.548068441140316,-0.04130353915895093,1.3373198379308424,-0.5523247422806027
1.700267696840602,8.282761624757946,-0.04030242934890431,1.315748325892872,-0.5337077617479116
1.6923047535516023,8.021731404358281,-0.03932700354109444,1.2945538781037882,-0.5158729901764696
1.6845343919499292,7.764903625487651,-0.03837661247563809,1.2737239106025173,-0.49877877491860895
1.6769516699932878,7.512206597543525,-0.03745060709077365,1.2532463688387654,-0.48238609945827804
1.6695517751708586,7.2635709907076595,-0.036548341133518764,1.2331096995198958,-0.4666583898128177
1.662330023721604,7.0189297383323,-0.03566917335902574,1.2133028242337112,-0.4515613370592653
1.6552818594484218,6.778217944437223,-0.03481246937279947,1.1938151147170482,-0.43706273448631766
1.6484028521948466,6.541372796000427,-0.033977603162951064,1.174636369650914,-0.4231323280266074
1.6416886960421921,6.308333479748065,-0.033163958363592205,1.1557567928727048,-0.40974167876032036
1.6351352072773127,6.079041103170297,-0.03237092928520382,1.1371669729049616,-0.3968640364024791
1.6287383221744693,5.853438619508982,-0.031597921743229285,1.1188578637082085,-0.38447422279423976
1.622494094628931,5.63147075648088,-0.030844353712154077,1.1008207665727985,-0.37254852451487
1.6163986936748296,5.413083948516462,-0.030109655828860667,1.0830473130713911,-0.36106459381706274
1.6104484009153415,5.198226272309341,-0.0293932717660206,1.0655294489998157,-0.35000135716509667
1.6046396078893748,4.986847385485394,-0.02869465849364599,1.0482594192396502,-0.3393389307241284
1.5989688133955482,4.778898468213335,-0.028013286444619166,1.0312297534809527,-0.3290585422105081
1.5934326207912854,4.574332167590416,-0.02734863959800766,1.0144332527482436,-0.3191424585682673
1.5880277352822634,4.373102544647882,-0.026700215492214466,0.9978629766771085,-0.3095739189865324
1.5827565411089393,4.175335731299171,-0.0260117262410253,0.979805156810006,-0.33444022615316055
1.5776188485106348,3.9811692524655378,-0.025365199742019225,0.9618596315263407,-0.3610056844983932
1.5726063559884786,3.7905809529412977,-0.024759725479543294,0.9440233637160496,-0.38916052949454705
1.567710949481671,3.6035492731329946,-0.024194339588532957,0.9262934343669893,-0.41879756397869466
1.5629247124537264,3.4200532258814746,-0.02366803069091103,0.9086670381482127,-0.4498119185063298
1.5582399348635092,3.2400723741277595,-0.02317974521126239,0.8911414793889478,-0.48210081743564076
1.5536491211215309,3.0635868093447485,-0.022728392208521502,0.8737141684411638,-0.5155633497746389
1.5491449971249773,2.8905771306590147,-0.022312847757015187,0.8563826184161599,-0.5501002438341531
1.5447205164585764,2.721024424588581,-0.021931958906992403,0.839144442288184,-0.5856136447334386
1.5403688658427053,2.5549102453236934,-0.021584547251719665,0.8219973503606931,-0.6220068938017282
1.5360834699050032,2.392216595478267,-0.02126941212530035,0.8049391480935616,-0.6591843089082708
1.531857995347217,2.2329259072396788,-0.020985333452563235,0.7879677342923341,-0.6970509647349715
1.527686354574997,2.0770210238440896,-0.02073107426963547,0.771081099663573,-0.7355124719792955
1.5235627088549193,1.9244851813033854,-0.020505382931142967,0.7542773257434839,-0.7744747544401654
1.5194814710600708,1.775301990307998,-0.02030699501734104,0.7375545842103852,-0.8138438228956154
1.5154373080631522,1.6294554182274332,-0.020134634951843904,0.7209111365952503,-0.8535255446273067
1.5114251428341714,1.486929771127052,-0.019987017337965783,0.7043453344085796,-0.8934254073829163
1.5074401562984767,1.3477096757155635,-0.019862848018979366,0.6878556197062993,-0.9334482764920103
1.503477789010098,1.2117800611326999,-0.01976082486480847,0.6714405261223257,-0.9734981437633444
1.4995337426951405,1.0791261404803691,-0.019679638284767008,0.6550986804009735,-1.0134778666905275
1.495603981720374,0.9497333919934121,-0.019617971462899193,0.6388288044686091,-1.0532888963774671
1.4916847345431612,0.8235875397374528,-0.019574500309226365,0.622629718091,-1.0928309924637327
1.4877724952005669,0.7006745337112719,-0.01954789311671912,0.6065003421708047,-1.1320019231816276
1.483864024897891,0.580980529219314,-0.019536809910040705,0.590439702748762,-1.170697148510021
1.4799563537600875,0.4644918653661847,-0.019539901467993535,0.5744469357825427,-1.2088094842036063
1.4760467828135797,0.3511950425090191,-0.019555807997083553,0.5585212927891434,-1.2462287442691216
1.4721328862710086,0.24107669848506674,-0.019583157428627176,0.5426621474503619,-1.2828413592314174
1.4682125141975175,0.13412358341037134,-0.01962056330628385,0.5268690032965748,-1.3185299672818682
1.464283795644418,0.030322532820513004,-0.019666622224713767,0.5111415026020436,-1.3531729751301746
1.4603451423446332,-0.07033956110425521,-0.019719910773132062,0.49547943664564426,-1.3866440850901545
1.456395253074346,-0.1678757805202835,-0.019778981929738905,0.4798827575146185,-1.4188117846248427
1.452433118796951,-0.262299215437352,-0.019842360844210892,0.4643515916560634,-1.4495387942633904
1.4484580287189819,-0.3536230001441396,-0.019908539935480057,0.44888625541180727,-1.4786814694937533
1.4444695774033631,-0.4418603529660601,-0.019975973220707478,0.4334872728074178,-1.5060891519495716
1.4404676731034485,-0.5270246198373627,-0.02004306977844147,0.4181553959056283,-1.53160346497528
1.4364525475021903,-0.6091293222357805,-0.020108186234139187,0.4028916280785597,-1.5550575485127924
1.432424767064862,-0.6881882101037888,-0.020169618139145234,0.38769725060154553,-1.576275228268891
1.4283852462415114,-0.7642153204662847,-0.020225590094359727,0.3725738530234064,-1.5950701143871115
1.4243352627874248,-0.8372250425508341,-0.02027424444650546,0.35752336782206445,-1.6112446254964734
1.420276475507059,-0.9072321903237821,-0.020313628357153387,0.3425481099074393,-1.6245889352388507
1.4162109447702353,-0.974252083472571,-0.020341679011081942,0.32765082158042874,-1.6348798404738731
1.4121411562002244,-1.0383006379894937,-0.02035620668902943,0.3128347235888133,-1.64187955374238
1.4080700479935977,-1.099394467640792,-0.020354875377236414,0.29810357292415907,-1.6453344278444393
1.4040010424041387,-1.157550997728812,-0.020335180517353318,0.28346172795604296,-1.644973628441479
1.3999380820116678,-1.212788592661056,-0.020294423407355704,0.268914221366399,-1.6405077827163481
1.3958856715075032,-1.2651266989050427,-0.020229681634290522,0.2544668410734678,-1.6316276502066582
1.3918489258708517,-1.314586004896249,-0.020137774732224462,0.2401262188385608,-1.6180028887206508
1.3878336259996595,-1.3611886193203588,-0.02001522397969788,0.2258999254025523,-1.5992810277702783
1.3838462831192648,-1.4049582688216447,-0.01985820482424903,0.211796569610308,-1.5750868200585464
1.3798942136614214,-1.4459205154588943,-0.019662489754184775,0.19782589676220946,-1.54502222668316
1.3759856268485138,-1.4841029929309997,-0.01942337837489132,0.18399887795882175,-1.508667415921464
1.37212972803801,-1.5195356584139006,-0.019135609730145067,0.1703277768701601,-1.4655833355793757
1.3683368421543254,-1.552251053334075,-0.018793249106700383,0.15682617233160026,-1.4153166775276995
1.3646185635481518,-1.5822845609062242,-0.018389536955035785,0.14350890338989575,-1.3574084183626447
1.3609879418561879,-1.6096746399232487,-0.01791667996460292,0.1303918867803438,-1.2914076216782646
1.357459718678328,-1.6344630020722661,-0.017365551813995555,0.11749173470986032,-1.2168928418622893
1.3540506384387923,-1.6566946830156937,-0.016725250581362316,0.10482507472444266,-1.1335042419068218
1.3507798707385839,-1.6764179355476898,-0.01598242642072214,0.09240745059554524,-1.0409902521832006
1.347669604148398,-1.693683849050501,-0.015120239481136504,0.08025168443256703,-0.9392727465500962
1.344745907967007,-1.7085455829686325,-0.014116722332773437,0.06836565474875278,-0.8285331194848669
1.342040017735449,-1.7210571176813545,-0.012942179982806817,0.05674969237849497,-0.7093160251425725
1.3395903001263945,-1.7312715255230486,-0.011554996107737959,0.04539438603843779,-0.5826344500141099
1.3374453440334357,-1.7392390406547023,-0.009894564821849803,0.034280765278126804,-0.45003663877736105
1.3356690984248627,-1.7450058196406815,-0.007867891263880598,0.023387024581630257,-0.31356682733616836
1.3343506200019597,-1.7486156817075482,-0.005316892965148342,0.012711596087035924,-0.17553759134149613
1.333629760239777,-1.7501224981684373,-0.0018917046566778784,0.002356568521863679,-0.03807226840034042
