x,y,v_x,v_y,omega
2.375,32.48,0.0,3.8974358974358974,-7.142857142857143
2.37265427044396,31.673642834369375,-0.0223402814860969,3.782156156189087,-6.547880375516027
2.3660589102724305,30.890829305426124,-0.04047267252846905,3.673210786127593,-6.028259501391552
2.3560169211461712,30.130287585710352,-0.05516531915019138,3.5700436873559203,-5.571800827736691
2.3431859620482016,29.390855335779708,-0.06703429130666005,3.4721682167454615,-5.168629654356275
2.3281068032995447,28.671466355623487,-0.07657674439483679,3.379155403789988,-4.810689285180726
2.3112256542844913,27.97113944075081,-0.08419610336757614,3.2906247378545452,-4.491360881078401
2.292911817977327,27.288968974101618,-0.09022138527208359,3.206236849280629,-4.205171946383899
2.273471745905711,26.62411690578351,-0.0949221582671129,3.1256876108918354,-3.94757065671617
2.253160296680087,25.975805857737306,-0.09852021531026285,3.0487033228815004,-3.714749651835424
2.2321898053646247,25.34331315145456,-0.10119874959890118,2.9750367369541784,-3.5035073683487825
2.210737427241622,24.725965601381052,-0.10310961347731176,2.9044637399363777,-3.3111381239336537
2.1889511128067425,24.123134949637787,-0.10437909542630398,2.836780562380433,-3.135344406628648
2.1669544907733873,23.53423384252791,-0.10511254298660115,2.771801410094568,-2.974166445197027
2.144850875248081,22.95871226826123,-0.10539808106393729,2.709356440064292,-2.8259253240569064
2.122726566963214,22.39605439000042,-0.10530961688717881,2.649290019562501,-2.6891767843235206
2.100653582861421,21.845775719826825,-0.10490927932037461,2.591459220186021,-2.5626735078210063
2.0786919207637222,21.30742058833129,-0.10424940732437174,2.5357325083428943,-2.4453341741831367
2.056891444375687,20.78055987182858,-0.103374177323581,2.4819886012067087,-2.3362179553750853
2.0352934570518895,20.264788945091524,-0.1023209400459202,2.4301154629557176,-2.2345033979385254
2.0139320194733608,19.759725832312355,-0.10112132260673447,2.380009420655419,-2.1394708632852524
1.99283505588619,19.265009532956537,-0.09980214012822664,2.331574382733337,-2.050487866725513
1.9720252851884368,18.780298502454258,-0.0983861522313276,2.284721145859797,-1.9669967886143116
1.9515210064690192,18.305269270411713,-0.0968926927155056,2.239366778354908,-1.8885045349417324
1.9313367632368903,17.839615181322515,-0.09533819520953271,2.1954340701136763,-1.814573806546933
1.9114839062542204,17.38304524470056,-0.09373663319684676,2.152851040571558,-1.7448157009205167
1.891971071388127,16.935283083203814,-0.09209988933737537,2.111550497492725,-1.6788834220827944
1.8728045860537588,16.49606596872431,-0.09043806622803759,2.071469640407298,-1.6164669151892965
1.8539888155056112,16.065143937625173,-0.08875974851622265,2.032549703394003,-1.5572882755470832
1.8355264583401594,15.642278977342233,-0.08707222448808263,1.9947356326340113,-1.5010978083438944
1.8174187990192676,15.227244277464173,-0.08538167380612345,1.9579757947760756,-1.4476706369289785
1.7996659239453532,14.819823539182014,-0.08369332689782226,1.9222217126730636,-1.3968037749773685
1.7822669065640078,14.419810337674683,-0.08201160054356516,1.8874278254920054,-1.348313592130858
1.7652199660963028,14.027007532587426,-0.08034021343457642,1.8535512705770931,-1.3020336143778135
1.748522603777964,13.641226722276155,-0.07868228483531621,1.8205516847683612,-1.257812610014759
1.732171719879164,13.262287737944014,-0.07704041896278076,1.7883910231567923,-1.2155129199254626
1.716163714275191,12.890018174195422,-0.07541677726553202,1.7570333934964608,-1.1750089974365694
1.7004945729170804,12.524252952884591,-0.07381314043076107,1.7264449047019386,-1.13618612841724
1.6851599421981445,12.16483391744675,-0.07223096165434222,1.6965935280394178,-1.0989393067879625
1.6701551929155636,11.811609455176036,-0.07067141246547619,1.6674489697769006,-1.0631722443551146
1.6554754752762006,11.464434145158908,-0.06913542219512381,1.6389825541957448,-1.0287964970257577
1.6411157661847997,11.123168429789857,-0.06762371200869344,1.6111671159856917,-0.9957306920891649
1.627070909874231,10.787678307990547,-0.06613682428243596,1.583976901150601,-0.9638998434652627
1.6133356527861613,10.457835048427057,-0.06467514798489589,1.5573874756445243,-0.9332347436868644
1.5999046734820563,10.133514921175273,-0.06323894062562657,1.5313756410391495,-0.9036714229607073
1.586772608255118,9.814598946423633,-0.061828347249978086,1.5059193565955256,-0.8751506669898022
1.5739340730205815,9.500972658927566,-0.06044341688846381,1.4809976671765452,-0.8476175863758841
1.5614004969087332,9.192528249107383,-0.0589239746529491,1.4565681406347337,-0.8164321637825869
1.5491817872376792,8.88916183373227,-0.05744468888089786,1.4326358153187202,-0.7867113549899616
1.5372695985840528,8.590770911332552,-0.056004726867924376,1.4091824932500143,-0.7583686985402787
1.5256557642180937,8.297256712021344,-0.054603219474544926,1.386190833523392,-0.7313238080628792
1.5143323027405051,8.008524022828382,-0.05323927078820175,1.3636443016476696,-0.7055018777249991
1.5032914228403635,7.724481023297898,-0.05191196635600334,1.341527122452166,-0.6808332333060374
1.4925255264537447,7.44503913063236,-0.050620380183223936,1.3198242362672428,-0.6572529242021647
1.4820272105645955,7.17011285372228,-0.0493635806658154,1.298521258114461,-0.6347003521996403
1.471789267856454,6.899619655455311,-0.048140635602199555,1.2776044396662036,-0.6131189333210993
1.4618046863951872,6.633479822745937,-0.046950616409864546,1.257060633756409,-0.5924557894581206
1.4520666484983442,6.371616343770931,-0.04579260165530836,1.2368772612436492,-0.5726614668630831
1.442568528925455,6.11395479193558,-0.04466567999125319,1.2170422800453997,-0.5536896788901144
1.433303892505216,5.8604232161321015,-0.04356895258245403,1.1975441561782096,-0.5354970706543459
1.4242664912995502,5.6109520368848464,-0.04250153509055393,1.1783718366527893,-0.5180430035254894
1.4154502613907416,5.365473948007278,-0.04146255927905033,1.1595147240859527,-0.5012893575900634
1.4068493193658527,5.123923823423436,-0.040451174291321765,1.1409626529030308,-0.4852003504099631
1.3984579585622612,4.8862386288320465,-0.0394665476476435,1.122705867014949,-0.4697423705765803
1.3902706451291493,4.652357337914783,-0.038507866001041384,1.104734998863739,-0.4548838247120111
1.3822820139519505,4.422220852811499,-0.03757433568656527,1.0870410497389542,-0.44059499670434776
1.3744868644799917,4.195771928604998,-0.03666518309399481,1.0696153712753562,-0.42684791808467176
1.3668801564916695,3.9729551015758986,-0.0357796548900258,1.0524496480494148,-0.41361624856089807
1.3594570058263997,3.7537166210048447,-0.034917018112542525,1.0355358811987083,-0.4008751658196047
1.3522126801081409,3.5380043843145828,-0.0340765601565901,1.0188663729942633,-0.3886012637927582
1.3451425944814477,3.3257678753585473,-0.03325758866906011,1.002433712301307,-0.376772458662991
1.3382423073776781,3.1169581056756783,-0.03245943136684077,0.9862307608688654,-0.3653679019498264
1.331514430844477,2.9116715827229847,-0.03161558323507475,0.9688789815377337,-0.3819176717761904
1.324959336008066,2.7100169258278584,-0.030813891397412165,0.951641560320613,-0.4003909503091016
1.3185682449824248,2.511970454652939,-0.030053642180124882,0.9345153080119624,-0.42067479440799305
1.312332536835767,2.3175091453799865,-0.02933405445470979,0.9174971612542657,-0.44265935589781313
1.306243761027707,2.1266106048338393,-0.02865428657443507,0.9005841772804603,-0.46623763288788117
1.3002936494519406,1.939253045666188,-0.02801344271857645,0.8837735290781307,-0.49130522916324415
1.2944741272042892,1.7554152625124502,-0.02741057868762799,0.8670625009574645,-0.5177601206609962
1.2887773221872354,1.5750766090386286,-0.026844707189076004,0.8504484845075135,-0.5455024280729006
1.2831955736541467,1.3982169757979221,-0.02631480264986442,0.833928974927795,-0.5744341946377952
1.277721439789126,1.2248167688194087,-0.025819805588428866,0.8175015677247259,-0.6044591682027468
1.2723477044118494,1.0548568888530063,-0.02535862657610946,0.8011639557648351,-0.6354825866407784
1.2670673828907992,0.8883187111963835,-0.02493014981484482,0.784913926679182,-0.6674109657151569
1.2618737273429363,0.7251840660303976,-0.024533236355278248,0.7687493606159342,-0.7001518884755946
1.2567602311930735,0.5654352191899541,-0.02416672697674924,0.7526682283406781,-0.733613795260073
1.2517206331619668,0.4090548532970715,-0.023829444748076092,0.7366685896867673,-0.7677057733570896
1.2467489207484375,0.2560260491820685,-0.023520197285536584,0.7207485923609046,-0.8023373453566015
1.241839333267646,0.10633226751738789,-0.02323777872200012,0.7049064711122428,-0.8374182551833729
1.236986364504969,-0.04004266941344525,-0.02298097139873341,0.6891405472766191,-0.8728582507633226
1.2321847650427604,-0.18311459589216383,-0.022748547288968288,0.6734492287111694,-0.90856686222122
1.2274295443156336,-0.32289902097138423,-0.022539269159859463,0.6578310101385519,-0.9444531744460197
1.222715972448769,-0.4594111467979971,-0.022351891476945027,0.6422844739244168,-0.9804255927874928
1.2180395819331642,-0.5926658871483141,-0.022185161052624615,0.6268082913166672,-1.0163916005637734
1.2133961691917055,-0.7226778862755197,-0.022037817437458515,0.6114012241805533,-1.0522575069630775
1.208781796090498,-0.8494615381778061,-0.021908593050231708,0.5960621272698253,-1.087928183813191
1.204192791451057,-0.9730310064046606,-0.0217962130396832,0.5807899510811615,-1.1233067895683904
1.1996257526207994,-1.0934002445296187,-0.02169939486753195,0.5655837453470177,-1.1582944787242382
1.195077547161825,-1.2105830174303165,-0.021616847598891223,0.5504426632310596,-1.1927900947152972
1.1905453147212997,-1.3245929235311422,-0.021547270882302242,0.5353659663006196,-1.2266898441784826
1.186026469150933,-1.4354434181807534,-0.021489353597379305,0.5203530303623606,-1.2598869502750827
1.1815187009481536,-1.5431478383561767,-0.021441772143377322,0.5054033522607468,-1.2922712825575018
1.1770199800977352,-1.647719428907756,-0.021403188336796546,0.4905165577542663,-1.3237289606433982
1.1725285593999355,-1.7491713705851524,-0.021372246880344618,0.4756924106018924,-1.3541419287221734
1.1680429783797952,-1.8475168101146409,-0.021347572359086797,0.46093082301230254,-1.383387497670644
1.1635620678822975,-1.942768892632209,-0.02132776571231972,0.4462318676311901,-1.4113378513027275
1.1590849554697495,-2.0349407968166133,-0.021311400121470165,0.43159579126791464,-1.437859513032566
1.1546110717512712,-2.1240457731119022,-0.021297016244990193,0.41702303059199686,-1.4628127690076878
1.1501401577898842,-2.210097185480656,-0.021283116720600393,0.40251423006277065,-1.4860510435926946
1.1456722737506975,-2.293108557188397,-0.02126815984308243,0.38807026239189235,-1.5074202229901974
1.1412078089744317,-2.3730936211867544,-0.0212505523118299,0.3736922518781607,-1.5267579228265844
1.1367474936844468,-2.4500663757386008,-0.021228640926121693,0.359381600996555,-1.54389269578178
1.1322924125630667,-2.524041146013296,-0.021200703087022918,0.34514002066719357,-1.5586431759147112
1.1278440204650029,-2.595032652473968,-0.02116493594215533,0.3309695646725586,-1.5708171573891583
1.123404160572949,-2.6630560869810864,-0.021119443982166846,0.3168726687285949,-1.5802106070681936
1.1189750853441152,-2.728127197645314,-0.021062224863869754,0.3028521947402288,-1.5866066132517067
1.1145594806482353,-2.7902623835742446,-0.02099115319212921,0.2889114807733856,-1.5897742771602619
1.1101604935597102,-2.8494788007652616,-0.02090396193668172,0.27505439723629127,-1.5894675603129238
1.105781764342445,-2.9057944804889217,-0.02079822108489245,0.2612854096557158,-1.5854241107093856
1.101427463260687,-2.959228461565587,-0.02067131302708814,0.24760964821730705,-1.5773641051591387
1.0971023329705751,-3.0098009379326456,-0.020520404021596512,0.23403298384994073,-1.5649891663038347
1.0928117374073547,-3.057533422784388,-0.0203424108662176,0.2205621099761836,-1.547981443892616
1.0885617183015939,-3.1024489302698584,-0.020133961569600192,0.20720462798065103,-1.5260029950770582
1.0843590607651552,-3.144572175146749,-0.019891348301244983,0.1939691327516126,-1.498695664175554
1.0802113698340945,-3.1839297897473955,-0.019610470089809828,0.18086529201644172,-1.4656817574239942
1.0761271605223814,-3.220550555872258,-0.019286761450315267,0.16790390917275522,-1.426565945063883
1.072115964960284,-3.254465646432159,-0.01891510104584973,0.15509695330248968,-1.3809390183496493
1.0681884617822386,-3.2857088673114276,-0.018489691126011103,0.14245753126199087,-1.3283844036153132
1.0643566354476826,-3.314316883345299,-0.018003893012618823,0.12999976429868906,-1.2684887123871262
1.0606339772063142,-3.340329402664757,-0.017449995000413363,0.11773851493425971,-1.2008581022575662
1.057035745897146,-3.3637892801225107,-0.016818874610712325,0.10568888942530438,-1.12514282527721
1.0535793171995107,-3.384742482704901,-0.01609949393819512,0.0938654208831468,-1.0410729533606582
1.05028466668942,-3.4032378390594644,-0.015278129967428916,0.08228083011270904,-0.9485086005414811
1.0471750587520912,-3.419326477150932,-0.014337183721417379,0.0709442945679436,-0.8475073056508167
1.044278055882829,-3.433060853679052,-0.013253319795364362,0.059859291414185375,-0.7384081649985343
1.0416270317848009,-3.444493329203695,-0.011994528757285466,0.04902142786810537,-0.6219244414866539
1.039263492806743,-3.4536744055514603,-0.010515366271836421,0.038417394491562055,-0.49922111721165974
1.037240771497301,-3.460651120018575,-0.00874864619903852,0.028027505195220632,-0.3719316751103109
1.0356304034202841,-3.4654668882513633,-0.006588192629695045,0.017836954164671594,-0.24204920207324515
1.0345355351364762,-3.468166200110609,-0.0038391243589513857,0.007870777828132197,-0.11163202256849111
