x,y,v_x,v_y,omega
2.375,32.48,0.0,3.0769230769230766,-3.3469387755102042
2.3743764743431237,31.932169515929335,-0.006928062854178944,3.0100823016398475,-3.152366116669643
2.3725908849976634,31.396150934776042,-0.012911818762050673,2.9456797111745225,-2.9745698950979054
2.3698021879505546,30.8715182294212,-0.01807370398360078,2.883572570545933,-2.8116626191237026
2.36614884826003,30.357870043765956,-0.022518959244450597,2.8236294922901193,-2.6620085205638104
2.3617516963496894,29.854827756093627,-0.02633828420377815,2.7657292596246257,-2.5241853366792086
2.3567163469449,29.36203374030843,-0.029610042516102414,2.709759804655364,-2.396952561754853
2.3511352540656882,28.87914979941552,-0.0324021005862531,2.655617316376971,-2.2792249626006
2.3450894620376905,28.40585574971061,-0.03477336639149725,2.6032054581220128,-2.170050397577544
2.338650101711705,27.94184813746637,-0.03677508167500709,2.5524346779251115,-2.068591169897134
2.3318796724128448,27.48683907261006,-0.03845191053455267,2.5032215982560944,-1.9741082958389753
2.324833143128151,27.040555166112437,-0.03984285929538094,2.45548847393973,-1.8859481867910728
2.317558900744078,26.60273655965103,-0.040982056083208054,2.4091627089647636,-1.8035313378336244
2.3100995684963417,26.17313603764815,-0.0418994133360843,2.3641764244006147,-1.7263426904049874
2.302492713986094,25.75151821307397,-0.0426211923333344,2.3204660708679934,-1.6539233965474132
2.294771462984582,25.337658779494806,-0.04317048546123997,2.2779720800116388,-1.5858637605041448
2.2869650326639337,24.931343822771566,-0.043567629212629015,2.2366385502465964,-1.5217971724760786
2.2790991957516273,24.532369186603653,-0.04383055870188832,2.1964129627301925,-1.4613948810441737
2.271196685328426,24.140539886790894,-0.04397511266701765,2.1572459240782558,-1.404361476604471
2.2632775485081957,23.75566956967022,-0.04401529644665218,2.1190909328181013,-1.3504309793075868
2.255359456000033,23.37758001068933,-0.043963509199597905,2.081904166969575,-1.299363442359387
2.2474579735156035,23.006100649518626,-0.04383074062739729,2.0456442904827083,-1.2509419958490762
2.2395868001127153,22.641068158485943,-0.043626741626913886,2.0102722765471186,-1.2049702681016468
2.2317579778315757,22.28232604145374,-0.04336017260797274,1.9757512460329039,-1.16127013136392
2.223982076359704,21.929724260552852,-0.0430387326350462,1.9420463195324957,-1.119679726796448
2.2162683559361493,21.583118888446123,-0.04266927207111459,1.9091244816534072,-1.0800517305544843
2.2086249112598053,21.242371784024222,-0.04225789099937759,1.8769544563677265,-1.04225182844013
2.2010587987873884,20.90735028963878,-0.041810025360810334,1.845506592359375,-1.0061573713892407
2.1935761494833774,20.577926948157945,-0.041330522461531606,1.814752757427718,-0.9716561880790326
2.1861822688080355,20.253979238289666,-0.040823707264491894,1.784666241108695,-0.9386455343347633
2.1788817254932433,19.935389326761086,-0.040293440677641734,1.75522166476441,-0.9070311618820981
2.171678430453112,19.622043836069906,-0.039743170879375955,1.7263948984708963,-0.876726491422689
2.164575707002073,19.31383362663825,-0.039175978576611654,1.6981629841030834,-0.8476518770755332
2.1575763534031327,19.01065359230203,-0.0385946169671673,1.6705040640771265,-0.8197339509849285
2.1506826986395446,18.7124024681613,-0.03800154707270278,1.643397315264311,-0.7929050383961604
2.1438966521913385,18.418982649900038,-0.03739896901847621,1.616822887638641,-0.7671026347830334
2.1372197485013498,18.130300023758913,-0.03678884975917546,1.5907618472627432,-0.7422689377107693
2.1306531867314558,17.846263806412352,-0.036172947684088116,1.565196123254571,-0.7183504270618216
2.124197866336849,17.56678639406244,-0.03555283447820896,1.540108458411119,-0.6952974880643598
2.1178544189227675,17.291783220117843,-0.03492991456714312,1.515482363195498,-0.6730640722633165
2.111623236792875,17.02117262087639,-0.0343054424316673,1.4913020728206745,-0.6516073921785726
2.1055077447547,16.754876557358656,-0.03364446910360714,1.4675430773763496,-0.6297231490241302
2.099510576758923,16.49281959993803,-0.032990730849470476,1.4442008939639472,-0.6087609019228929
2.0936303848347255,16.23492796914784,-0.03234473497494552,1.421261670371478,-0.5886714908880303
2.0878657370877263,15.981130326547358,-0.031706906658378144,1.3987121363005293,-0.5694088709104435
2.082215131655193,15.731357672755475,-0.031077598147549446,1.3765395724981588,-0.5509298830232059
2.076677009095445,15.485543250865689,-0.030457096960760627,1.3547317818327955,-0.5331940444416535
2.071249763380678,15.243622454905271,-0.029845633203316554,1.333277062171866,-0.5161633560055504
2.065931751643607,15.005532743026038,-0.029243386097474677,1.3121641809307116,-0.499802125331436
2.0607213028117077,14.771213555136693,-0.028650489812515084,1.291382351173094,-0.48407680424463995
2.0556167252481394,14.540606234707315,-0.028067038671579073,1.270921209153334,-0.46895583920398926
2.050616313505415,14.313653954495607,-0.027493091803135312,1.2507707931989875,-0.4544095335600571
2.045718354286384,14.090301645962008,-0.026928677297207302,1.2309215238410136,-0.4404099206017828
2.0409211316968627,13.8704959321568,-0.02637379591969765,1.2113641851057315,-0.42693064644804063
2.036222931865196,13.654185063877225,-0.025828424432156005,1.1920899068895503,-0.4139468619316811
2.0316220469959867,13.441318858906246,-0.025292518559056693,1.173090148343557,-0.40143512270494586
2.0271167789180726,13.231848644157271,-0.024766015639990847,1.1543566822006281,-0.38937329686805894
2.022705442180468,13.025727200560759,-0.024248837000059344,1.1358815799828244,-0.37774047948817874
2.0183863667443327,12.822908710539469,-0.02374089006811072,1.1176571980314933,-0.3665169134345947
2.014157900313971,12.623348707929026,-0.02324207026924416,1.099676164306783,-0.35568391600880916
2.010018410345376,12.427004030209769,-0.022752262715141233,1.0819313659071805,-0.34522381089561194
2.0059662857668203,12.233832772924426,-0.022271343713257067,1.0644159372632944,-0.3351198650040044
2.001999938442398,12.043794246164026,-0.021799182113653573,1.0471232489633913,-0.3253562298053706
1.998117804406246,11.85684893301191,-0.021335640510260566,1.0300468971712438,-0.3159178868110718
1.9943183448922808,11.672958449842533,-0.02088057631157538,1.0131806935996304,-0.3067905968630596
1.9906000471817582,11.492085508378079,-0.02043384269423235,0.9965186560054046,-0.29796085293950614
1.9869649217418974,11.314412023536725,-0.019956439970886933,0.9776311755651703,-0.33744723824639933
1.983411932389833,11.140129077006875,-0.019521219496495358,0.9588460080998432,-0.3780884055717969
1.979933608134082,10.9692184807442,-0.0191268277896281,0.9401606170410063,-0.41978452893240936
1.976522723205396,10.801662494475352,-0.018771893640216385,0.9215725637239917,-0.46243711566247836
1.973172299984268,10.637443808291685,-0.018455031038982044,0.9030795049834293,-0.5059487899121494
1.9698756114306486,10.476545525644926,-0.018174841779010964,0.8846791910916666,-0.5502230767086057
1.966626183073233,10.318951146682931,-0.017929917747828414,0.8663694640416185,-0.5951641856265721
1.963417794612605,10.16464455186313,-0.01771884292581691,0.848148256178375,-0.6406767930863383
1.960244481189891,10.01360998578026,-0.017540195104339615,0.8300135891868514,-0.6866658222607385
1.957100534370398,9.865832041143307,-0.01739254733447048,0.811963573445953,-0.7330362195269793
1.953980502889967,9.721295642834484,-0.01727446911476151,0.7939964077631925,-0.7796927263441299
1.9508791932104812,9.57998603198012,-0.017184527323970623,0.7761103795075083,-0.8265396453716976
1.9477916699301345,9.44188874995984,-0.01712128690210285,0.7583038651622434,-0.8734805995680777
1.9447132560937046,9.306989622275996,-0.017083311280452273,0.7405753313249318,-0.9204182829187715
1.9416395334481953,9.175274742200031,-0.017069162558539238,0.7229233361858012,-0.9672542013419393
1.9385663426898674,9.046730454106257,-0.01707740142288087,0.7053465315228181,-1.013888402201825
1.9354897837498646,8.921343336396,-0.01710658679937288,0.68784366525781,-1.0602191907274436
1.9324062161674322,8.799100183906472,-0.01715527522765283,0.6704135846258137,-1.1061428314831458
1.9293122596021537,8.679987989688485,-0.017222019942110242,0.6530552400184892,-1.1515532328676912
1.92620479453975,8.563993926025308,-0.017305369640151867,0.6357676895723783,-1.1963416124275954
1.923080963249889,8.451105324551218,-0.017403866913859024,0.6185501045841749,-1.240396140557206
1.919938171059182,8.341309655312298,-0.017516046316218052,0.6014017758482715,-1.2836015599206883
1.9167740880082398,8.234594504593534,-0.017640432027585095,0.5843221210268935,-1.3258387776687308
1.9135866509683885,8.130947551314872,-0.01777553508187239,0.5673106931804803,-1.3669844272346356
1.9103740663015691,8.030356541774093,-0.017919850105011816,0.5503671906059373,-1.4069103961808573
1.907134813156178,7.932809262485755,-0.018071851510444405,0.5334914681533875,-1.4454833162296339
1.903867647502357,7.838293510832283,-0.018229989087565512,0.5166835502185139,-1.4825640112540315
1.9005716070226601,7.7467970632052,-0.018392682909065896,0.499943645637971,-1.5180068986356172
1.8972460169883856,7.6583076402702694,-0.018558317471763012,0.4832721647501376,-1.5516593390241307
1.8938904972683934,7.572812868939675,-0.018725234972593156,0.4666697389231309,-1.5833609291820991
1.8905049706362602,7.490300240575873,-0.018891727606666107,0.45013724289689794,-1.612942732293009
1.8870896725634998,7.410757064884862,-0.019056028757338514,0.4336758203365506,-1.6402264399002733
1.8836451627117545,7.334170418880088,-0.019216302928720674,0.4172869130498235,-1.6650234595929363
1.8801723383658187,7.260527090211227,-0.01937063424834378,0.4009722943819602,-1.6871339227620947
1.8766724500827654,7.189813514054009,-0.019517013341138062,0.3847341073649114,-1.706345607365568
1.8731471198710699,7.122015702647641,-0.019653322344366505,0.3685749082614014,-1.7224327718717478
1.869598362258507,7.057119166445865,-0.019777317795219677,0.3524977162027543,-1.7351548987205103
1.8660286086600826,6.9951088257179315,-0.019886611076163043,0.33650606966318486,-1.744255349198553
1.8624407355192312,6.935968911300769,-0.019978646044409454,0.32060409052749567,-1.749459937249991
1.8588380967696208,6.879682853071028,-0.02005067339570392,0.3047965564696406,-1.7504754384138477
1.8552245612550697,6.826233154588223,-0.02009972121041871,0.28908898222820556,-1.7469880632396846
1.851604555857214,6.775601252280328,-0.02012256098797793,0.27348771008172723,-1.7386619442961553
1.847983115223876,6.727767357536049,-0.020115668271335367,0.2580000092991409,-1.7251377153597265
1.8443659391801042,6.682710280190811,-0.020075176659462325,0.24263418342570867,-1.7060313051071014
1.8407594591620797,6.640407232235479,-0.019996823540809824,0.2273996827446578,-1.6809331322993128
1.837170915379796,6.600833611276389,-0.019875885151233893,0.21230721680079254,-1.6494079847312604
1.833608446950862,6.56396276454462,-0.019707097392474504,0.19736885799666656,-1.6109960040685511
1.8300811980600544,6.5297657364107735,-0.019484556949832605,0.1825981212682786,-1.5652154027486191
1.826599444463059,6.498211005880471,-0.019201594127892792,0.16800999573509312,-1.5115678340617815
1.8231747466627493,6.469264226097955,-0.018850603653327067,0.15362089073728566,-1.449547756095837
1.8198201393357185,6.442887986381265,-0.0184228110914599,0.13944843944817722,-1.378657710902687
1.8165503718989267,6.419041629860931,-0.01790793820622839,0.12551107744442397,-1.298432205082744
1.8133822238427024,6.397681177444248,-0.017293706862929217,0.11182728274094972,-1.2084737920090245
1.8103349328382516,6.378759431749039,-0.016565082075412005,0.09841433609469039,-1.108505819148471
1.807430797223775,6.362226360072132,-0.01570309141877327,0.08528646031537493,-0.9984465230427368
1.804696053000928,6.348029873122172,-0.014682955501749147,0.0724522835730796,-0.8785073254001983
1.8021621886217498,6.3361170997806155,-0.013471093155783868,0.059911864666440426,-0.7493115385255599
1.7998679686382542,6.3264361516019285,-0.012020239994169474,0.04765422620787835,-0.6120140328540424
1.7978626474436887,6.31893807226356,-0.010261106612113822,0.035657766440657865,-0.46837462023730453
1.7962113884861624,6.313577996883577,-0.008086215138176296,0.02389862667025261,-0.3207039465508438
1.7950058266817928,6.310312970040709,-0.005308916021486585,0.012379449361636097,-0.17158534895159086
1.794393765169826,6.309087179986044,-0.0014917674448115489,0.001240440134642586,-0.02333807486891068
