x,y,v_x,v_y,omega
2.375,32.48,0.0,3.5897435897435894,-2.0
2.3745525112863524,31.841672492859125,-0.0049720968183058906,3.502784267377212,-1.8665450617474062
2.373279626550668,31.21866790622192,-0.009171066911524013,3.4194889174806145,-1.7464722021708174
2.3713101221775914,30.61034833629881,-0.012712315011546977,3.339617414998406,-1.638048995838092
2.3687536773668354,30.016117227368177,-0.015692627330186646,3.2629504620086243,-1.5398069770492133
2.3657039298484,29.43541582661362,-0.01819345620798705,3.189287324153101,-1.450496154291829
2.362240997144217,28.867720019516213,-0.02028357383848756,3.118443865818102,-1.3690481985326535
2.3584335651468655,28.312537496259726,-0.022021226132085032,3.050250837031752,-1.2945465005168837
2.3543406248276253,27.76940520728877,-0.023455888526139692,2.984552373756653,-1.2262016979624455
2.3500129215658645,27.2378870724418,-0.024629703271202827,2.9212046800985387,-1.1633315814509277
2.345494168812538,26.717571913258666,-0.025578660654644807,2.860074866380717,-1.1053445230684416
2.3408220677415574,26.208071582360052,-0.02633357346736325,2.801039921381678,-1.0517257527163841
2.336029166585437,25.709019267386687,-0.02692088382286418,2.7439858005446376,-1.0020259468944206
2.331143587026981,25.220067950003337,-0.0273633334933131,2.688806614825912,-0.955851703553785
2.3261896399690665,24.74088900302172,-0.027680522705737006,2.6354039071920226,-0.9128575616910057
2.3211883489553866,24.271170910860654,-0.02788937744625979,2.5836860057087088,-0.8727392912139559
2.3161578962546545,23.810618100407588,-0.028004541450765797,2.533567443769807,-0.8352282314185421
2.3111140039851343,23.3589498709265,-0.028038705988348542,2.4849684393533886,-0.8000864983151031
2.3060702605176573,22.915899413016234,-0.028002888094727493,2.4378144263162436,-0.7671029144399488
2.301038400653421,22.481212907796134,-0.02790666595234658,2.392035631684869,-0.7360895415200763
2.296028546649244,22.054648698511233,-0.02775837853850748,2.3475666937029147,-0.7068787178460871
2.291049415995474,21.635976527631087,-0.027565295392268298,2.3043463160764777,-0.6793205195477684
2.2861085008911606,21.224976833284597,-0.027333761322323777,2.262316954440105,-0.6532805790129282
2.2812122235683123,20.821440099544212,-0.027069320042660116,2.2214245315641787,-0.628638205110473
2.2763660709606994,20.425166255660752,-0.026776820041926736,2.181618178252051,-0.6052847591973772
2.271574711667704,20.035964119866122,-0.026460505435796953,2.1428499972438564,-0.5831222485191426
2.26684209770993,19.65365088381555,-0.02612409409502982,2.105074847762483,-0.5620621048814344
2.2621715531944044,19.278051634141733,-0.02577084496636185,2.0682501486132865,-0.5420241216365242
2.2575658516900186,18.90899890794752,-0.02540361619348497,2.032335697989079,-0.5229355262990513
2.253027283847596,18.546332279377815,-0.025024915388986026,1.997293508340969,-0.5047301696472325
2.2485577165749997,18.18989797468989,-0.024636943195417666,1.9630876548581955,-0.48734781511113984
2.244158644888706,17.83954851348926,-0.0242416310967318,1.929684136259921,-0.47073351470635616
2.2398312374035636,17.495142374019075,-0.02384067429374082,1.897050746742126,-0.45483705982600015
2.235576376287076,17.156543680588143,-0.023435560333895412,1.8651569580460068,-0.43961249692717497
2.231394692389622,16.823621911398945,-0.023027594082264936,1.8339738107228436,-0.425017699596654
2.2272865961641815,16.496251625194937,-0.022617919533739785,1.8034738137661275,-0.411013989701816
2.223252304905745,16.174312205288004,-0.022207538893333018,1.7736308518664665,-0.3975658013647845
2.219291866769269,15.857687619654236,-0.02179732928973591,1.7444200996198536,-0.38464038237182563
2.215405181964035,15.546266195900664,-0.021388057435083204,1.7158179420864872,-0.37220752837220533
2.2115920214699094,15.239940410008792,-0.020980392499646713,1.6878019011565422,-0.360239345852245
2.2078520435760063,14.938606687853824,-0.020574917432609453,1.6603505672320065,-0.34871004040893494
2.2041848085035416,14.64216521858268,-0.020172138928107524,1.6334435357807067,-0.33759572730782655
2.2005897913412493,14.35051977900996,-0.019772496208475487,1.6070613483606302,-0.32687426170423084
2.1970663934928845,14.063577568259987,-0.019376368773354528,1.581185437750204,-0.31652508624518205
2.1936139528113765,13.781249051945625,-0.01898408324340475,1.5557980768538269,-0.30652909406067463
2.1902317525725437,13.50344781523139,-0.018595919410288757,1.5308823310821236,-0.2968685054034809
2.186919029422524,13.230090424179984,-0.018212115589931625,1.5064220139334858,-0.2875267564133876
2.1836749804167197,12.961096294828465,-0.01783287336345059,1.4824016455278424,-0.27848839866897857
2.1805006811211314,12.696387759087564,-0.017437118809751528,1.4588043071488168,-0.26917259341804756
2.1773968818159846,12.435889747337743,-0.017049540136323857,1.435618045626968,-0.26024662766531803
2.174362116930211,12.179529488863551,-0.01667006970560097,1.4128292707529275,-0.2516898470262777
2.171394934545055,11.927236608190718,-0.01629862346280228,1.3904249589452353,-0.24348289755709104
2.1684938991219096,11.67894302577486,-0.01593510346103459,1.3683926234531893,-0.23560763077575045
2.1656575938032856,11.434582863886664,-0.015579400079234496,1.346720286415669,-0.22804701654819876
2.1628846223389053,11.194092357371478,-0.015231393969436884,1.3253964526419617,-0.22078506311270993
2.16017361068277,10.957409768984459,-0.014890957765399497,1.3044100849915745,-0.21380674358978857
2.1575232083016185,10.724475309023621,-0.014557957580727109,1.2837505812399737,-0.20709792839061014
2.154932089230441,10.495231059002663,-0.01423225432124477,1.2634077523262466,-0.2006453229955615
2.152398952906523,10.269620899123478,-0.013913704833402228,1.2433718018869298,-0.19443641062661263
2.149922524809806,10.047590439324754,-0.01360216290789479,1.2236333069877632,-0.18845939938380216
2.1475015569341087,9.829086953698376,-0.013297480155411016,1.2041831999719892,-0.18270317345771153
2.1451348281108737,9.614059318079391,-0.012999506769422853,1.1850127513500759,-0.17715724806699865
2.142821144204599,9.402457950628353,-0.012708092189183064,1.1661135536614724,-0.17181172780337378
2.140559338196862,9.194234755236838,-0.012423085674556779,1.1474775062442368,-0.16665726809625803
2.1383482701738856,8.989343067598071,-0.012144336802961701,1.129096800853179,-0.16168503953616378
2.136186827230844,8.787737603794845,-0.0118716958975015,1.1109639080715499,-0.15688669481990858
2.1340739233045793,8.589374411266526,-0.011605014394328872,1.093071564465348,-0.15225433810242567
2.132008498945018,8.394210822025673,-0.011344145156350951,1.0754127604330075,-0.14778049655942452
2.1299895210343847,8.202205408003106,-0.011088942739574982,1.0579807287066418,-0.14345809398272022
2.1280159824622324,8.013317938407734,-0.010839263617672817,1.0407689334641355,-0.13928042624589432
2.1260869017633683,7.82750933899468,-0.010594966369707498,1.0237710600142629,-0.13524113849225713
2.1242013227249084,7.644741653141626,-0.010355911835403502,1.006981005019657,-0.13133420391001138
2.122358313967956,7.464978004639615,-0.010121963241845491,0.9903928672248974,-0.12755390397121572
2.120558895318821,7.288400246207871,-0.009871577304101181,0.9715822264611468,-0.17161060892509133
2.1188010718438894,7.115199462958543,-0.009659794639577193,0.9528709207536136,-0.2166966814727718
2.117078008085902,6.945357993886475,-0.009485358226951865,0.934256513380485,-0.26271742419518823
2.115383096391037,6.778858608342478,-0.009346993938214214,0.9157366593305831,-0.3095792362627312
2.1137099597407536,6.615684489714127,-0.009243413287157663,0.8973091032066614,-0.3571894082118447
2.112052454117031,6.455819219455087,-0.009173315865315465,0.8789716774493525,-0.4054559163603867
2.1104046704557953,6.299246761404994,-0.009135391481747952,0.860722300885022,-0.45428721593714927
2.1087609362405826,6.14595144634103,-0.00912832202061635,0.84255897760348,-0.5035920319650016
2.107115816786205,5.995917956701021,-0.009150783028022294,0.8244797961744114,-0.5532791468927072
2.1054641162603414,5.849131311416016,-0.009201445037130943,0.8064829292145459,-0.6032571839168666
2.1038008784895705,5.705576850787811,-0.009278974638101914,0.7885666333210585,-0.6534343848718187
2.1021213875954294,5.5652402213437675,-0.009382035296797717,0.7707292493905268,-0.7037183814907466
2.1004211685055942,5.428107360597387,-0.009509287923593103,0.7529692033470474,-0.754015958754587
2.0986959873852955,5.294164481638443,-0.009659391190837328,0.735285007307904,-0.8042328089454025
2.096941852034607,5.163398057470879,-0.009831001594587947,0.7176752612205846,-0.8542732749062448
2.0951550122983154,5.035794805010031,-0.010022773253098916,0.7001386550110691,-0.9040400808786683
2.093331960536732,4.911341668642908,-0.010233357431162127,0.6826739712902783,-0.9534340491402115
2.0914694322081124,4.7900258032461664,-0.010461401775719633,0.6652800886735373,-1.0023538004954828
2.089564406616326,4.671834556545615,-0.01070554924412673,0.6479559857770394,-1.050695436483916
2.087614107881176,4.556755450688762,-0.010964436701989853,0.6307007459657881,-1.0983522009526678
2.0856160061933666,4.444776162887276,-0.011236693162555024,0.6135135629395899,-1.145214118402303
2.083567819421668,4.335884504969524,-0.011520937634100111,0.5963937472576383,-1.1911676062436722
2.0814675151463953,4.230068401663683,-0.011815776535593422,0.579340733918373,-1.2360950578047587
2.0793133132011397,4.1273158674093295,-0.012119800633914917,0.5623540911300028,-1.2798743925946614
2.077103688813761,4.027614981469043,-0.012431581448071851,0.5454335304287334,-1.322378569967477
2.07483737644831,3.93095386108104,-0.012749667056936935,0.5285789183268443,-1.3634750619320948
2.072513374461862,3.8373206323584625,-0.01307257723693148,0.5117902897018105,-1.4030252804272982
2.070130950704526,3.746703398599884,-0.013398797844579776,0.4950678631712763,-1.4408839539307123
2.067689649207396,3.6590902056280967,-0.013726774345754008,0.47841205873745335,-1.4768984478054592
2.0651892981222173,3.574469003719109,-0.014054904378450991,0.4618235180290842,-1.510908022327471
2.0626300190984663,3.4928276056196843,-0.014381529218782215,0.4453031275200691,-1.5427430219075196
2.060012238308764,3.4141536400783288,-0.014704924000137566,0.42885204516166453,-1.5722239886691913
2.057336699362606,3.338434500230079,-0.015023286512728292,0.4124717309300164,-1.5991606933345113
2.0546044783818713,3.2656572860787634,-0.01533472438431887,0.39616398186236507,-1.623351076404201
2.0518170015501926,3.195808740210243,-0.015637240412115044,0.3799309722323212,-1.644580093051353
2.0489760654929583,3.1288751757458364,-0.015928715779377323,0.3637752995944269,-1.6626184562014399
2.046083860896603,3.0648423954068384,-0.016206890846791704,0.34770003750556,-1.677221274282938
2.043142999836387,3.0036956004096638,-0.016469343155608794,0.3317087957963971,-1.6881265835975756
2.040156547353169,2.9454192877505783,-0.016713462213479437,0.315805789304543,-1.6950537809120734
2.037128057904532,2.889997134276193,-0.016936420549154892,0.29999591596642244,-1.6977019708032284
2.034061617418228,2.8374118657841585,-0.017135140409775984,0.2842848450561855,-1.6957482561109505
2.0309618918025802,2.787645109280948,-0.017306255319644654,0.2686791160905997,-1.6888460209693767
2.02783418292901,2.740677226478166,-0.01744606549780169,0.2531862483847764,-1.676623287862449
2.0246844933119705,2.6964871266982406,-0.017550485802639924,0.23781486028107296,-1.6586812782913192
2.0215196009967724,2.6550520576843546,-0.01761498436622544,0.22257479542878578,-1.6345933788166165
2.018347146568467,2.616347373525965,-0.017634509281611897,0.20747725077554785,-1.6039048220698773
2.0151757347860166,2.5803462802663653,-0.017603399412280195,0.1925348965533234,-1.5661335528059386
2.012015054245636,2.547019562129666,-0.017515273258618638,0.17776197163221052,-1.5207729865776958
2.008876019890061,2.5163352952583224,-0.017362886247769094,0.16317432693826148,-1.467297716980674
2.0057709454567796,2.4882585622139537,-0.017137940788689188,0.1487893735547108,-1.405173730565177
2.0027137566971263,2.4627511904018746,-0.01683082320746288,0.13462586880171154,-1.3338753958220242
1.9997202624219415,2.4397715524514787,-0.016430224294590148,0.12070344175825438,-1.2529124389922819
1.9968085108684546,2.419274487797985,-0.015922570744151793,0.10704172105836017,-1.161871266837341
1.993999276428548,2.401211432530584,-0.015291145254810455,0.09365889302387849,-1.0604760883305275
1.9913167511947618,2.3855308753334548,-0.014514690676147027,0.08056952027756259,-0.9486755272621096
1.9887895649243186,2.3721792771012638,-0.013565156773223215,0.0677815711912137,-0.8267578708004513
1.9864523397528113,2.3611025640290855,-0.012404011799078428,0.055293018499661936,-0.6954889042067759
1.9843481328009915,2.35224815027264,-0.010976065443363159,0.04308935657194653,-0.5562447084057892
1.9825324257826074,2.3455670221377076,-0.009198456983127058,0.03114540048285958,-0.4110744511944002
1.981080183026789,2.3410144434047133,-0.006937573637077154,0.01943880766151655,-0.2625864504671747
1.980101093820515,2.338545230160065,-0.003941195321522662,0.007996895056800745,-0.11354258233487971
