x,y,v_x,v_y,omega
2.375,32.48,0.0,3.7435897435897436,-2.8571428571428577
2.3738955577678778,31.632227134386063,-0.00960384549671351,3.6283482182705393,-2.6074033335840983
2.3708028136482233,30.810215982570924,-0.017289581630717733,3.5195748409915506,-2.3908315647785683
2.36612037416705,30.0125427061653,-0.023427283422964483,3.416714519057371,-2.2018250112229594
2.3601705666250123,29.237903849454387,-0.028310173464316756,3.3192755392983666,-2.0358852517838444
2.3532151181489347,28.48510281376931,-0.03217198719722827,3.226820423180579,-1.8893734105875597
2.345467329840577,27.753038248689734,-0.035200085049362805,3.1389584035983202,-1.7593252372308683
2.3371015951732677,27.04069402695305,-0.037545433796802745,3.05533917672066,-1.6433100295200214
2.3282608901370607,26.347130539614813,-0.03933026217021639,2.9756476696988114,-1.5393220996619665
2.319062702969183,25.671477100482022,-0.040653974072198576,2.8995996271080857,-1.445696619902812
2.3096037551421302,25.012925289011996,-0.041597746163040954,2.8269378639356066,-1.3610438888240672
2.29996377998862,24.37072309206372,-0.04222812473705217,2.7574290660493874,-1.2841976280706278
2.290208562183893,23.744169729419593,-0.04259985617361454,2.6908610438995706,-1.2141740465362547
2.2803923941670328,23.132611067503586,-0.0427581265816936,2.6270403640657016,-1.1501392269010704
2.2705600701398057,22.53543554139005,-0.042740343220280454,2.565790297791125,-1.0913829881174872
2.2607485114465478,21.952070517893038,-0.04257755846022052,2.506949036965513,-1.0372978193756468
2.2509880966874483,21.381979042894997,-0.04229561335803947,2.4503681369305084,-0.9873618098637192
2.2413037542346608,20.82465692460249,-0.04191606014445818,2.3959111525695342,-0.9411247450598913
2.23171586272328,20.279630111477232,-0.041456909519726075,2.34345243982402,-0.8981967262827416
2.2222409957052216,19.746452329470106,-0.04093323846338671,2.292876099368383,-0.8582388115418929
2.212892539336044,19.224702948108018,-0.0403576864859864,2.244075042910668,-0.8209552837837556
2.2036812062286995,18.713985049124265,-0.03974086227353078,2.196950165643694,-0.7860872357469529
2.194615464090394,18.213923674822873,-0.03909167805956087,2.1514096108901457,-0.7534072249513659
2.185701894183749,17.72416423633739,-0.03841762547647819,2.107368115070572,-0.7227148023755456
2.176945491812064,17.244371064475512,-0.03772500384252291,2.064746422858803,-0.6938327575057832
2.1683499187604176,16.774226088005122,-0.03701910965005685,2.0234707638402494,-0.6666039531975045
2.159917715806613,16.31342762609471,-0.03630439429606862,1.9834723832067955,-0.6408886480846744
2.151650481953374,15.861689283220294,-0.035584595732094285,1.9446871200489937,-0.6165622235532884
2.143549025851965,15.418738936232,-0.034862848627986366,1.9070550276752907,-0.5935132476648798
2.1356134939299496,14.984317804469853,-0.03414177678084413,1.870520031125991,-0.5716418207216549
2.1278434789570326,14.558179594857343,-0.03342357080973744,1.835029617678458,-0.5508581570585657
2.1202381121473692,14.140089714806404,-0.032710053622116694,1.8005345566775235,-0.5310813656342455
2.1127961413764003,13.729824546557612,-0.03200273569065665,1.7669886454858894,-0.512238398465058
2.1055159976629483,13.327170777271,-0.031302861817623866,1.7343484787455083,-0.49426314121144077
2.0983958517153285,12.931924779789775,-0.030611450770372126,1.7025732384825485,-0.4770956245241381
2.091433662049482,12.54389203953264,-0.02992932893264466,1.6716245028838528,-0.4606813382796363
2.0846272159462833,12.162886623440691,-0.029257158921252996,1.6414660718287288,-0.44497063372934764
2.077974164315181,11.78873068731993,-0.02859546395789867,1.6120638074822344,-0.4299182009751826
2.071472051364739,11.421254018287755,-0.02794464865464068,1.5833854884497212,-0.41548261116025875
2.0651183398416655,11.060293609357483,-0.027305016763390783,1.5554006761613417,-0.40162591440379736
2.0589104324835654,10.705693263484086,-0.026676786350521266,1.5280805923029905,-0.38831328587493885
2.052845690233127,10.357303224651684,-0.02606010278372642,1.501398006239638,-0.3755127135405846
2.0469214476794555,10.014979833812692,-0.025455049856895978,1.4753271314907364,-0.363194722077337
2.04114466396981,9.678585699515427,-0.02477785196610801,1.4498392537028881,-0.3488965735836217
2.03552145592655,9.347988869447189,-0.024119609279628876,1.4249157903687468,-0.3353208606659377
2.030047508235362,9.023062061018031,-0.023479935861137613,1.400534717710889,-0.3224218370855744
2.0247185972395876,8.703682929721175,-0.02285842062385668,1.3766751196530649,-0.3101572021204424
2.019530595994662,8.389733822358625,-0.022254633679843438,1.3533171182821404,-0.29848780027863014
2.0144794779761543,8.081101545664897,-0.021668131698485478,1.3304418094894233,-0.2873773506385651
2.0095613196526703,7.7776771491888965,-0.021098462418768917,1.308031203345362,-0.2767922025599537
2.0047723021040773,7.479355721391595,-0.020545168438561072,1.2860681688050846,-0.2667011149031665
2.0001087118392435,7.186036198005198,-0.02000779038608104,1.2645363823809943,-0.257075056236455
1.9955669409450527,6.897621181779261,-0.019485869563403282,1.2434202804532297,-0.2478870238076935
1.9911434866792974,6.614016772811372,-0.01897895013881644,1.2227050149197263,-0.23911187931646463
1.9868349506036487,6.335132408725343,-0.01848658095378079,1.2023764119152958,-0.23072619974854205
1.982638037338873,6.060880714019376,-0.018008317000790516,1.1824209333539686,-0.22270814173268152
1.9785495530124362,5.791177357960493,-0.01754372062039821,1.1628256410711204,-0.21503731805294984
1.9745664034583301,5.52594092045069,-0.017092362458786443,1.1435781633619353,-0.20769468510189384
1.970685592220109,5.265092765335027,-0.01665382222139632,1.1246666637307856,-0.20066244019348808
1.9669042184005425,5.008556920662514,-0.016227689253095617,1.1060798116823563,-0.19392392777241468
1.9632194743947642,4.756259965448045,-0.015813562971062664,1.087806755399995,-0.18746355365990142
1.959628643538212,4.508130922517495,-0.0154110531728699,1.0698370961700165,-0.1812667065678555
1.9561290976958374,4.2641011570493355,-0.015019780239082375,1.0521608644226614,-0.17531968619392588
1.952718294814942,4.024104280454534,-0.014639375246965097,1.0347684972712565,-0.16960963728173672
1.9493937764604423,3.788076059262629,-0.01426948000955394,1.0176508174409482,-0.16412448909401003
1.9461531653483253,3.55595432870588,-0.013909747052332876,1.0007990134873042,-0.15885289980263675
1.9429941628904337,3.327678910715324,-0.013559839538028542,0.9842046212131758,-0.1537842053498286
1.9399174095218568,3.103293942710607,-0.013194537580031298,0.96696901361046,-0.1666524921904924
1.9369219017117354,2.8828588901710255,-0.012853356421024845,0.9498575302119764,-0.1817122365617538
1.9340020409951844,2.666345625219627,-0.012536736766375482,0.9328665128436754,-0.19884213521483343
1.9311521438390287,2.453726844476602,-0.012244977634976917,0.9159924501391563,-0.21792466149273038
1.9283664728235939,2.2449760360764017,-0.011978248586195584,0.8992319707321457,-0.23884578861464753
1.9256392651248446,2.0400674481924383,-0.011736600968145076,0.8825818369545022,-0.2614947234635516
1.9229647585135,1.8389760589561313,-0.011519978260941439,0.8660389390133738,-0.2857636497748804
1.920337215071508,1.6416775476628196,-0.011328225582466005,0.8496002896241243,-0.3115474796660566
1.9177509428113977,1.448148267162015,-0.011161098418493977,0.8332630190785144,-0.33874361248072105
1.9152003153703854,1.2583652173339885,-0.011018270633786855,0.8170243707303975,-0.3672516999486242
1.912679789938677,1.0723060195583436,-0.010899341815850696,0.8008816968838914,-0.3969734166820153
1.910183923570028,0.8899488920834564,-0.01080384399848903,0.7848324550716639,-0.42781223504215204
1.9077073880122826,0.7112726262081495,-0.01073124780799063,0.768874204713623,-0.459673203415169
1.9052449831862273,0.5362565631889495,-0.010680968070752072,0.7530046041489964,-0.4924627269348351
1.9027916494326003,0.3648805717875021,-0.010652368917308426,0.7372214080375216,-0.526088349680488
1.9003424786394885,0.19712502637343476,-0.01064476841409936,0.7215224651283066,-0.5604585373613223
1.897892724355525,0.032970785497923316,-0.010657442750799679,0.7059057163978902,-0.5954824594728412
1.895437810988302,-0.1276008291474824,-0.010689630007660848,0.6903691935621709,-0.6310697698771276
1.8929733421821597,-0.2846080534737112,-0.010740533524010923,0.674911017970244,-0.6671303847150551
1.89049510846503,-0.4380687015278468,-0.010809324885811895,0.659529399891831,-0.7035742565048938
1.8879990942502634,-0.5880001859100119,-0.01089514654694176,0.644222638213969,-0.740311143217132
1.885481484276369,-0.7344195381698242,-0.010997114095618562,0.6289891205670276,-0.7772503710387412
1.882938669565354,-0.8773434292841102,-0.011114318174077643,0.6138273239050092,-0.814300589450438
1.8803672529788706,-1.0167881903238012,-0.011245826056211666,0.5987358155705624,-0.8513695171364835
1.877764054450707,-1.152769833425765,-0.011390682884342258,0.583713254881314,-0.8883636771267921
1.8751261159743127,-1.285304073194446,-0.01154791256256523,0.5687583952811129,-0.925188119434057
1.8724507064251008,-1.4144063486691678,-0.01171651830014629,0.5538700871077473,-0.9617461292925485
1.8697353262992529,-1.5400918460059074,-0.011895482794183376,0.5390472810377926,-0.9979389189284386
1.8669777124537668,-1.662375522037415,-0.012083768036130533,0.5242890322796909,-1.0336653005921068
1.8641758429366133,-1.7812721288933702,-0.012280314721724797,0.5095945055981679,-1.0688213383590952
1.8613279420012119,-1.8967962398828604,-0.012484041238289672,0.49496298126693694,-1.10329997595654
1.8584324854061287,-2.008962276865759,-0.012693842197214374,0.48039386206262163,-1.1369906375947212
1.8554882061091091,-2.1177845393675625,-0.012908586472521473,0.4658866814313047,-1.1697787984781645
1.8524941004744169,-2.2232772357249146,-0.01312711469871633,0.45144111298047807,-1.2015455213379134
1.849449435124236,-2.3254545165871647,-0.013348236172420999,0.43705698147387206,-1.2321669549682885
1.8463537545787734,-2.4243305111432036,-0.013570725092472377,0.4227342755351699,-1.261513790372447
1.8432068898460066,-2.519919366494193,-0.01379331606202152,0.4084731622994923,-1.2894506697301802
1.8400089681410732,-2.6122352906519026,-0.014014698763486376,0.39427400428929,-1.3158355430135444
1.8367604239374598,-2.701292599711131,-0.014233511702717878,0.38013737883440923,-1.3405189667149768
1.833462011577904,-2.787105769823661,-0.014448334902114434,0.36606410040498394,-1.363343338855781
1.8301148197027863,-2.8696894946925013,-0.014657681403255764,0.3520552462806039,-1.3841420642670668
1.8267202877884108,-2.949058749409332,-0.014859987417399962,0.3381121860396338,-1.4027386441661418
1.823280225127747,-3.025228861576906,-0.015053600936200172,0.32423661541755716,-1.4189456844170947
1.8197968326328908,-3.098215590792229,-0.01523676858428696,0.310430595150472,-1.432563817755489
1.8162727278929642,-3.1680352177152997,-0.015407620458552714,0.2966965954849377,-1.4433805369563109
1.8127109739850176,-3.234704644111474,-0.015564152654027958,0.2830375470904858,-1.4511689388500852
1.8091151126109988,-3.2982415054283365,-0.015704207120047557,0.2694568991430902,-1.4556863838640086
1.8054892022241118,-3.3586642976433296,-0.015825448418098784,0.25595868533512234,-1.4566730833009938
1.8018378619175293,-3.4159925202814776,-0.01592533685653329,0.24254759847486693,-1.4538506382310508
1.7981663219844073,-3.470246837628835,-0.01600109734452736,0.22922907411087445,-1.4469205716778846
1.7944804822312914,-3.5214492602156042,-0.016049683117349216,0.21600938316539706,-1.4355629227428754
1.7907869793545461,-3.5696233485458038,-0.016067733202174972,0.202895732749361,-1.419435011882182
1.787093264999456,-3.614794440700706,-0.016051522059479184,0.1898963729454387,-1.3981705473603607
1.78340769656043,-3.65698990467115,-0.01599689914944302,0.17702070505844586,-1.3713793337160565
1.7797396434257369,-3.6962394148149897,-0.0158992150652785,0.16427938314884002,-1.3386479781710174
1.776099612352059,-3.732575249285482,-0.01575322905366107,0.15168439485540777,-1.2995421907798836
1.7724993971947707,-3.766032601026083,-0.015552989705368276,0.13924909854110268,-1.25361156716678
1.7689522606975034,-3.7966498880919417,-0.015291675488258607,0.12698818029244485,-1.20039816583565
1.7654731601043632,-3.8244690384179876,-0.014961373147743599,0.1149174747166373,-1.1394507868311206
1.7620790350966438,-3.8495357081860604,-0.014552757354164598,0.103053566744861,-1.0703476546135038
1.7587891878213253,-3.8718993701648756,-0.014054610257300251,0.09141305915789137,-0.9927311746395397
1.7556258036454548,-3.8916131784974013,-0.013453078228529185,0.08001136112493566,-0.9063593580606786
1.7526146927764503,-3.908733483242081,-0.012730494545423606,0.06886085404619521,-0.8111787315212581
1.7497863852853663,-3.9233188462946558,-0.011863483637916025,0.05796838988921465,-0.7074214608160069
1.7471777998011873,-3.935428438861557,-0.010819868398423662,0.04733241504035964,-0.5957218004362664
1.7448348607959627,-3.9451198626911577,-0.009553514255702972,0.036940835651833565,-0.4772290261160697
1.7428167592630297,-3.952446886454368,-0.007995194726323242,0.026772414463022795,-0.35366274034881134
1.7412034465663488,-3.957458618052776,-0.0060336113317725655,0.01680786030574432,-0.227221021338353
1.7401116464822466,-3.9602043644577805,-0.003460302443028799,0.007068195389952993,-0.10024364571205091
