x,y,v_x,v_y,omega
2.375,32.48,0.0,2.6153846153846154,-4.448979591836735
2.3742388053862302,31.988145629462043,-0.008012574881787322,2.5620298113307087,-4.2130172774123515
2.3720504687651007,31.506259982173926,-0.015022547445891873,2.5104506864389293,-3.9953828549502055
2.3686142461710546,31.03401505084388,-0.021148216701959807,2.4605485907194513,-3.7941989247399737
2.364088359305472,30.571100839139323,-0.026492697672598573,2.412232585117988,-3.6078179714114706
2.3586126751395993,30.117223974401213,-0.031146083020794607,2.3654186226515757,-3.434790039380692
2.352311007287958,29.67210646519934,-0.03518726278595421,2.320028842631275,-3.273835529369644
2.3452930984060503,29.2354845840697,-0.0386854622867609,2.275990958733404,-3.123822211844449
2.3376563325675597,28.807107859067422,-0.041701546539458,2.233237725501092,-2.9837457298330063
2.3294872182621718,28.386738160416105,-0.04428913035935969,2.1917064708285725,-2.852713002257143
2.320862675902397,27.97414887067817,-0.04649552605931893,2.1513386843075684,-2.729928048555135
2.3118511582125656,27.56912412861962,-0.048362554886279184,2.112079653150858,-2.6146798426173574
2.302513627345613,27.17145813837799,-0.049927243713221506,2.0738781388662964,-2.5063318739017353
2.292904408838965,26.780954536728736,-0.0512224247778118,2.036686089020569,-2.404313149820735
2.2830719394272907,26.397425812231596,-0.052277253239812055,2.0004583793703823,-2.3081104189897452
2.2730594231568397,26.020692770863526,-0.053117654870194826,1.9651525823987748,-2.217261431924279
2.2629054080977897,25.650584043438865,-0.05376671417243709,1.9307287589134643,-2.1313490859964883
2.2526442941510947,25.286935630704278,-0.05424501158224971,1.8971492698716357,-2.049996326256791
2.2423067809332498,24.929590482495154,-0.05457091702664438,1.864378606013889,-1.9728616941513057
2.231920263446481,24.578398107766347,-0.054760845991970133,1.83238323323674,-1.899635433055059
2.221509182162808,24.233214212676273,-0.05482948330985146,1.8011314519219188,-1.8300360735572876
2.21109533323529,23.893900364218844,-0.054789979085076934,1.7705932686826,-1.7638074331073317
2.200698143771618,23.56032367717092,-0.05465412053252012,1.7407402791902693,-1.7007159743814766
2.19033491644186,23.232356522360632,-0.054432482938617396,1.7115455609180559,-1.6405484749039867
2.18002104712533,22.909876254469072,-0.05413456249854364,1.6829835747825665,-1.5831099673255473
2.1697702188160917,22.592764957759584,-0.05376889338817735,1.655030074790975,-1.5282219155535386
2.159594574589894,22.280909208288282,-0.05334315109810876,1.6276620249069709,-1.4757205968237264
2.149504872076913,21.97419985129022,-0.05286424377537819,1.6008575224410606,-1.4254556639515528
2.1395106215757322,21.672531792560065,-0.05233839307915668,1.5745957273500475,-1.3772888655259476
2.12962020967723,21.37580380275638,-0.051771205852445414,1.5488567968992586,-1.331092904810546
2.119841010036187,21.083918333656868,-0.05116773773748046,1.5236218252008558,-1.286750420679887
2.1101794827283684,20.79678134547939,-0.05053254971324041,1.4988727871937078,-1.244153076110811
2.100648315022437,20.51430469326963,-0.04979553140182756,1.4745656571195314,-1.2006816512769676
2.0912582659219057,20.236403287165146,-0.049047090709027935,1.4507123018750396,-1.1591334438170613
2.0820112585828467,19.96299240770097,-0.04828982864948931,1.4272969556425914,-1.1194010888827615
2.0729087489391755,19.69399026441919,-0.0475260623365224,1.4043045525866376,-1.0813843487259767
2.0639517768933917,19.429317866609097,-0.046757853934888696,1.3817206875196326,-1.0449895641435418
2.0551410122952602,19.168898901269387,-0.04598703657175647,1.3595315792141993,-1.0101291537981858
2.046476796254324,18.912659617809524,-0.04521523754336106,1.3377240361527356,-0.9767211567509024
2.0379591782717745,18.66052871904518,-0.04444389911505542,1.3162854245246145,-0.9446888140411163
2.0295879496239726,18.412437258077016,-0.043674297177598846,1.2952036382981373,-0.9139601855934651
2.0213626733828574,18.168318540673773,-0.04290755799203498,1.2744670712096782,-0.8844677991210964
2.01328271141688,17.928108032808865,-0.04214467322877824,1.2540645905261991,-0.8561483280415632
2.0053472486792545,17.691743273026155,-0.04138651348306771,1.2339855124497028,-0.8289422957282861
1.9975553150576717,17.459163789334312,-0.04063384042833236,1.2142195790433603,-0.8027938036929616
1.9899058050306468,17.230311020351124,-0.03988731775087525,1.1947569365691562,-0.7776502815364325
1.9823974953499492,17.00512824043913,-0.03914752099331075,1.1755881151360221,-0.7534622567210545
1.9750290609456749,16.783560488592464,-0.03841494642010311,1.1567040095657213,-0.7301831424096429
1.9677990892301835,16.565554500851555,-0.03769001900612115,1.1380958613912475,-0.7077690417874559
1.9607060929589792,16.351058646038,-0.036973099638136143,1.119755241909336,-0.6861785674367631
1.9537485217904567,16.1400228646162,-0.036264491609470005,1.1016740362148838,-0.6653726744704787
1.9469247726720145,15.932398610501465,-0.03556444647939381,1.0838444281507327,-0.6453145062539558
1.9402331991671535,15.728138795646561,-0.0348731693612472,1.0662588861114184,-0.6259692516539638
1.9336721198266695,15.527197737249779,-0.0341908236964798,1.0489101496441913,-0.6073040128525218
1.9272398256967527,15.329531107438065,-0.03351753556580385,1.0317912167949104,-0.5892876828519021
1.9209345870475873,15.135095885288266,-0.03285339758330304,1.0148953321503411,-0.5718908318768376
1.9147546593977878,14.943850311058444,-0.03219847241458741,0.998215975531981,-0.5550856019517432
1.9087032836235194,14.755957822401694,-0.03150021994613485,0.9795996945390636,-0.5814845653822494
1.9027807270603003,14.571591862239647,-0.030842480719326864,0.9610946229561727,-0.6094580374510515
1.8969793869180767,14.390731578564814,-0.030224257619870888,0.9426978367788993,-0.6388942161197969
1.8912918544422759,14.213356663857947,-0.029644505283294945,0.9244065285565295,-0.6696834934496425
1.8857109235876701,14.039447333300792,-0.029102135291503076,0.9062180036240552,-0.7017182121211321
1.880229598750137,13.868984303666718,-0.0285960208930573,0.888129676734613,-0.7348924258906532
1.87484110164384,13.701948772813797,-0.028125001278489763,0.8701390690856082,-0.7691016629726387
1.8695388774056978,13.538322399705876,-0.027687885438794916,0.8522438057345969,-0.8042426913330732
1.8643166000039502,13.37808728488772,-0.027283455632232247,0.8344416134038904,-0.8402132848685655
1.8591681770231303,13.221225951340141,-0.026910470481659926,0.8167303186758783,-0.8769119894259786
1.8540877538938023,13.06772132564043,-0.026567667721793836,0.7991078465842463,-0.9142378875900038
1.8490697176319952,12.91755671935201,-0.02625376661301903,0.7815722196096717,-0.9520903611296849
1.844108700150372,12.770715810565328,-0.02596747003564615,0.7641215570922365,-0.9903688499492096
1.8391995812007869,12.62718262550927,-0.025707466275776917,0.7467540750767775,-1.0289726063326605
1.8343374910060246,12.48694152014886,-0.02547243051119264,0.7294680866117563,-1.0678004432061519
1.8295178126371878,12.349977161680673,-0.025261026002878436,0.7122620025270472,-1.1067504750630541
1.8247361841923977,12.216274509832072,-0.025071904994912245,0.6951343327213948,-1.1457198501079622
1.8199885008322485,12.085818797863894,-0.024903709322447946,0.6780836879962848,-1.1846044720717017
1.8152709167278007,11.958595513168675,-0.02475507072436939,0.6611087824796976,-1.223298710032005
1.8105798469778702,11.834590377347475,-0.024624610853847137,0.6442084366908125,-1.2616950944414536
1.8059119695539922,11.71378932563784,-0.024510940976447695,0.6273815813053366,-1.2996839974148606
1.80126422733378,11.596178485553196,-0.024412661341577654,0.6106272616909063,-1.337153295161516
1.7966338302864906,11.481744154579712,-0.024328360208837434,0.593944643293146,-1.3739880102628745
1.792018257878557,11.370472776760124,-0.024256612506250684,0.5773330179656664,-1.4100699312929494
1.7874152617716987,11.262350917974967,-0.02419597809225649,0.5607918113517872,-1.4452772070569904
1.7828228688921006,11.157365239709524,-0.024144999587724553,0.5443205914423379,-1.4794839124850447
1.7782393849561577,11.055502471069484,-0.024102199737988852,0.5279190784528075,-1.5125595829630312
1.7736633985465493,10.956749378778923,-0.024066078257890314,0.5115871561846953,-1.5443687136193183
1.7690937858420792,10.861092734860634,-0.02403510810495357,0.49532488506047323,-1.5747702198166862
1.7645297161159976,10.768519281660193,-0.02400773111695602,0.479132517049422,-1.6036168548393062
1.7599706581305765,10.67901569383086,-0.023982352940109444,0.46301051273302496,-1.6307545805293775
1.7554163875708135,10.59256853684581,-0.023957337162658503,0.44695956079378524,-1.656021886444353
1.7508669956775744,10.509164221546623,-0.023930998555647325,0.430980600250308,-1.679249053011676
1.7463228992605675,10.428788954171463,-0.023901595307582013,0.4150748458040053,-1.7002573542098303
1.7417848522947306,10.351428681232811,-0.023867320122281856,0.3992438167081179,-1.7188581955838647
1.7372539593303813,10.27706902853198,-0.023826290028763263,0.3834893696164246,-1.7348521840284021
1.7327316909785182,10.205695233506557,-0.023776534727690875,0.3678137359143554,-1.7480281269117481
1.7282199017687818,10.137292070007597,-0.02371598326953468,0.35221956407470645,-1.7581619600163856
1.7237208507199648,10.071843764497896,-0.023642448823274168,0.33670996760636906,-1.7650156067873013
1.7192372250131427,10.009333902554555,-0.02355361124853935,0.3212885791656457,-1.7683357760195166
1.7147721672177294,9.94974532445487,-0.023446997124231487,0.30595961135736166,-1.7678527121144425
1.7103293065943301,9.893060008535262,-0.023319956806285746,0.29072792463850483,-1.7632789224516152
1.7059127950900312,9.839258940956466,-0.02316963797580976,0.2755991025066964,-1.7543079217898683
1.701527348759273,9.788321970512772,-0.022992954979539765,0.26057953374270476,-1.7406130561433901
1.6971782954983397,9.74022764723314,-0.022786553030283124,0.24567650077971226,-1.7218465014682065
1.6928716301921969,9.69495304380565,-0.022546765981746878,0.23089827214124975,-1.697638580341689
1.6886140786683645,9.65247355941763,-0.022269565848065713,0.21625419510108396,-1.6675976092009446
1.684413172281148,9.612762706598186,-0.02195050138579449,0.20175478194570007,-1.6313105889369564
1.6802773355878091,9.5757918833085,-0.021584621701983032,0.18741177899837483,-1.5883451956490489
1.6762159905516092,9.541530135184434,-0.02116637867906788,0.17323820125496434,-1.5382537335036837
1.672239682219952,9.509943916969902,-0.020689498496271566,0.15924830626641961,-1.4805799997942664
1.6683602332137135,9.480996868427276,-0.020146806832554178,0.14545746786649447,-1.414870407646967
1.6645909381703823,9.454649629163502,-0.019529983097247735,0.1318818928048059,-1.3406912325100329
1.6609468153866862,9.430859729678335,-0.018829204099551702,0.1185381017759053,-1.257654484019229
1.65744494270386,9.40958161292792,-0.01803261361440975,0.10544207454428157,-1.1654555620511844
1.6541049203601754,9.390766860718415,-0.0171255163191123,0.09260794871364633,-1.0639262450857219
1.6509495284891365,9.3743647173355,-0.016089134954981724,0.0800461921591645,-0.9531059793936244
1.6480056865214356,9.360323005470217,-0.014898675231342043,0.06776130115959117,-0.8333314525725222
1.6453058855121276,9.348589486933868,-0.013520282761373839,0.05574942027566742,-0.7053366233033314
1.6428903748885264,9.339113576666872,-0.011906144855481793,0.04399700358743995,-0.5703399334265395
1.6408106148495287,9.33184797908665,-0.009986066081335855,0.03248297094120241,-0.4300723007825845
1.6391351429514058,9.3267491035874,-0.00765048021469488,0.02118940273511266,-0.286677895934725
1.6379614683485788,9.323773332640659,-0.004703989288749207,0.010134501967401911,-0.14242112682801333
1.6374534672011796,9.322856780036517,-0.0006433912101886322,-0.00048657981855248535,0.0007621415790590169
