x,y,v_x,v_y,omega
2.375,32.48,0.0,2.8205128205128203,-7.755102040816326
2.3728697798339162,31.839397997105664,-0.01852365361812137,2.7499393785683313,-7.231736320468958
2.366807805677781,31.21465956724306,-0.034189165130877656,2.6825687071934423,-6.761459266669024
2.3574224013810303,30.605076674040298,-0.047423046145216724,2.61815210326537,-6.3372453145393
2.3452318648928188,30.009995158263187,-0.058581618969665024,2.556469773057335,-5.953181836183264
2.3306791121367594,29.42880862554179,-0.06796405716998319,2.4973261636504613,-5.60426485803663
2.3141436381710814,28.860953297902554,-0.07582267296634802,2.440546250603765,-5.286237554190122
2.295951352927718,28.30590363564268,-0.08237111175855096,2.3859725516560157,-4.995461405666896
2.2763827174946476,27.7631685818996,-0.08779093548553729,2.333462698283803,-4.728812584995545
2.255679510469821,27.232288315907855,-0.09223695168686837,2.2828874407748407,-4.483598016426528
2.234050482047483,26.712831425928044,-0.09584155633346061,2.2341289938322038,-4.257486922380343
2.211676099223111,26.204392431609143,-0.09871829431325511,2.1870796524191087,-4.048454658883193
2.1887125440226747,25.70658959980265,-0.10096479438619067,2.1416406241590944,-3.8547363756867354
2.1652950946180436,25.2190630087828,-0.10266520043668709,2.0977210368830894,-3.674788584524194
2.1415409941968666,24.741472824296928,-0.10389219453007154,2.0552370890810376,-3.507257132674684
2.117551892791443,24.273497757491317,-0.10470868725621714,2.014111317924267,-3.350950394534281
2.0934159316792758,23.814833679980453,-0.10516923545828366,1.9742719647789202,-3.204816736680215
2.069209527517411,23.365192375482295,-0.10532123551445347,1.9356524221615652,-3.067925500264194
2.044998903366751,22.924300410774975,-0.10520593101302594,1.898190749206449,-2.9394508917912323
2.020841405674217,22.491898111424458,-0.10485926631335375,1.8618292451458676,-2.8186582892144334
1.9967866397076413,22.06773862992775,-0.10431261165687268,1.826514072216815,-2.7048925620659436
1.9728774505704383,21.651587095716884,-0.10359338084054347,1.7921949209211414,-2.5975680774906773
1.9491507725197577,21.243219837956893,-0.10272555873059222,1.758824711774428,-2.4961601226635572
1.925638365684462,20.842423673308158,-0.10173015288067434,1.7263593286493641,-2.400197521284214
1.9023674562796122,20.448995251858953,-0.10062558107454125,1.6947573796046056,-2.309256260058018
1.8793612939244757,20.062740455305534,-0.09942800462229785,1.6639799817294683,-2.22295397214533
1.8566396375976923,19.683473842194886,-0.09815161561060057,1.633990567058771,-2.1409451499354093
1.8342191800309777,19.311018135673052,-0.09680888496952536,1.6047547070441168,-2.062916980306874
1.812113918891112,18.945203749718978,-0.0954107771162646,1.5762399534261202,-1.988585712661283
1.7903354818799988,18.585868350305127,-0.09396693602385103,1.5484156936508184,-1.91769348416311
1.7688934118545254,18.232856448324533,-0.09248584680635051,1.5212530192239226,-1.8500055383465424
1.7477954171993577,17.88601902146891,-0.09097497628206568,1.494724605607588,-1.7853077830033
1.727086544374971,17.545221694032477,-0.08910217871260107,1.4687304155787904,-1.7141221293072373
1.70680679461339,17.210335273234378,-0.08724347138810364,1.4433254174481451,-1.6465940111007276
1.6869525404318735,16.881226961450775,-0.08540221714682152,1.4184859893657904,-1.5824878374672482
1.6675194419064967,16.55776925189147,-0.08358124829123632,1.3941897459324968,-1.5215860820797198
1.6485025610109616,16.239839653629605,-0.08178293340906981,1.3704154563445876,-1.4636876791031193
1.629896461543605,15.927320434705681,-0.08000923587229317,1.347142969080852,-1.4086065805352086
1.6116952964329379,15.6200983818722,-0.07826176509002827,1.3243531425146238,-1.3561704568567459
1.5938928839814586,15.31806457567934,-0.07654182144457584,1.3020277809015444,-1.3062195251069948
1.5764827744081829,15.021114179721625,-0.07485043571434156,1.28014957525249,-1.2586054904412445
1.5594583078778446,14.729146242972508,-0.07318840367990502,1.2587020486528793,-1.2131905889089285
1.5428126650551812,14.442063514229389,-0.07155631651716772,1.2376695056351052,-1.1698467206512568
1.5265389110929606,14.159772267777491,-0.06995458750214152,1.2170369852509757,-1.1284546639876987
1.5106300338496028,13.882182139458077,-0.06838347548357912,1.1967902175265224,-1.0889033619679267
1.4950789770341124,13.609205972396037,-0.0668431055206848,1.1769155830129656,-1.0510892739326727
1.4798786688905294,13.340759671704362,-0.06533348703221199,1.1574000751755111,-1.0149157854726365
1.4650220469595174,13.076762067539736,-0.0638545297591969,1.1382312653864521,-0.980292670915586
1.4505020793895869,12.81713478593451,-0.06240605780541565,1.1193972703111563,-0.9471356031221253
1.4363117832135104,12.561802126876774,-0.06098782198655321,1.1008867214952358,-0.9153657059422987
1.4224442399556692,12.310690949152256,-0.059599510690327845,1.0826887369788405,-0.8849091451885501
1.408892608892427,12.063730561500012,-0.05824075942482068,1.0647928947798129,-0.8556967544244036
1.3956501382493651,11.82085261966865,-0.05691115921050195,1.047189208101618,-0.8276636922602066
1.3827101745856218,11.581991028991471,-0.05561026395248148,1.0298681021346991,-0.800749128193928
1.3700661705860957,11.347081852127872,-0.05433759691296469,1.012820392331371,-0.7748959543420203
1.357711691456319,11.116063221644623,-0.05309265638944214,0.9960372640446991,-0.7500505206776349
1.3456517940941144,10.888988148510112,-0.05177601632537974,0.9785285892988674,-0.745977306777918
1.3338894314760203,10.665924365884447,-0.05050539774500301,0.9611564770112693,-0.7446762091540938
1.3224140459994294,10.446840953321988,-0.0492805629210062,0.9439166757057509,-0.745997388972341
1.311215149608028,10.231707946821384,-0.048101144830309896,0.9268051199516709,-0.7497963308122964
1.3002823521070581,10.0204962971153,-0.0469666595259496,0.9098179209707862,-0.7559334647498794
1.2896053867518629,9.813177830038505,-0.04587651747574825,0.8929513579578594,-0.7642738064667671
1.2791741333381494,9.609725208815124,-0.04483003394784659,0.8762018700715258,-0.7746866136872762
1.268978639004744,9.410111898115396,-0.043826438516549694,0.8595660490565512,-0.7870450573425835
1.2590091369434184,9.214312129740655,-0.042864883755845774,0.8430406324629184,-0.8012259059488475
1.2492560631955303,9.022300869802827,-0.041944453182311825,0.8266224974312393,-0.8171092217607127
1.2397100717016167,8.83405378727118,-0.041064168503893085,0.8103086550178538,-0.8345780673255593
1.2303620477576576,8.649547223764909,-0.04022299622618659,0.7940962450366783,-0.8535182211172657
1.2212031200203628,8.468758164474867,-0.03941985366333321,0.7779825313984549,-0.873817900971613
1.2122246711934945,8.291664210101914,-0.03865361439639078,0.7619648979315586,-0.8953674940791138
1.2034183475178295,8.118243549702505,-0.03792311321808859,0.7460408446719935,-0.9180592923152024
1.1947760671788508,7.9484749343346515,-0.037227150599118373,0.7302079846136781,-0.9417872317025143
1.186290027738582,7.782337651399008,-0.03656449670756689,0.7144640409136457,-0.9664466348054152
1.177952712691095,7.619811499570645,-0.03593389500971177,0.6988068445503904,-0.9919339548529568
1.1697568972351053,7.460876764217055,-0.035334065477154675,0.683234332437342,-1.0181465203728564
1.161695653351688,7.305514193197062,-0.03476370742212635,0.6677445459973883,-1.044982279095674
1.1537623542704736,7.1537049729333795,-0.03422150197973744,0.6523356302085548,-1.072339539854743
1.145950678403716,7.00543070464882,-0.03370611425293832,0.6370058331354416,-1.1001167111631767
1.1382546128243376,6.860673380652166,-0.03321619513296056,0.6217535059658994,-1.1282120350939195
1.1306684563614708,6.719415360554645,-0.03275038280501161,0.6065771035777582,-1.1565233150217742
1.1231868223851103,6.581639347291578,-0.032307303945950265,0.5914751856663047,-1.1849476357070037
1.1158046413503078,6.447328362815934,-0.03188557461754984,0.5764464184697353,-1.213381074107862
1.1085171631708817,6.316465723321148,-0.031483800855721125,0.5614895771370955,-1.241718399203627
1.1013199594929155,6.189035013839373,-0.031100578952680244,0.5466035487913957,-1.2698527589898845
1.0942089259394292,6.065020062048134,-0.030734495425462135,0.5317873363497952,-1.2976753526735787
1.0871802843995604,5.944404911102996,-0.030384126660353193,0.5170400631731418,-1.325075085946626
1.0802305854384702,5.82717379129576,-0.03004803821869171,0.5023609786289192,-1.3519382070540948
1.073356710908045,5.71331109031696,-0.02972478378500403,0.4877494646649868,-1.378147921197169
1.0665558768434125,5.602801321877227,-0.0294129037335397,0.4732050435066025,-1.4035839806245227
1.0598256367364112,5.495629092414237,-0.02911092328386287,0.45872738660633733,-1.4281222475720687
1.0531638852845986,5.3917790655799855,-0.02881735021016012,0.4443163249958383,-1.4516342270162843
1.0465688627232739,5.2912359241662905,-0.0285306720622294,0.4299718612101958,-1.4739865660197409
1.0400391598585292,5.1939843290844045,-0.028249352848593572,0.4156941829801152,-1.4950405162829485
1.0335737239317182,5.100008874966548,-0.027971829123675976,0.40148367891428305,-1.5146513563947221
1.0271718654601976,5.009294041902617,-0.027696505411285943,0.387340956424252,-1.5326677702239377
1.0208332662160637,4.921824142763519,-0.027421748885530308,0.3732668621765935,-1.5489311779621178
1.0145579885242326,4.837583265493201,-0.027145883217348024,0.35926250539140087,-1.5632750165711315
1.0083464860840736,4.7565552096739445,-0.026867181479686513,0.34532928434127574,-1.5755239669028196
1.0021996165454927,4.678723416584251,-0.026583857986234492,0.3314689164386509,-1.5854931256654123
0.9961186561016626,4.604070891876059,-0.02629405891663616,0.31768347232824046,-1.5929871218979472
0.9901053163975602,4.5325801199000075,-0.02599585155381915,0.30397541442003884,-1.597799179939523
0.9841617640975713,4.464232968607444,-0.02568721192434562,0.2903476402979101,-1.5997101344182532
0.9782906435087324,4.3990105838615,-0.025366010587296917,0.2768035314059408,-1.5984874080687992
0.9724951027217403,4.336893271907012,-0.02502999625611155,0.26334700732873517,-1.5938839709812156
0.9667788238141717,4.277860368695897,-0.02467677685318152,0.24998258581138505,-1.585637311281612
0.9611460577662547,4.221890094765872,-0.024303797476531355,0.2367154483627456,-1.5734684638141063
0.9556016648795274,4.168959394464306,-0.02390831458196813,0.22355151078129126,-1.557081167376601
0.950151161679138,4.119043758554344,-0.02348736542141695,0.21049749713143015,-1.5361612556611122
0.9448007755471417,4.072117029725263,-0.023037731378551474,0.19756101442579846,-1.5103764368062234
0.9395575087176788,4.0281511913853265,-0.02255589322547395,0.18475062331277345,-1.4793766877696344
0.9344292138304973,3.9871161415364753,-0.022037975358712932,0.17207589711203042,-1.4427955913916888
0.929424684091126,3.948979455796241,-0.021479674548863487,0.1595474571508636,-1.4002530878673185
0.9245537623915032,3.9137061471374253,-0.02087616631742182,0.14717696596927332,-1.3513603133841479
0.919827475772478,3.8812584351934625,-0.02022197819584089,0.13497705093473925,-1.2957274740160887
0.9152582047883406,3.8515955456992828,-0.019510812970571754,0.12296111857987684,-1.2329760672768213
0.9108599023433852,3.82467357153622,-0.018735295246431468,0.11114300457717913,-1.162757216879577
0.9066483844751319,3.8004454414462003,-0.017886599260119894,0.09953638750993843,-1.0847783836107867
0.9026417279920376,3.7788610603737744,-0.016953891897221546,0.08815388268507227,-0.9988411042175537
0.8988608292978351,3.759867703669329,-0.01592348805236465,0.07700574083183057,-0.9048923079121193
0.8953302088582573,3.743410757432919,-0.014777559248312155,0.06609813948477675,-0.8030903539968461
0.8920791925922569,3.729434879268741,-0.013492147412560747,0.0554312358558903,-0.6938827636030831
0.8891436772075103,3.717885568786766,-0.012034073324365804,0.044997550943879444,-0.5780836649538094
0.8865688257255984,3.7087109190697234,-0.010355939561824068,0.034782011813002986,-0.4569239515645361
0.8844133667253056,3.7018628612677134,-0.008387182179852747,0.02476631690011776,-0.3320291529410142
0.8827572124945398,3.6972962499875592,-0.006014158957240563,0.01494334640556861,-0.20527072387474532
0.8817187947847305,3.6949611333032912,-0.0030155602584921934,0.005362016066333028,-0.07845417686136621
