x,y,v_x,v_y,omega
2.375,32.48,0.0,2.5128205128205128,-6.653061224489796
2.3740504128694297,32.03207737825884,-0.010550968117448191,2.4640975065257043,-6.326855492659652
2.371312009675783,31.592787093744693,-0.01987573403418258,2.416905654742579,-6.023888193867004
2.366993446772644,31.16186119118609,-0.02810829822291621,2.371159929241894,-5.741948609025709
2.3612807121154993,30.739046391566276,-0.03536653130091251,2.3267822887560365,-5.479080765334408
2.3543398307973677,30.324102906697107,-0.04175437223388147,2.2837008764569333,-5.2335492047958105
2.346319205647591,29.916803387569676,-0.0473636849858584,2.2418493360701133,-5.003810028417967
2.3373516489225645,29.516931987012363,-0.05227583418110644,2.2011662256777784,-4.78848629329159
2.3275561513124225,29.124283520580118,-0.05656302815380209,2.1615945124582883,-4.586347021204352
2.3170394266295036,28.738662712319673,-0.06028946832307872,2.123081134880008,-4.396289219224772
2.305897264199127,28.359883514251397,-0.06351233645888142,2.0855766214341553,-4.217322424311117
2.2942157158140244,27.987768490190696,-0.06628264559781291,2.049034757018081,-4.04855537252686
2.282072139891876,27.622148255986936,-0.06864597575939259,2.0134122896903723,-3.8891844641316626
2.2695361220000003,27.262860969452326,-0.07064311192811809,1.978668671805287,-3.7384837526209784
2.256670288034465,26.909751864238814,-0.07231059880005078,1.9447658305670603,-3.59579623170814
2.243531023947453,26.56267282273869,-0.07368122438897284,1.9116679638787657,-3.460526231573853
2.230169113915929,26.221481983766235,-0.07478444262795712,1.8793413580373828,-3.332132766216044
2.2166303071647446,25.886043381348774,-0.07564674349631259,1.8477542243788583,-3.210123698788379
2.202955822240993,25.556226611436028,-0.07629197787870737,1.8168765524294324,-3.094050612488911
2.189182796337814,25.231906523743096,-0.07674164326772416,1.7866799774920439,-2.98350429169228
2.1753446862478305,24.912962936287386,-0.07701513550987071,1.7571376609047542,-2.8781107322750135
2.1614716266588907,24.599280370474187,-0.07712997103390588,1.7282241814640917,-2.7775276119926273
2.1475907507632597,24.29074780483764,-0.07710198336199416,1.6999154367197788,-2.6814411617524985
2.1337264775156637,23.9872584457605,-0.07694549716684984,1.6721885530262162,-2.589563387027781
2.1199007693290772,23.688709513683342,-0.07667348268411034,1.6450218033866149,-2.5016295957496077
2.106133363526105,23.3950020434758,-0.07629769290447005,1.61839453225279,-2.4173961950202756
2.0924419804568286,23.10604069778342,-0.0758287856430487,1.5922870865514018,-2.336638724090644
2.078842510841539,22.82173359228687,-0.07527643230460972,1.5666807522991728,-2.2591500953892445
2.0653491845908896,22.541992131917628,-0.07464941492482914,1.5415576962479534,-2.184739019100726
2.051974723089945,22.26673085716922,-0.07395571286344531,1.5169009120676875,-2.1132285899680054
2.0387304767007794,21.99586729972615,-0.07320258034950362,1.4926941706331092,-2.0444550177192364
2.0256307672032863,21.72932751064318,-0.07234974740042487,1.4688590413998481,-1.9756153730894266
2.0126873149114703,21.46703999186456,-0.07146638917530669,1.4454467228070411,-1.9096934140326949
1.9999052181326173,21.208929925950777,-0.07055690836750526,1.422442898457218,-1.846532527452532
1.9872888211653752,20.954925016469044,-0.06962528015740611,1.3998338735620475,-1.7859861014239795
1.9748417876245037,20.704955379222213,-0.06867509251894319,1.3776065402916198,-1.7279167832263047
1.9625671668674745,20.458953439503752,-0.0677095825591613,1.3557483454690573,-1.6721957999329333
1.9504674541995695,20.216853834973634,-0.06673166930644836,1.3342472604211786,-1.6187023356518884
1.9385446454635138,19.978593323782484,-0.06574398331639181,1.3130917528137886,-1.567322960127571
1.926800286556953,19.744110697600796,-0.06474889342317432,1.2922707603160914,-1.5179511039614253
1.9152355183653218,19.513346699236585,-0.0637485309282834,1.2717736659529333,-1.470486576193688
1.9038511175479964,19.28624394454935,-0.06274481148644145,1.2515902750163133,-1.424835120418756
1.8926475335713697,19.062746848390173,-0.06173945492052317,1.2317107934190037,-1.3809080059893075
1.881624922343011,18.84280155431796,-0.06073400317234983,1.2121258073833678,-1.3386216512049915
1.8707831767658192,18.626355867860365,-0.0597298365742274,1.1928262643676795,-1.2978972756852212
1.8601219544995464,18.413359193104625,-0.058728188606579135,1.1738034551405556,-1.2586605793967764
1.8496407031888809,18.20376247241903,-0.05773015928970654,1.1550489969216078,-1.220841446049298
1.8393386833919974,17.997518129119896,-0.05673672734233134,1.1365548175131925,-1.1843736687886919
1.8292149894208571,17.794580012911826,-0.055748761225893444,1.118313140354277,-1.1491946963128608
1.8192685682842002,17.59490334794097,-0.054767029181405594,1.1003164704329933,-1.1152453977085737
1.8094982369059402,17.39844468331205,-0.053792208354816934,1.0825575809995045,-1.082469844464928
1.7999026977752624,17.20516184592981,-0.05282489309716228,1.0650295010253916,-1.0508151082597066
1.7904805531699755,17.015013895535127,-0.05186560251713577,1.0477255033599477,-1.0202310732417217
1.7812303180813924,16.82796108181435,-0.05091478735600834,1.0306390935375698,-0.9906702616464929
1.7721504319570403,16.643964803468517,-0.049972836247904884,1.013763999193912,-0.9620876716856648
1.763239269366724,16.462987569136416,-0.049040081422276095,0.9970941600516368,-0.934440626743646
1.7545022825158538,16.285224217572498,-0.04803755025405656,0.9780541906585456,-0.9584136517700541
1.7459416802786683,16.110878103248158,-0.04708025238133884,0.9591248573896964,-0.9838996804216525
1.737549439774183,15.93992956499513,-0.046166864335163926,0.9403033454217258,-1.0107819834298608
1.729317779412193,15.772359437655421,-0.04529602857583873,0.9215869583527898,-1.0389458054497756
1.7212391646535579,15.608149031057678,-0.04446635763121671,0.9029731149554643,-1.0682781099559524
1.7133063130623496,15.447280109539907,-0.043676437826651565,0.8844593463531152,-1.0986673270751712
1.705512198721097,15.28973487194256,-0.04292483263171185,0.8660432936174041,-1.1300031032750684
1.6978500560761063,15.135495931996093,-0.04221008564596426,0.8477227057877637,-1.1621760518173097
1.6903133832760595,14.984546299026665,-0.04153072324344418,0.8294954383169985,-1.1950775028656235
1.6828959450637964,14.836869358902575,-0.04088525689281047,0.8113594519506716,-1.228599252112236
1.6755917752783591,14.692448855142363,-0.040272185167604814,0.7933128120516852,-1.2626333067507054
1.6683951790220113,14.551268870103016,-0.039689995458480676,0.7753536883854966,-1.2970716275784566
1.6613007345450441,14.4133138061636,-0.03913716539670945,0.7574803553857967,-1.3318058659579655
1.6543032948997287,14.278568366815602,-0.03861216399568555,0.7396911929252851,-1.3667270943010743
1.6473979894138109,14.147017537566395,-0.03811345251451271,0.7219846876214623,-1.4017255286657335
1.6405802250334518,14.01864656655627,-0.03763948504503113,0.7043594347132416,-1.436690241968042
1.6338456875855263,13.893440944782515,-0.037188708820810025,0.6868141405507159,-1.4715088662142233
1.6271903430097248,13.771386385815653,-0.0367595642436488,0.6693476257477446,-1.5060672820466567
1.6206104386119993,13.652468804883384,-0.036350484619967344,0.6519588290552436,-1.5402492937749304
1.614102504392555,13.536674297186405,-0.03595989559608151,0.6346468120223177,-1.5739362879269392
1.6076633545039138,13.423989115297342,-0.03558621427771024,0.6174107645228187,-1.6070068732065546
1.601290088897561,13.314399645478986,-0.03522784801509663,0.600250011236701,-1.6393364995840731
1.5949800952214312,13.207892382740685,-0.03488319283079108,0.583164019188867,-1.670797054075052
1.588731051035046,13.104453904431995,-0.03455063146237714,0.5661524064632399,-1.7012564305849542
1.5825409264145889,13.004070842149897,-0.034228530987146955,0.5492149522267578,-1.7305780710155907
1.5764079870266574,12.906729851709954,-0.033915239989868014,0.5323516082170582,-1.758620474651364
1.570330797757029,12.81241758090221,-0.033609085228225095,0.5155625118689909,-1.7852366726787992
1.5643082269896054,12.7211206347189,-0.03330836774314831,0.49884800127887946,-1.8102736645565183
1.5583394516409612,12.632825537702946,-0.03301135835289914,0.4822086322317244,-1.833571812865982
1.552423963067774,12.547518693023022,-0.0327162924602894,0.46564519754519623,-1.854964193266527
1.5465615739781127,12.465186337832606,-0.03242136409150522,0.44915874901499775,-1.8742758962950599
1.540752426493364,12.38581449441621,-0.03212471907236705,0.4327506222783059,-1.8913232780529665
1.5349970015258787,12.309388916566174,-0.03182444723302493,0.41642246494428814,-1.9059131573978072
1.529296129658608,12.235895030567796,-0.03151857351442829,0.4001762683710358,-1.917841958228579
1.5236510037377435,12.165317870100008,-0.03120504782851,0.38401440349326904,-1.9268947969949863
1.5180631934183983,12.097642004284857,-0.030881733497549836,0.36793966111950904,-1.9328445179190814
1.5125346619378002,12.032851458043947,-0.030546394064649686,0.3519552971128477,-1.9354506819389512
1.5070677854318517,11.970929623848782,-0.030196678223668314,0.3360650828334292,-1.9344585205592497
1.501665375161433,11.911859163891677,-0.029830102558761878,0.32027336113439797,-1.9295978733157193
1.4963307030778004,11.85562190166615,-0.02944403170382203,0.30458510803811045,-1.9205821384113255
1.4910675312366863,11.802198701948669,-0.02903565541966732,0.28900599993390297,-1.9071072816477574
1.4858801456756903,11.751569338244245,-0.028601961924733903,0.2735424856708016,-1.8888509710183758
1.4807733955105928,11.70371234693788,-0.028139706576347505,0.25820186217771024,-1.8654719360100056
1.4757527382009439,11.658604867743016,-0.02764537464197686,0.24299235109857864,-1.8366096956540463
1.4708242922111374,11.616222470646772,-0.02711513635587075,0.22792317219303462,-1.8018848630506639
1.4659948986933717,11.576538970549962,-0.026544791619305244,0.21300460666042847,-1.760900323815652
1.4612721944113993,11.539526232374072,-0.025929700402609838,0.1982480397383199,-1.7132437114523889
1.45666469901639,11.505153971817972,-0.025264692875272665,0.18366596644058425,-1.6584917764526939
1.4521819211483626,11.473389560545378,-0.024543950102808104,0.1692719365882162,-1.5962174823853768
1.4478344899361786,11.44419784981779,-0.023760841143682855,0.15508040482944133,-1.5260009748424834
1.4436343217248324,11.417541033965268,-0.022907694537939075,0.14110643797635156,-1.4474459624336997
1.4395948369193237,11.393378585048598,-0.021975469967714826,0.12736521665332073,-1.360203499584105
1.43573124968847,11.371667302627458,-0.020953277041769018,0.11387125469268365,-1.2640055763624156
1.4320609654002308,11.352361536508784,-0.019827659494225255,0.10063725773704053,-1.1587110600982582
1.428604139256075,11.335413651667832,-0.018581519885280395,0.08767257382910403,-1.0443658713190591
1.4253844780044134,11.320774803414867,-0.017192494022071805,0.07498129564829323,-0.9212768194978731
1.422430410716885,11.308396057275566,-0.015630475839354552,0.0625603281217405,-0.7900927202272683
1.4197768280496543,11.298229786261736,-0.013853776018764266,0.05039823869857384,-0.6518756126085142
1.417467734209408,11.290231051463241,-0.01180282220619569,0.03847659239581672,-0.5081292455898652
1.4155605257838184,11.284358222460124,-0.00938838252257534,0.026777063194389963,-0.36073714969446774
1.41413386654503,11.280571106203052,-0.006463386797296602,0.015302006328640328,-0.2117614854142541
1.4133072569471468,11.278821142834655,-0.0027211642902968654,0.004142031097974728,-0.06308742600594114
