x,y,v_x,v_y,omega
2.375,32.48,0.0,3.230769230769231,-3.836734693877551
2.373958057442712,31.8101144780877,-0.009923262450360768,3.1490928826812112,-3.5686426262815814
2.3710000079781257,31.15699740988237,-0.018248637212364877,3.071069671655289,-3.3287582802627704
2.366435430757027,30.519908694470956,-0.02522352679810109,2.996441903691474,-3.113257617625533
2.360526302240546,29.898159737996124,-0.031053887644575538,2.924976729402164,-2.9189270752826255
2.3534949005021764,29.29110856618536,-0.0359118431970386,2.8564630021289394,-2.7430530540681235
2.345530271487041,28.698155543497208,-0.03994176647091871,2.790708642520143,-2.5833336475105595
2.3367935434074503,28.118739603093598,-0.04326516762042034,2.7275384089427854,-2.4378076946816423
2.3274223133897425,27.552334910496146,-0.045984642072034225,2.666791996747245,-2.3047974251350523
2.317534283045939,26.99844789813035,-0.04818707548800037,2.608322406736522,-2.1828618390041354
2.3072302830905644,26.456614619135948,-0.04994625742033004,2.551994536067317,-2.0707586183975413
2.2965967987554317,25.92639837762683,-0.05132502196188574,2.497683954495709,-1.9674128579570695
2.2857080855947887,25.407387599598092,-0.05237700813947441,2.445275836254151,-1.8718912756980977
2.2746279478565667,24.899193914321295,-0.053148113176926706,2.394664023524868,-1.783380850709722
2.263411237830071,24.40145042065222,-0.05367769659922699,2.3457502018948997,-1.7011710541211573
2.252105123643849,23.913810116429598,-0.053999581364785276,2.298443171653888,-1.6246390101280894
2.2407501642557235,23.43594447224263,-0.05414288899831746,2.252658201555313,-1.5532370567382379
2.22938122337339,22.96754213342271,-0.05413273845247814,2.2083164538725164,-1.4864822800918756
2.2180282484021343,22.5083077362726,-0.05399083270233807,2.165344471366621,-1.4239476783649132
2.2067169359524748,22.057960826364184,-0.0537359525325135,2.1236737182373533,-1.3652546763619329
2.195469301734505,21.616234868275654,-0.053384373352913385,2.083240168320081,-1.3100667637419416
2.184304169644868,21.182876337450477,-0.052950217976965704,2.043983934776834,-1.2580840712822179
2.173237592381204,20.757643885982475,-0.05244575596269111,2.0058489363470056,-1.2090387328958407
2.1622832138906056,20.3403075750958,-0.051881658233482626,1.9687825959070064,-1.1626909079908647
2.151452582288286,19.930648167921,-0.05126721416956062,1.9327355676625348,-1.118825360524408
2.1407554205028245,19.528456476889303,-0.05061051712054953,1.8976614897822013,-1.077248508801277
2.1301998607610093,19.133532760694422,-0.04991862327769081,1.8635167596928324,-1.037785874507781
2.119792648075165,18.745686166317885,-0.04919768801606381,1.8302603296075344,-1.0002798712976426
2.1095393171040584,18.364734212092532,-0.04845308313733399,1.7978535201577266,-0.9645878829648928
2.099444346096844,17.990502308198863,-0.04768949788375274,1.7662598502581544,-0.9305805892504534
2.0895112910752056,17.622823311358367,-0.04691102613185398,1.735444881556111,-0.8981405039553265
2.079742902943256,17.261537110814103,-0.04612124179147164,1.705376076008297,-0.86716069553038
2.0701412298227804,16.906490242977206,-0.04532326411782154,1.676022665295497,-0.8375436648866313
2.060707706580536,16.557535532373493,-0.044519814379741944,1.6473555309303551,-0.8092003589866794
2.0514432332345023,16.214531756751587,-0.04371326510629553,1.6193470940401464,-0.7820493019717427
2.0423482436886844,15.877343334416064,-0.04290568294911286,1.5919712139172162,-0.7560158282585547
2.033422766044529,15.545840032029432,-0.04209886604284469,1.5652030945269202,-0.7310314042947715
2.0246664755653736,15.219896691288032,-0.0412943766157791,1.5390191982483123,-0.7070330275629372
2.0160787412239634,14.899392973021158,-0.04049356949288676,1.5133971661980976,-0.6839626930306895
2.007658666637921,14.5842131173921,-0.03969761704085148,1.4883157445548216,-0.6617669186074351
1.9994164863963717,14.274246927096403,-0.03879933764057125,1.463743210642301,-0.637323180455302
1.9913611462811232,13.969388268131109,-0.03791818726655727,1.4396725890271702,-0.6140336221534388
1.983489025128995,13.669533669459486,-0.03705439513466422,1.416085493559707,-0.5918297873654473
1.9757964634136131,13.374583430227101,-0.03620809739278145,1.3929644038915716,-0.5706480502467726
1.9682797814203772,13.08444144330721,-0.03537935016184507,1.3702926143931073,-0.5504292207146214
1.960935294855603,12.799015029197257,-0.034568140931244516,1.3480541866540656,-0.5311181862573713
1.9537593282134538,12.518214779544582,-0.03377439851779413,1.3262339052761645,-0.5126635865131314
1.9467482261832565,12.241954409637838,-0.032998001769799744,1.3048172366928423,-0.49501751727530474
1.939898363344163,11.970150619253637,-0.0322387871739457,1.2837902907757477,-0.47813526095821296
1.933206152363168,11.702722961296217,-0.03149655550219899,1.2631397850091979,-0.46197504088515445
1.9266680508855263,11.439593717711752,-0.030771077618199257,1.2428530110333484,-0.446497797050747
1.9202805672831513,11.180687782198941,-0.030062099547274686,1.2229178033743728,-0.4316669812642664
1.9140402654060875,10.925932549274076,-0.029369346900952265,1.2033225101957783,-0.41744836980539546
1.9079437684642784,10.675257809281995,-0.02869252873532696,1.1840559659192718,-0.4038098919222172
1.9019877621512387,10.428595648974941,-0.028031340912670344,1.165107465576491,-0.390721472676731
1.8961689971075748,10.185880357309127,-0.0273854690269845,1.1464667407645999,-0.3781548887985246
1.8904842908103419,9.947048336134465,-0.026754590946661456,1.1281239370893217,-0.3660836363449836
1.8849305289637546,9.712038015476285,-0.026138379020837883,1.1100695929885762,-0.35448280908871993
1.8795046664575843,9.48078977312943,-0.025536501990307377,1.092294619838596,-0.34332898666162665
1.8742037279515222,9.253245858304886,-0.024948626638855022,1.074790283252309,-0.3326001315817467
1.8690248081367085,9.02935031908726,-0.024374419216513885,1.0575481854869773,-0.3222754943753982
1.8639650717194196,8.809048933478241,-0.023813546662426945,1.040560248884637,-0.3123355260839647
1.8590217531664406,8.592289143816494,-0.02326567765165858,1.0238187002748638,-0.3027617975135226
1.8541921562468422,8.379019994378776,-0.022730483487375004,1.0073160562748402,-0.29353692464697756
1.8494736534006566,8.169192071980117,-0.022207638857249357,0.991045109426691,-0.28464449969345523
1.8448679579016276,7.962895796264974,-0.02165612780016908,0.9736813259556344,-0.30237537587520547
1.8403746550631117,7.760233915668781,-0.021137232566650378,0.9564318225795351,-0.3220011617607977
1.8359869240904114,7.561182764977744,-0.020650681459065463,0.9392934220970025,-0.3434116520800191
1.8316980104449194,7.365719333231375,-0.020196115164668887,0.9222630707255571,-0.36649961115121266
1.8275012434040985,7.173821238342157,-0.01977309474791244,0.9053378329812918,-0.3911605359538093
1.8233900520113555,6.985466702748152,-0.01938110899249477,0.8885148869616074,-0.41729242654320425
1.819357979547458,6.800634530015699,-0.019019581139862796,0.8717915200141397,-0.44479556289416117
1.8153986966457423,6.619304082312592,-0.018687875066954244,0.8551651247773728,-0.4735722872821941
1.811506013164771,6.4414552586749885,-0.018385300942296977,0.8386331955807617,-0.5035267913295207
1.8076738889242359,6.267068473993586,-0.018111120396131723,0.822193325194494,-0.5345649068532288
1.8038964434027598,6.096124638646426,-0.01786455123697409,0.805843201921328,-0.5665938996582166
1.8001679644897624,5.928605138707031,-0.01764477174395331,0.7895806070252785,-0.5995222654161558
1.7964829163777072,5.7644918166574755,-0.017450924561334163,0.773403412494314,-0.6332595267640149
1.792835946675791,5.603766952536219,-0.017282120218821043,0.7573095791367044,-0.667716030741337
1.7892218928214687,5.446413245450472,-0.017137440298535308,0.7412971550132529,-0.7028027456641778
1.7856357878620952,5.292413795381989,-0.01701594026692524,0.7253642742103925,-0.738431056504992
1.7820728656754028,5.141752085213881,-0.016916651987288246,0.7095091559620704,-0.7745125578113505
1.778528565694504,4.994411962904053,-0.016838585926032996,0.6937301041315215,-0.8109588431516186
1.7749985372006283,4.850377623728157,-0.016780733063259754,0.6780255070675018,-0.8476812900219967
1.7714786432448413,4.709633592511466,-0.01674206651566382,0.6623938378533676,-0.8845908390858896
1.7679649642585966,4.572164705764845,-0.016721542877141782,0.6468336549716123,-0.921597766542603
1.7644538014121207,4.43795609363465,-0.01671810327977329,0.6313436034111872,-0.9586114483369483
1.7609416797793662,4.306993161570201,-0.016730674175030023,0.6159224162502226,-0.9955401148234743
1.7574253513686182,4.1792615716048935,-0.01675816783209321,0.6005689167527223,-1.0322905943876204
1.7539017980788132,4.054747223138278,-0.0167994825470029,0.585282021024559,-1.0687680443999918
1.7503682346433158,3.9334362330961135,-0.01685350255297343,0.5700607412817621,-1.1048756677379552
1.7468221116253064,3.815314915333282,-0.01691909761854303,0.5549041897928337,-1.1405144129497244
1.7432611185321556,3.7003697591305205,-0.01699512231622772,0.5398115835668121,-1.1755826559589322
1.7396831871202556,3.588587406619631,-0.017080414939961756,0.5247822498702368,-1.2099758610115017
1.7360864949668597,3.4799546289529815,-0.01717379604476107,0.5098156326692719,-1.243586218350933
1.7324694693916098,3.3744583010113374,-0.017274066576666733,0.4949113001082788,-1.2763022558729904
1.7288307918177823,3.2720853744188645,-0.01738000555502536,0.48006895315337644,-1.3080084217572914
1.725169402671948,3.172822848605083,-0.01749036726244315,0.465288435549304,-1.3385846348039836
1.721484506930921,3.0766577396200496,-0.017603877890194717,0.4505697452605439,-1.3679057989232841
1.7177755804367245,2.983577046370371,-0.017719231578342664,0.43591304759352406,-1.39584127794214
1.714042377114081,2.8935677138993086,-0.017835085780170234,0.4213186902261341,-1.4222543266183882
1.7102849372408595,2.806616593283138,-0.017950055869556343,0.4067872204040682,-1.447001473508188
1.7065035969403295,2.7227103976576217,-0.01806270889739644,0.39231940460083775,-1.469931851146844
1.7026989990852788,2.6418356538216656,-0.018171556388800043,0.37791625097969483,-1.4908864689205128
1.698872105828554,2.5639786487895115,-0.01827504605619797,0.3635790350408309,-1.50969742409166
1.695024213002816,2.4891253705772804,-0.018371552284164195,0.34930932888517763,-1.5261870467895378
1.6911569666649833,2.417261442413949,-0.018459365219005146,0.33510903457511076,-1.5401669755268779
1.687272382098742,2.3483720494610587,-0.018536678269007168,0.3209804221190748,-1.5514371611568072
1.6833728656327331,2.2824418570107206,-0.018601573788219722,0.30692617264603544,-1.5597847994321001
1.6794612396840296,2.2194549190103388,-0.01865200667562307,0.29294942735760304,-1.564983195896995
1.6755407714983273,2.1593945756400075,-0.018685785569161693,0.2790538428360368,-1.5667905723470015
1.671615206132817,2.1022433385539046,-0.01870055124522003,0.26524365322209653,-1.5649488324319314
1.667688804319325,2.0479827623052778,-0.018693751740419106,0.2515237396219551,-1.5591823164584746
1.6637663859605922,1.9965933004307956,-0.018662613580845772,0.23789970680167885,-1.5491965939745571
1.6598533801617983,1.9480541447135202,-0.018604108312429538,0.224377966696196,-1.534677370061335
1.655955882898809,1.9023430463367674,-0.018514913239849187,0.21096582736811287,-1.515289621452799
1.6520807237002266,1.8594361180795005,-0.018391364841886866,0.197671584605868,-1.4906771374898036
1.648235543114405,1.8193076175344096,-0.018229402642130372,0.1845046110616599,-1.4604627268920407
1.6444288833144038,1.7819297127739588,-0.018024500215023352,0.17147543427596618,-1.4242494762958
1.6406702950775292,1.7472722342753073,-0.017771578231401002,0.1585957895207222,-1.3816236268910769
1.6369704657504611,1.7153024207175847,-0.017464891550200225,0.14587862531474532,-1.3321598929704774
1.6333413749889956,1.6859846721464997,-0.017097877606615082,0.13333802774321807,-1.2754304068575424
1.629796488560845,1.659280332826281,-0.016662945518628382,0.12098901340173765,-1.211018963673898
1.6263510061724853,1.635147538856451,-0.016151172465747494,0.10884711964425826,-1.1385428642716555
1.6230221885135938,1.6135411831037771,-0.015551852857030823,0.09692769704787584,-1.0576853626068603
1.6198298037309493,1.5944130718322498,-0.014851811739582008,0.08524479125237283,-0.9682423047771589
1.6167967578704339,1.5777123699005635,-0.014034339312944821,0.07380951285893397,-0.8701864375450568
1.6139500130705446,1.563386442870538,-0.013077515924095945,0.06262788742702287,-0.7637508153515168
1.61132196114002,1.5513821769144478,-0.01195155008090078,0.051698455011917235,-0.6495264399148868
1.608952529691427,1.541647734787027,-0.010614463715222814,0.04101051763019916,-0.52855556050954
1.6068925169278636,1.534134389735879,-0.009004705461571706,0.030545149523607845,-0.4023793793687376
1.605209227226813,1.5287973917704214,-0.0070266250246246355,0.020283402528367387,-0.272973809410036
1.6039976090241619,1.525593171918377,-0.004512595953005062,0.010232977014896182,-0.14250002442954962
1.6034128016531919,1.5244625886294791,-0.0010569980562321175,0.0005344828793810499,-0.012863251630080591
