x,y,v_x,v_y,omega
2.375,32.48,0.0,3.1794871794871797,-2.36734693877551
2.3745390277056617,31.91404112820537,-0.005121914381535128,3.108944729342021,-2.22571639058163
2.373220850154265,31.360542145523823,-0.00952450285620746,3.041043967119605,-2.096693010729825
2.371166278236072,30.819041640947084,-0.013304074012602867,2.9756283059552837,-1.9788163650904327
2.368480042868743,30.289105274714373,-0.016542985624384388,2.912553541074806,-1.870826067722257
2.3652531067683573,29.770323661530842,-0.019311859935457514,2.8516866054088803,-1.771630677623059
2.3615646120452913,29.26231046386156,-0.021671414765278084,2.792904479805378,-1.68028196630155
2.3574835262679925,28.76470066957326,-0.023673982760261343,2.7360932345090823,-1.5959535402836673
2.3530700379420244,28.277149032017714,-0.025364776417162876,2.681147182774719,-1.5179230111582516
2.3483767430130524,27.799328653796238,-0.02678294501586032,2.6279681307972544,-1.445557068151309
2.343449656510296,27.33092969805322,-0.02796246057032244,2.5764647107918077,-1.3782989354247266
2.3383290774093055,26.871658213325084,-0.02893286277401757,2.526551786187516,-1.3156577964889287
2.333050329906801,26.421235059801525,-0.029719887253806067,2.4781499196297982,-1.257199847442187
2.3276444003301995,25.979394926403838,-0.030345996930658165,2.4311848959000586,-1.202540703855475
2.3221384856662763,25.54588542940044,-0.030830832668489922,2.385587293026587,-1.1513389365585767
2.3165564670426244,25.120466284403737,-0.031191596483193945,2.341292095825675,-1.1032905520715997
2.3109193193180024,24.702908544556916,-0.03144337823482898,2.298238346916778,-1.058124266064854
2.305245466142891,24.29299389855067,-0.0315994348219641,2.256368830930379,-1.015597444646713
2.299551088367554,23.890514022829294,-0.03167142934845287,2.215629788196028,-0.9754926097419415
2.293850392443999,23.49526998297047,-0.03166963646882029,2.1759706546798223,-0.9376144223253724
2.288155844444312,23.107071679767735,-0.03160311908325983,2.137343825350541,-0.9017870715991523
2.2824783744635653,22.72573733602083,-0.03147988070281302,2.0997044385039376,-0.8678520099634904
2.2768275554609048,22.35109302045671,-0.031306997104523566,2.0630101788752095,-0.8356659833208329
2.2712117599929513,21.982972205571386,-0.03109073031718485,2.027221097628394,-0.8050993142618843
2.2656382977895606,21.621215356506674,-0.030836627498265507,1.9922994475350302,-0.7760344023210007
2.2601135366969896,21.265669548362183,-0.030549606863636853,1.9582095318482025,-0.7483644110086295
2.2546430091543286,20.916188109596654,-0.030234032499260335,1.9249175655466015,-0.7219921159314475
2.249231506064835,20.57263028939814,-0.029893779606225912,1.892391547770163,-0.696828892159687
2.243883159665465,20.23486094710307,-0.02953229149788255,1.8606011443973263,-0.6727938222280638
2.2386015167781337,19.902750261922918,-0.02915262947246916,1.8295175798265766,-0.6498129088693037
2.2333896036387872,19.576173461397374,-0.028757516520266438,1.7991135371238995,-0.6278183788652583
2.2282499833402567,19.255010567135578,-0.028349375685628658,1.7693630657849484,-0.6067480663318447
2.2231848067877173,18.939146156535543,-0.027930363787033615,1.7402414964376636,-0.5865448653894993
2.218195857947976,18.62846913928703,-0.02750240109897959,1.7117253618791535,-0.5671562435590285
2.2132845940726957,18.32287254756682,-0.027067197515246992,1.6837923239009642,-0.5485338084037248
2.208452181488605,18.022253338928792,-0.026626275641317962,1.6564211054104416,-0.5306329209455413
2.203699527472651,17.726512210975535,-0.02618099120260959,1.6295914274035483,-0.5134123502434818
2.19902730866515,17.435553426974387,-0.025732551102961864,1.603283950386969,-0.4968339642590373
2.1944359964178,17.149284651649886,-0.025282029423144097,1.5774802198852629,-0.48086245276555856
2.189925879424741,16.867616796446967,-0.024830381610844873,1.5521626157027217,-0.46546507860182634
2.1854970839425003,16.590463873616127,-0.02437845708072145,1.5273143046399582,-0.45061145403813135
2.181149591867904,16.317742858523207,-0.023927010414791627,1.5029191963924853,-0.436273339427095
2.1768832569109566,16.049373559633413,-0.023476711329070733,1.4789619023830096,-0.42242446166069864
2.1726999646760268,15.785278875084447,-0.023004313503484402,1.4554234814943685,-0.4083058956127887
2.168601102225955,15.52538427607077,-0.022538602608422637,1.4322942853242564,-0.3947781447352297
2.164585446860058,15.269617318819218,-0.022079790345987973,1.4095607952485374,-0.38180990404388554
2.1606517418294557,15.017907942216667,-0.021628043327368267,1.387210055890945,-0.3693718394769449
2.1567987039755114,14.77018836909096,-0.021183488383124578,1.36522964550578,-0.3574364439605044
2.1530250304652605,14.526393012656865,-0.02074621728633078,1.343607648206403,-0.34597790539092377
2.149329404723556,14.28645838780674,-0.020316290954835177,1.322332627906092,-0.3349719854330872
2.1457105016504228,14.050323026948803,-0.019893743191086492,1.3013936038487717,-0.324395908145736
2.142166992202225,13.81792740011688,-0.019478584011113975,1.2807800276170611,-0.31422825754464234
2.1386975474064824,13.589213839095073,-0.019070802608245393,1.2604817615141246,-0.30444888330305203
2.1353008418724713,13.364126465318638,-0.018670369991877236,1.2404890582240342,-0.29503881386784536
2.1319755568528738,13.14261112132882,-0.01827724133698274,1.220792541662845,-0.28598017634037814
2.128720382905708,12.924615305574616,-0.017891358075973734,1.201383188939426,-0.27725612253396104
2.1255340222003847,12.71008811036845,-0.017512649760950027,1.1822523133513267,-0.2688507606762822
2.12241519050699,12.49898016281563,-0.01714103572121404,1.1633915483466617,-0.2607490922755355
2.1193626189036476,12.291243568549493,-0.01677642653814486,1.1447928323882144,-0.2529369537142472
2.1163750552330782,12.086831858115087,-0.01641872535706877,1.1264483946607378,-0.24540096217538945
2.113451265336119,11.885699935854607,-0.016067829053592213,1.1083507415668024,-0.23812846554183767
2.1105900340870005,11.687804031157146,-0.01572362926994306,1.0904926439605587,-0.2311074959430266
2.1077901662525407,11.493101651944173,-0.015386013335166438,1.0728671250724628,-0.22432672665219092
2.1050504871950393,11.301551540270324,-0.015054865081515703,1.0554674490813991,-0.21777543206418318
2.102369843436579,11.113113629926563,-0.014730065568044095,1.0382871102937448,-0.21144345050787036
2.0997471031005457,10.927749005939866,-0.014411493721217906,1.0213198228917852,-0.20532114966878345
2.097181156244517,10.745419865870119,-0.014099026901319908,1.0045595112165218,-0.19939939441728666
2.094670915097175,10.56608948281092,-0.013792541402476738,0.9880003005523472,-0.19366951685525668
2.092217729667588,10.389942533061287,-0.013465074481829264,0.9691880299991277,-0.23650162632930144
2.0898198977939937,10.217172817915031,-0.013177501891437925,0.9504754716259355,-0.2803812038084974
2.0874703566389785,10.04776260936191,-0.012928510942066773,0.9318601789642775,-0.32521213945654237
2.0851622810646493,9.881694611369042,-0.012716773217144949,0.9133397987342828,-0.37089944969974353
2.0828890862218943,9.718951943297657,-0.012540947257910932,0.8949120687255271,-0.4173490682220534
2.0806444296842854,9.55951812367179,-0.012399680937741603,0.8765748160063536,-0.46446763669496355
2.078422213181109,9.403377054239368,-0.012291613541996855,0.8583259554650144,-0.5121622943003687
2.076216583981278,9.250513004265532,-0.012215377567239331,0.840163488688723,-0.5603404650692206
2.0740219359776146,9.100910594996474,-0.012169600251238082,0.8220855031896852,-0.6089096420149466
2.0718329105191597,8.954554784230265,-0.01215290484270949,0.8040901719904169,-0.657777166987523
2.069644397037762,8.811430850928549,-0.012163911617262062,0.786175753584201,-0.7068500051109567
2.067451533514297,8.67152437979983,-0.01220123864346557,0.7683405922904613,-0.7560345125928168
2.065249706829355,8.53482124578106,-0.012263502300328986,0.750583119029196,-0.8052361966083101
2.0630345530433014,8.401307598339518,-0.012349317544712869,0.7329018525435059,-0.854359465862013
2.060801957651092,8.270969845511175,-0.01245729792428395,0.7152954011047612,-0.903307370316405
2.058548055858341,8.143794637585039,-0.012586055328502915,0.6977624647411944,-0.9519813284463176
2.0562692329267658,8.01976885033493,-0.01273419946677625,0.6803018380378001,-1.0002808402306447
2.0539621246394235,7.898879567690813,-0.012900337059250148,0.6629124135635236,-1.048103183925404
2.0516236179391356,7.781114063730907,-0.013083070721723121,0.6455931859909967,-1.0953430944735645
2.049250851797224,7.666459783863093,-0.01328099752174161,0.6283432569847304,-1.141892421194996
2.046841218374243,7.554904325049332,-0.013492707178048645,0.611161840945936,-1.1876397621624692
2.0443923645399096,7.4464354149097325,-0.01371677987009926,0.5940482717162813,-1.2324700724049378
2.0419021938259583,7.341040889522937,-0.013951783618246347,0.5770020103592162,-1.2762642427857696
2.039368868893366,7.238708669716534,-0.014196271188332998,0.5600226541563699,-1.318898646080074
2.036790814604415,7.1394267356144105,-0.01444877646668257,0.5431099469783399,-1.3602446464216251
2.034166721800569,7.043183099177064,-0.014707810242718791,0.5262637912144204,-1.400168067907426
2.0314955518993374,6.949965774435022,-0.01497185532651693,0.5094842614749514,-1.4385286177403371
2.0287765424373942,6.859762745074054,-0.015239360917299388,0.49277162031357363,-1.475179258864556
2.0260092137034946,6.7725619289828565,-0.01550873612602939,0.4761263362553,-1.5099655266175724
2.023193376623501,6.688351139318431,-0.01577834254056888,0.4595491044605478,-1.5427247835058862
2.020329142081396,6.6071180415804776,-0.016046485705042492,0.44304087040558865,-1.573285405842261
2.017416931885028,6.528850106112479,-0.016311405365708992,0.4266028570166009,-1.6014658957086927
2.014457491613917,6.453534555362797,-0.01657126431330471,0.41023659575763255,-1.6270739116057629
2.0114519056193916,6.381158305142858,-0.0168241356258659,0.39394396224167877,-1.649905211326502
2.0084016144853583,6.311707899010468,-0.017067988085616187,0.37772721700710443,-1.6697425012160003
2.0053084353019828,6.245169434784039,-0.017300669507445594,0.36158905217545223,-1.6863541872903316
2.002174585155733,6.181528482058482,-0.017519887673106607,0.34553264477518664,-1.6994930260494021
1.9990027082990764,6.120769989447535,-0.0177231885119652,0.3295617175686788,-1.7088946767582236
1.9957959075338145,6.062878180124809,-0.017907931102054707,0.3136806082393854,-1.7142761632717731
1.9925577804265993,6.007836434085355,-0.018071258978115776,0.29789434775453655,-1.7153342632943414
1.9892924610780975,5.955627155416085,-0.01821006711634851,0.2822087485706891,-1.7117438580010256
1.9860046682953956,5.906231622772562,-0.018320963802561954,0.26663050302400404,-1.7031562977307007
1.9826997611812585,5.859629821253474,-0.018400226354517154,0.2511672916325242,-1.6891978737224227
1.979383803370927,5.815800254010082,-0.01844374931583168,0.23582789996073694,-1.6694685371375309
1.9760636374451672,5.77471973233347,-0.018446983192612936,0.22062234089052496,-1.6435410830412607
1.9727469714734522,5.736363143795199,-0.018404860937552656,0.20556197620139188,-1.610961130564974
1.969442480270642,5.700703199535898,-0.018311707982560686,0.1906596266797391,-1.5712483984506778
1.9661599249143407,5.6677101643945385,-0.018161129309677122,0.1759296526687169,-1.5239000221315206
1.9629102955886408,5.637351577831545,-0.017945863198097833,0.1613879758089739,-1.468397017806054
1.9597059852675265,5.609591980356033,-0.01765758481428412,0.1470519961411642,-1.4042155125357618
1.9565610057634761,5.584392670543636,-0.017286631897386624,0.13294033510770206,-1.3308450709073902
1.9534912643181486,5.561711533061821,-0.016821606384030355,0.1190723035791181,-1.24781737937319
1.9505149300011975,5.541502999542555,-0.01624877491542618,0.10546695774608081,-1.1547496308676033
1.947652937680069,5.523718231355637,-0.015551139763777895,0.09214157766410215,-1.0514078677661067
1.9449297080656853,5.5083056414939975,-0.014706967062710217,0.07910942079857994,-0.937795388376538
1.942374213272638,5.495211885782705,-0.013687419526702447,0.06637675377133863,-0.8142680228034819
1.9400216027560098,5.48438341173485,-0.012452697324723825,0.05393962453815181,-0.6816677224858378
1.9379157575922812,5.475768475021596,-0.010945582272260453,0.04178189449799666,-0.5414432209685338
1.936113470831759,5.4693190726493555,-0.009079826177984817,0.029878131860236596,-0.395689891988084
1.9346919252020378,5.464991204680739,-0.006715125263362779,0.018209290013275745,-0.24700461365134915
1.93376540381305,5.462738931605131,-0.003579556836499514,0.006815966382391873,-0.09805391297485108
