x,y,v_x,v_y,omega
2.375,32.48,0.0,2.2051282051282053,-3.4693877551020407
2.374266350485771,31.978118770906647,-0.006379560993294172,2.1590563956835376,-3.281303911354659
2.372159427846979,31.48665486342345,-0.011941505430984243,2.114542799822514,-3.1081199441171097
2.36885594497149,31.005259963498847,-0.01678443261674791,2.0714998082174993,-2.948279406778094
2.36451142178529,30.533605117470433,-0.020994029871946766,2.029846678986107,-2.8004200122030287
2.359262939846434,30.071379235976433,-0.02464494350940762,1.9895088122660824,-2.6633458691238157
2.3532315011379303,29.61828775328899,-0.027802349608018438,1.9504171241464765,-2.536004180823271
2.346524053978906,29.174051421150832,-0.030523277861760147,1.912507503141829,-2.417465609122435
2.3392352379216663,28.738405219679965,-0.03285773133162531,1.8757203357352688,-2.3069076636923036
2.331448890593119,28.311097370707838,-0.03484963674269936,1.8400000901093188,-2.2036005998015753
2.323239352214696,27.891888441185873,-0.03653765350445579,1.8052949492121264,-2.106895404772327
2.3146725976450466,27.480550526147248,-0.037955864492497916,1.7715564859063446,-2.0162135305977267
2.3058072209639247,27.076866502232953,-0.03913436751725752,1.738739374217975,-1.931038091851269
2.2966952936435074,26.680629344050306,-0.040099783095064595,1.7068011317180707,-1.8509062975731836
2.2873831140698426,26.291641496680636,-0.04087569145854264,1.6757018888877626,-1.7754029258433228
2.2779118634521196,25.909714298530893,-0.04148300956513678,1.6454041819795644,-1.7041546822306584
2.2683181808875714,25.53466744946401,-0.04194031708311053,1.6158727664281185,-1.6368253097884786
2.2586346684524656,25.1663285197695,-0.04226413887433159,1.5870744483067514,-1.5731113399425696
2.248890335598515,24.804532496069648,-0.042469190290452645,1.558977931691949,-1.5127383914389199
2.2391109907955826,24.449121360713413,-0.04256859060461322,1.531553680101414,-1.455457939220506
2.2293195872323595,24.099943701602918,-0.042574049075588746,1.5047737904246428,-1.4010444872782482
2.219536528431422,23.756854349736678,-0.04249602745430154,1.4786118779774235,-1.3492930896383584
2.209799812732763,23.41971708910774,-0.04217106557751283,1.4530164753176953,-1.2958276508046287
2.2001431938524623,23.08840111689603,-0.04179953338162766,1.42799197869718,-1.2450917623277968
2.1905766689601185,22.76277771444582,-0.041387639595275236,1.40351586869593,-1.1969108414132321
2.181108885012777,22.44272320991584,-0.04094091646856279,1.3795667793908464,-1.1511235863813791
2.1717472858085727,22.12811872153888,-0.0404642940027804,1.3561244238870862,-1.1075808072102917
2.1624982429557273,21.818849917344032,-0.03996216558717927,1.3331695256333185,-1.0661443727541362
2.153367172611117,21.51480679007211,-0.03943844610508007,1.3106837549920893,-1.0266862616497041
2.144358639614472,21.215883446129887,-0.03889662343096493,1.2886496705924593,-0.9890877055171466
2.1354764504461663,20.92197790753201,-0.03833980411952086,1.2670506650412416,-0.9532384144415297
2.126723736264282,20.63299192587183,-0.0377707539838183,1.2458709146125004,-0.9190358759194923
2.1181030271265473,20.34883080744547,-0.037191934170398094,1.2250953325732488,-0.8863847194965072
2.1096163183718355,20.06940324872827,-0.036605533261878404,1.2047095258371776,-0.8551961402271525
2.101265130021556,19.79462118147014,-0.036013495870990064,1.184699754668322,-0.8253873748821912
2.0930505599611897,19.524399626737203,-0.03541754813219288,1.1650528951833035,-0.7968812255180631
2.0849733315745897,19.258656557282293,-0.03481922044693778,1.1457564044246025,-0.7696056256302114
2.077033836426751,18.99731276767663,-0.034219867795136236,1.1267982877985698,-0.7434932446430655
2.0692321725232414,18.740291751680342,-0.03362068788755706,1.108167068690888,-0.7184811269563921
2.061568178615068,18.48751958637063,-0.0330227374009081,1.0898517600892057,-0.6945103621785922
2.054041464965474,18.23892482258371,-0.03242694650860663,1.071841838057941,-0.6715257835396415
2.046651440949044,17.994438381260792,-0.031834131895126745,1.0541272169239586,-0.6494756917960111
2.0393973398128225,17.753993455319456,-0.031245008419845146,1.036698226044172,-0.6283116022224632
2.0322782408931777,17.517525416700096,-0.03066019957706882,1.0195455880372442,-0.6079880125357519
2.025293089550378,17.284971728263077,-0.030080246882060003,1.002660398371599,-0.588462189816995
2.0184407150546635,17.056271860236073,-0.029505618298064598,0.9860341062110245,-0.5696939746963231
2.0117246101702486,16.831482522238836,-0.02889529374032537,0.9686557894171368,-0.5718077147286273
2.0051461948713833,16.610675112372768,-0.028308317554153195,0.9514086442008666,-0.5764292438207878
1.9987000212573784,16.393819918854625,-0.027745366045889237,0.9342886907394761,-0.5834225606107669
1.9923805049223264,16.180888126017688,-0.027206949911086468,0.9172921165382363,-0.5926561338692723
1.9861819614439526,15.971851776748352,-0.026693428161726932,0.9004152684125257,-0.604002582305766
1.9800986397958182,15.766683736697846,-0.026205020952486967,0.8836546450701448,-0.6173383677716009
1.974124752926566,15.565357660134811,-0.02574182138883617,0.8670068902606043,-0.6325435005367199
1.9682545057316638,15.367847957311735,-0.02530380639292258,0.8504687864617904,-0.6495012553778813
1.962482120626335,15.174129763224673,-0.024890846696892663,0.8340372490778706,-0.6680978972688427
1.956801860913034,14.984178907651273,-0.024502716027464438,0.8177093211256178,-0.6882224155067359
1.9512080521227566,14.797971886357033,-0.02413909954016471,0.8014821683895252,-0.7097662651442759
1.9456951014966275,14.615485833363877,-0.023799601556610178,0.7853530750292075,-0.7326231146246844
1.940257515762463,14.436698494178568,-0.023483752653514885,0.7693194396256521,-0.7566885985353801
1.9348899173503231,14.261588199881185,-0.02319101614770284,0.7533787716559492,-0.7818600744076214
1.9295870591813526,14.090133841975991,-0.022920794017257908,0.7375286883892131,-0.8080363824923348
1.924343838155441,13.922314847908282,-0.022672432295017426,0.7217669121995559,-0.8351176074371657
1.919155307455323,13.758111157151383,-0.022445225966878226,0.7060912682952322,-0.8630048407761371
1.914016687777695,13.597503197767786,-0.02223842340380039,0.6904996828664675,-0.8915999431208544
1.9089233775956704,13.440471863347462,-0.022051230352933424,0.6749901816580852,-0.9208053049105566
1.9038709625514425,13.286998490224441,-0.021882813509919316,0.6595608889768892,-0.9505236045369782
1.8988552240733236,13.137064834870088,-0.0217323036911148,0.6442100271479181,-0.9806575626083478
1.8938721473074087,12.990653051357683,-0.021598798621188135,0.6289359164382173,-1.0111096910542299
1.8889179284509234,12.847745668788036,-0.021481365348249647,0.6137369754717655,-1.0417820356985263
1.8839889815719113,12.70832556855984,-0.02137904229533412,0.5986117221647139,-1.0725759108409403
1.8790819449982805,12.572375961361026,-0.021290840953629143,0.5835587752162703,-1.1033916242866204
1.8741936873583942,12.439880363748443,-0.021215747219295696,0.5685768561974757,-1.1341281911485863
1.8693213133553939,12.310822574172622,-0.021152722372011587,0.5536647922879283,-1.164683034616884
1.8644621693583272,12.185186648291786,-0.021100703689436548,0.5388215197193464,-1.1949516717412911
1.8596138488949685,12.062956873404648,-0.021058604687596755,0.524046087994896,-1.224827382109977
1.8547741981340393,11.9441177418143,-0.021025314972657246,0.509337664964645,-1.2542008571242467
1.8499413214484515,11.828653922915553,-0.02099969968462714,0.49469554285054435,-1.2829598273692562
1.845113587156282,11.716550233774878,-0.02098059850815048,0.48011914532923305,-1.3109886653629286
1.840289633542592,11.607791607945249,-0.020966824219590296,0.46560803579798354,-1.3381679607318897
1.8354683752730419,11.5023630622271,-0.020957160733018596,0.4511619269685317,-1.3643740646173461
1.8306490103197024,11.400249661050815,-0.020950360600368135,0.43678069195568786,-1.3894785998611159
1.8258310275306937,11.301436478114837,-0.020945141912751788,0.4224643770527997,-1.4133479332716652
1.8210142149885518,11.205908554866085,-0.020940184540655736,0.40821321641462666,-1.4358426060362701
1.8161986693177563,11.113650855354877,-0.020934125640173256,0.3940276489002118,-1.4568167181499396
1.8113848061199869,11.02464821693449,-0.02092555434043119,0.37990833736399626,-1.4761172626067165
1.8065733717367767,10.938885296204532,-0.02091300551357033,0.36585619072258807,-1.4935834050918806
1.801765456563758,10.856346509517259,-0.020894952512679456,0.35187238916675473,-1.5090457050937647
1.796962510169192,10.77701596727588,-0.0208697987444167,0.3379584129322119,-1.5223252748222238
1.7921663585026764,10.700877401153729,-0.02083586792093598,0.3241160750864777,-1.5332328732234815
1.7873792235187222,10.627914083253483,-0.020791392809099626,0.31034755882872084,-1.5415679339297028
1.7826037455855204,10.558108736107851,-0.020734502262220955,0.2966554598289632,-1.5471175284823102
1.777843009103354,10.491443432301164,-0.0206632062783573,0.2830428341422328,-1.5496552700635582
1.7731005718221267,10.427899482371057,-0.0205753787757927,0.2695132522065384,-1.548940168902399
1.7683804984268279,10.367457309542484,-0.020468737705067,0.25607085934626383,-1.5447154594173151
1.7636873990586037,10.310096309770735,-0.020340822018620548,0.24272044301678605,-1.536707432368282
1.7590264735653491,10.255794695555185,-0.020188964879245524,0.22946750668364713,-1.5246243247677675
1.7544035624416348,10.204529322077729,-0.020010262283488442,0.21631834964205726,-1.5081553488822046
1.7498252056427661,10.156275494490483,-0.01980153596754369,0.20328015111660383,-1.48696998344268
1.7452987107728621,10.11100675573671,-0.01955928898814292,0.19036105543793858,-1.4607177110804068
1.740832232602229,10.068694655303101,-0.019279651626058707,0.17757025268041296,-1.4290284744232897
1.7364348665466633,10.029308501019127,-0.018958314074510943,0.16491804544110225,-1.3915142510215806
1.7321167597743456,9.992815098804364,-0.018590440467382126,0.1524158868611877,-1.3477723303259306
1.7278892452140933,9.95917848963676,-0.018170555708725413,0.1400763667701453,-1.2973911348791967
1.723765006282178,9.928359699683206,-0.017692391525319182,0.12791311108683617,-1.2399597862107918
1.7197582842130719,9.900316529393468,-0.017148669945169507,0.11594054360655182,-1.1750830932506502
1.7158851464296734,9.875003421365534,-0.016530789040905918,0.10417343924503418,-1.1024042336322966
1.7121638449564145,9.852371465523138,-0.01582835420482129,0.09262617677579671,-1.0216380314539106
1.7086153108876423,9.832368622655778,-0.01502846378450226,0.08131158728820073,-0.9326181602003805
1.7052638581482769,9.814940268578471,-0.0141146035143275,0.07023931773186783,-0.8353611944341263
1.7021382131993947,9.800030166665966,-0.013064917780300694,0.05941374237687441,-0.7301478896632818
1.6992730575364667,9.787581933714652,-0.011849479288638597,0.04883176154760095,-0.6176151152237379
1.6967113914403082,9.777540910211439,-0.010425878069261502,0.038481486306433374,-0.4988377309392246
1.6945082795892898,9.769855974384537,-0.008731616287419695,0.028344042623146604,-0.37535796988331055
1.6927372389126607,9.764480048717811,-0.0066687374224001575,0.018403137087519825,-0.24909877742334866
1.6915032593256787,9.761366054178197,-0.004061519855703757,0.008675076300421287,-0.12209740082968265
