x,y,v_x,v_y,omega
2.375,32.48,0.0,2.1025641025641026,-2.612244897959184
2.374474692804736,32.00131075416512,-0.004567888654469604,2.0599510786087856,-2.4762634526871476
2.3729640291436103,31.5322658540301,-0.008568317094451178,2.018700226913073,-2.350555665353381
2.370590943201064,31.07256028331884,-0.012067212840731768,1.97873951840225,-2.23409508788717
2.367464159798967,30.621904994895615,-0.015122208047069124,1.9400021200605755,-2.1259777445399246
2.3636799699822193,30.180025772494993,-0.017783790359430562,1.9024259008144042,-2.0254054185061334
2.3593237621250056,29.74666219917923,-0.020096277964168647,1.8659529975835136,-1.931671492600573
2.354471345604415,29.321566719729695,-0.02209864830183456,1.8305294324124497,-1.8441489124305452
2.3491900979306655,28.90450378608093,-0.023825244513382013,1.7961047732289757,-1.7622799204754105
2.3435399611851655,28.49524907647094,-0.025306379360528798,1.7626318320752972,-1.6855672732998173
2.337574309476967,28.093588780277187,-0.02656885288467268,1.7300663956964548,-1.6135667053254208
2.3313407057105437,27.699318941588302,-0.027636397258140225,1.6983669842069007,-1.5458804438724847
2.3248815631260022,27.31224485546752,-0.028530059998742845,1.6674946342346968,-1.4821516136358686
2.3182347247176964,26.932180511628435,-0.029268534856090385,1.637412703496463,-1.4220593959877732
2.3114339716717587,26.558948080892087,-0.029868448152063735,1.6080866942109198,-1.3653148307546008
2.3045094703174795,26.192377440347354,-0.030344607102540153,1.5794840931345635,-1.311657166378507
2.2974881657054187,25.832305733610635,-0.030710215611029757,1.5515742263151755,-1.2608506794184722
2.2903941287610414,25.478576962988623,-0.03097706216616475,1.5243281269197007,-1.212681896782987
2.283248862979399,25.131041610700965,-0.03115568376116056,1.4977184147121025,-1.1669571644037082
2.2760879695413525,24.78955820347559,-0.03111295483054775,1.4717025176824847,-1.1202910788474874
2.2689431278976926,24.453990964738473,-0.031016102940408043,1.4462734713359011,-1.0760326226136498
2.261826048949075,24.1242075969837,-0.03087154009104927,1.421407987401258,-1.034026287597764
2.254747046934836,23.80008102111959,-0.030684999163201214,1.3970839766344976,-0.994128508994963
2.2477151871243426,23.481489109616646,-0.030461607884568424,1.3732804712172053,-0.9562066040030697
2.2407384174811935,23.16831443681084,-0.030205954229772028,1.3499775531811071,-0.9201378173365524
2.2338236861482925,22.860444045039422,-0.02992214431719306,1.327156288309451,-0.8858084615635726
2.226977046373486,22.557769225406084,-0.02961385372460269,1.3047986650239358,-0.8531131417609932
2.220203750297393,22.26018531207942,-0.029284373024035606,1.2828875378166313,-0.8219540552646286
2.2135083328529426,21.967591489124928,-0.02893664823205383,1.2614065748311398,-0.7922403584035329
2.2068946868763515,21.679890608957102,-0.02857331678178112,1.2403402092368754,-0.7638875930724138
2.2003661303986912,21.396989021576182,-0.02819673954569914,1.219673594075464,-0.7368171668361777
2.193925466973229,21.11879641382422,-0.02780902937136409,1.199392560289451,-0.7109558809927806
2.187575039794067,20.845225657958736,-0.02741207653439113,1.1794835776712662,-0.6862355016599699
2.181316780274371,20.5761926688996,-0.02700757146296513,1.1599337184951282,-0.6625923695108595
2.1751522516759927,20.311616269556744,-0.026597025044671138,1.1407306236166792,-0.6399670442734575
2.1690826883151595,20.05141806369366,-0.026181786788662884,1.121862470844901,-0.6183039805395135
2.1631090308098826,19.79552231582451,-0.025763061083309932,1.1033179454085835,-0.5975512318063111
2.157231957782809,19.54385583768164,-0.025341921760807504,1.0850862123555165,-0.5776601800080962
2.151451914387466,19.296347880826012,-0.02491932515522084,1.0671568907368705,-0.5585852880875563
2.1457691379854795,19.05293003500543,-0.02449612181857536,1.0495200294421005,-0.5402838734171737
2.140183681266689,18.81353613189504,-0.024073067040472303,1.0321660845613085,-0.5227159001097078
2.1346954330725407,18.578102153881805,-0.023650830299944824,1.0150858981624766,-0.5058437884602739
2.1293041371552377,18.346566147579367,-0.02323000376356053,0.9982706783804518,-0.4896322399427121
2.124012686350291,18.118970364157647,-0.022782611931628814,0.9808230905040756,-0.49194386056936035
2.1188221130448963,17.895372260935936,-0.022352808115282546,0.9635082418586489,-0.49679190433370923
2.1137282555660306,17.675741771839732,-0.021941604744416976,0.9463220981083275,-0.5040408345354738
2.108726740578949,17.460049739326664,-0.021549829925857838,0.9292607933096658,-0.5135596106033533
2.1038130237418184,17.248267876591107,-0.02117814257092997,0.9123206217821482,-0.5252213723413333
2.0989824270168658,17.040368731569934,-0.02082704634170298,0.8954980305758742,-0.5389031374631702
2.0942301728995205,16.836325652615884,-0.020496902504778102,0.878789612502796,-0.5544855111337424
2.0895514158074424,16.636112755712396,-0.02018794177416211,0.8621920997014708,-0.5718524062956657
2.0849412708533395,16.43970489311023,-0.01990027521803465,0.8457023577086614,-0.5908907736107091
2.0803948402089967,16.247077623272084,-0.019633904297993724,0.8293173800143436,-0.6114903398884592
2.0759072372528125,16.05820718201626,-0.019388730103604705,0.8130342830797784,-0.6335433539096461
2.071473608679329,15.873070454754934,-0.019164561839731174,0.7968503018013229,-0.6569443385787416
2.0670891547365584,15.691644949726136,-0.01896112461914477,0.7807627854056077,-0.6815898483599891
2.062749147745407,15.513908772121557,-0.018778066608253718,0.7647691937646488,-0.7073782309629324
2.0584489490449753,15.339840599014547,-0.018614965569416053,0.7488670941224015,-0.7342093922477306
2.0541840244979874,15.169419654994336,-0.018471334839176488,0.7330541582272619,-0.7619845633169403
2.049949958682029,15.00262568841337,-0.018346628777849792,0.7173281598680918,-0.7906060687487726
2.045742467884531,14.839438948154868,-0.01824024772213433,0.7016869728145485,-0.8199770949067987
2.0415574120125686,14.67984016082712,-0.018151542468843596,0.6861285691658684,-0.850001457232265
2.0373908055225005,14.52381050828972,-0.0180798183143584,0.6706510181158449,-0.880583365387096
2.0332388274691846,14.371331605414653,-0.01802433867099454,0.6552524851456057,-0.9116271850677191
2.029097830770037,14.222385477982009,-0.017984328278117138,0.6399312316599932,-0.9430371952513356
2.0249643507754684,14.076954540605993,-0.017958976022478715,0.6246856150879636,-0.9747173395664114
2.0208351132343125,13.935021574581537,-0.017947437378877537,0.6095140894725143,-1.0065709703970565
2.016707041740681,13.796569705535344,-0.017948836478788168,0.5944152065813252,-1.0385005842356307
2.0125772647473474,13.661582380757292,-0.017962267811066836,0.5793876175756603,-1.0704075466882919
2.008443122230234,13.530043346078632,-0.017986797555136522,0.5644300752822431,-1.1021918054131454
2.00430217208893,13.401936622152267,-0.01802146454316346,0.5495414371209302,-1.1337515891290373
2.0001521963694526,13.277246479977084,-0.01806528084359536,0.5347206687502222,-1.1649830906737144
1.9959912073977306,13.155957415492946,-0.018117231953984937,0.5199668485031567,-1.1957801319120707
1.9918174539156088,13.038054123054799,-0.018176276586205506,0.505279172698122,-1.2260338080977389
1.9876294273156758,12.923521467573387,-0.018241346021906687,0.49065696192286234,-1.2556321090740712
1.983425868076975,12.812344455085604,-0.018311343010275972,0.47609966840567086,-1.2844595144639417
1.9792057725108092,12.704508201489286,-0.018385140173773355,0.46160688460578286,-1.3123965597433327
1.974968399934581,12.599997899144427,-0.018461577880385212,0.4471783531756173,-1.3393193698244865
1.9707132804020444,12.498798781005053,-0.018539461532976913,0.4328139784710988,-1.3650991564962462
1.9664402231307547,12.40089608190236,-0.018617558217367144,0.4185138398131856,-1.389601675791452
1.9621493257820852,12.306274996549405,-0.018694592640629223,0.40427820673425285,-1.4126866410887409
1.9578409847662543,12.214920633780064,-0.01876924227963835,0.39010755647740786,-1.434207087531482
1.9535159067647172,12.126817966468806,-0.018840131646771983,0.37600259405528325,-1.45400868319393
1.9491751216854085,12.041951776502462,-0.018905825564607452,0.3619642752172726,-1.4719289823945214
1.9448199972932163,11.960306594089673,-0.018964821324020074,0.3479938327200269,-1.4877966167228331
1.9404522557892896,11.881866630597294,-0.019015539579690877,0.3340928063441449,-1.501430419818708
1.9360739926491437,11.80661570399569,-0.019056313812883464,0.32026307714808544,-1.5126384828777137
1.9316876980719984,11.7345371558768,-0.019085378162291836,0.30650690649441115,-1.521217139486728
1.9272962814437045,11.665613758882007,-0.019100853388090994,0.2928269804168437,-1.52694988105179
1.9229030992747862,11.599827613244607,-0.01910073068945871,0.2792264599083886,-1.5296062082541877
1.918511987146153,11.537160031021521,-0.0190828530377877,0.2657090376836463,-1.52894043036835
1.9141272962816238,11.47759140647226,-0.019044893610291647,0.2522790018751503,-1.5246904339281424
1.909753935474244,11.421101070960603,-0.018984330801704478,0.23894130692187746,-1.5165764566406068
1.9053974192310508,11.367667130738315,-0.018898419139107437,0.2257016515327838,-1.5042999238116566
1.901063923182025,11.317266286071678,-0.01878415520024703,0.2125665629597015,-1.4875424360641427
1.8967603480449813,11.269873630471086,-0.01863823729578532,0.1995434857411138,-1.465965043444794
1.8924943937837921,11.22546242940508,-0.018457017149337042,0.18664087135457724,-1.439208008858731
1.8882746460992161,11.184003879011126,-0.018236440977411606,0.17386826250588897,-1.406891362770413
1.8841106781425199,11.14546684723856,-0.01797197603733805,0.16123636160339172,-1.3686166948137002
1.8800131714953714,11.109817602990365,-0.01765851654656213,0.1487570666417908,-1.3239708348052572
1.8759940622689273,11.07701954376379,-0.017290259335559353,0.13644344837191347,-1.2725323692983168
1.8720667210610062,11.04703293983636,-0.01686053377679663,0.1243096292579143,-1.2138823469501165
1.8682461801664858,11.019814724218758,-0.016361560958165558,0.11237050654731824,-1.1476210675392702
1.8645494289989215,10.995318373449777,-0.01578410136848043,0.10064123926990431,-1.0733935155980592
1.860995810988773,10.973493945355173,-0.015116924806722892,0.0891363963353529,-0.9909266888165461
1.8576075752014778,10.954288364623078,-0.014345995082800728,0.07786865350895106,-0.9000824582138877
1.8544106681794887,10.937646068587728,-0.01345319641275645,0.06684696418973228,-0.8009288802560643
1.8514359035399757,10.923510125122526,-0.0124143221917052,0.056074283333777446,-0.6938294045607072
1.848720732645529,10.91182387025276,-0.011195859499134925,0.045545324229408705,-0.5795404178455325
1.8463119944703732,10.902532905988263,-0.00974968985004749,0.035245669374908146,-0.45929004567548737
1.8442703680455252,10.895586814023282,-0.00800358340949856,0.025155130320562314,-0.33478601503700306
1.842678305471873,10.890938886977501,-0.00584043897008543,0.015261626599275598,-0.20808006527937162
1.8416579021537847,10.888539070079336,-0.0030326333611172917,0.005606346428242101,-0.08122694260871655
