x,y,v_x,v_y,omega
2.375,32.48,0.0,2.051282051282051,-2.7346938775510203
2.374467223892905,32.01292182443626,-0.0046328357138661555,2.010267301446108,-2.5952135154243434
2.3729339034650967,31.55512961646522,-0.008700385397513308,1.9705345069977034,-2.4660229373443934
2.370522657050292,31.106336204584007,-0.012266974731220109,1.9320169006650152,-2.346115999865053
2.3673422200537404,30.666269225744657,-0.015388999151839267,1.8946524805467255,-2.2346042420168026
2.363489144784814,30.234670081201116,-0.018116003186652515,1.858383558962323,-2.1307011205824002
2.359049270678357,29.811292989803608,-0.020491597739064227,1.8231563662334085,-2.033708613941429
2.354098999097857,29.39590412706088,-0.022554242091367912,1.7889207010946493,-1.943005800279084
2.3487064013156322,28.988280840028786,-0.02433791253667115,1.7556296209235802,-1.858039088053502
2.342932183672615,28.588210929513725,-0.025872675663478988,1.7232391661638997,-1.7783138343062033
2.336830530135306,28.195491992264266,-0.027185181182689103,1.6917081142661927,-1.7033871328131058
2.330449839334795,27.809930816811594,-0.028299086647837604,1.6609977592352851,-1.63286159160392
2.3238333705697816,27.431342827447686,-0.029235424352281127,1.6310717134943358,-1.56637994987034
2.3170198110847027,27.059551571528328,-0.030012918996231184,1.601895729282692,-1.5036204091691083
2.310043775117447,26.694388245880415,-0.03064826332773344,1.5734375372209026,-1.444292574221466
2.302936243685879,26.335691258597684,-0.03115635781633428,1.5456667000202395,-1.3881339153924805
2.2957249527979404,25.983305822941375,-0.031550519470086844,1.5185544795998396,-1.3349066787945252
2.288434736685197,25.63708358043437,-0.03184266411898862,1.4920737161132314,-1.28439518144816
2.2811048307647614,25.29688441275669,-0.031895648232624654,1.4661799158666273,-1.23315111468228
2.27377014537454,24.962573844240104,-0.031884224725821655,1.4408685060167146,-1.1845445062239872
2.266444652635748,24.634020580331036,-0.03181571213323798,1.416116397540406,-1.1384053787716766
2.2591407290264556,24.311098500222705,-0.03169666707800027,1.3919016903581223,-1.0945767825520776
2.251869321180625,23.993686392266977,-0.03153296636400759,1.3682035962134314,-1.0529136397643113
2.244640093890575,23.6816677064318,-0.031329879636425695,1.3450023675707121,-1.013281705157307
2.2374615623483742,23.374930322483692,-0.031092133774017573,1.3222792319780294,-0.975556629717509
2.2303412104117495,23.073366332695088,-0.030823970022716883,1.3000163314011737,-0.9396231160543315
2.2232855964631697,22.77687183798401,-0.030529194747542693,1.2781966660864361,-0.9053741554636915
2.216300448242085,22.485346756490227,-0.030211224566237815,1.256804042555165,-0.8727103378570635
2.209390747866007,22.198694643678454,-0.02987312653009374,1.2358230253732847,-0.8415392267917535
2.2025608081127563,21.916822523137462,-0.02951765393295602,1.2152388923744817,-0.8117747927501395
2.195814340910979,21.63964072731396,-0.02914727825641054,1.1950375930472512,-0.7833368986106677
2.1891545188764554,21.367062747483768,-0.028764217695968063,1.1752057098239828,-0.7561508319477026
2.1825840306357165,21.099005092319963,-0.028370462658284072,1.1557304220351736,-0.7301468794047348
2.1761051305942476,20.8353871544698,-0.027967798571880823,1.1365994723140793,-0.7052599389177454
2.1697196837325476,20.576131084599133,-0.027557826312466272,1.1178011352569661,-0.6814291660327721
2.1634292059482045,20.321161672405964,-0.027141980507909353,1.0993241881619027,-0.6585976509725319
2.1572349004047973,20.070406234143572,-0.026721545956499032,1.0811578836849642,-0.6367121234687176
2.151137690297864,19.823794506229092,-0.026297672364659328,1.0632919242670336,-0.61572268269564
2.1451382484035064,19.581258544545697,-0.025871387586278122,1.0457164381972583,-0.5955825499226918
2.139237023735735,19.342732629076067,-0.025443609524775073,1.028421957190817,-0.5762478417523894
2.1334342656037184,19.108153173531676,-0.02501515684058922,1.0113993953691096,-0.557677362031548
2.127730045329135,18.87745863966714,-0.024586758590571144,0.9946400295399394,-0.5398324107190062
2.1221276361197505,18.650696506080664,-0.024129843230160822,0.9772046103424274,-0.5414050008832783
2.1166283512442243,18.427929257493396,-0.023690025252677254,0.9599018991120876,-0.545521879881799
2.1112281399076247,18.209126835245094,-0.023268334196014373,0.9427278595687889,-0.5520468086322107
2.1059227358275137,17.994260089581868,-0.02286561432669213,0.9256786244592753,-0.5608480532824945
2.1007076981045176,17.78330074171605,-0.022482539786315224,0.9087504874173924,-0.5717980676316188
2.095578448745,17.5762213476892,-0.022119628557315762,0.8919398954247952,-0.5847731888700061
2.0905303070971972,17.372995263903917,-0.021777255336622357,0.875243441838537,-0.5996533453484635
2.085558521442647,17.1735966141976,-0.021455663398595427,0.8586578599555328,-0.6163217751441488
2.0806582979667967,16.978000258337673,-0.02115497552184314,0.8421800170872971,-0.6346647542434037
2.075824827316228,16.78618176182365,-0.02087520404832345,0.825806909121607,-0.654571333204238
2.0710533089348706,16.598117366886314,-0.020616260137389267,0.8095356555508829,-0.6759330811961606
2.0663389733577797,16.413783964578695,-0.020377962272095842,0.793363494950121,-0.6986438363421269
2.0616771026284253,16.233159067857056,-0.02016004407011585,0.7772877808902157,-0.7225994613067023
2.057063048993962,16.056220785553002,-0.01996216144695573,0.7613059782754807,-0.7476976030861558
2.0524922520224607,15.882947797140147,-0.019783899174796917,0.7454156600971739,-0.773837455960046
2.0479602542766004,15.713319328200217,-0.01962477687616044,0.7296145045978667,-0.8009195265597879
2.0434627156697593,15.547315126494329,-0.019484254487677207,0.7139002928446387,-0.8288453999974821
2.0389954266227432,15.384915438545278,-0.019361737225505174,0.698270906712333,-0.8575175059776259
2.034554320132572,15.22610098663598,-0.01925658008033466,0.6827243272815515,-0.8868388837848088
2.0301354828586935,15.070852946127733,-0.01916809186643195,0.6672586336597368,-0.9167129450016315
2.0257351653267923,14.919152922999537,-0.01909553884575528,0.6518720022376355,-0.9470432327622819
2.021349791345878,14.77098293150647,-0.01903814794480338,0.63656270639774,-0.9777331762877771
2.016975966730699,14.626325371850687,-0.018995109578489898,0.6213291166960201,-1.008685839378049
2.0126104874185993,14.485163007753144,-0.018965580091941752,0.6061697015434796,-1.0398036614529444
2.0082503470678454,14.347478943807356,-0.0189486838276573,0.5910830284198861,-1.0709881896378766
2.0038927442231476,14.213256602488336,-0.018943514821890998,0.57606776565854,-1.1021398002792637
1.9995350891336328,14.08247970068005,-0.018949138130411044,0.561122684848293,-1.133157408148987
1.9951750103089518,13.955132225573152,-0.01896459077985779,0.5462466639073362,-1.1639381614547877
1.9908103609005408,13.831198409771147,-0.018988882336761208,0.5314386908927153,-1.1943771206138478
1.9864392249974063,13.710662705427154,-0.019020995081797533,0.5166978686202779,-1.2243669185688904
1.982059923929218,13.593509757214889,-0.019059883772013904,0.5020234201820328,-1.2537974002294838
1.9776710226740644,13.479724373915833,-0.0191044749684529,0.48741469546192534,-1.2825552384058425
1.9732713364741021,13.369291498379496,-0.01915366590078455,0.4728711787670815,-1.310523523369082
1.9688599377695895,13.262196175584638,-0.019206322834108128,0.45839249770993734,-1.337581322922739
1.964436163570637,13.158423518495766,-0.01926127889591276,0.44397843349764987,-1.363603209609382
1.9599996233965937,13.057958671370486,-0.01931733131315968,0.4296289328091256,-1.3884587514101627
1.9555502079255318,12.960786770128706,-0.01937323800042289,0.41534412146721017,-1.4120119620351341
1.9510880985110535,12.866892899343377,-0.01942771342982364,0.4011243201443587,-1.4341207066650523
1.946613777740905,12.77626204535369,-0.019479423701902532,0.38697006237465703,-1.4546360588168101
1.9421280412320039,12.68887904493451,-0.019526980723323328,0.37288211518343556,-1.4734016039027864
1.937632010879886,12.604728528879331,-0.019568935382050342,0.35886150268768363,-1.4902526850954299
1.9331271498077631,12.523794859767737,-0.019603769592930358,0.3449095330653153,-1.5050155873745514
1.928615279292007,12.446062063091404,-0.01962988706581802,0.33102782933757513,-1.517506656245789
1.9240985979777203,12.371513750805399,-0.01964560262363279,0.31721836445378554,-1.527531348748387
1.919579703741211,12.300133036254458,-0.019649129867752614,0.3034835012065627,-1.5348832162709833
1.9150616186070502,12.231902439299649,-0.019638566951038088,0.28982603753090186,-1.5393428217311946
1.9105478171879406,12.166803780343514,-0.019611880171652003,0.27624925773984227,-1.5406765983788748
1.9060422591886919,12.104818061830048,-0.0195668850392078,0.26275699020333926,-1.538635664624208
1.901549426605302,12.045925335693315,-0.01950122438157438,0.24935367185521698,-1.532954619989582
1.897074366362793,11.990104555168045,-0.019412342944590186,0.23604441966888112,-1.5233503631664327
1.8926227392806414,11.937333409393641,-0.019297457769770664,0.22283510880419935,-1.509520996592954
1.8882008764475935,11.887588139396687,-0.01915352338716885,0.20973245638670676,-1.4911449163961812
1.8838158443524944,11.840843334414938,-0.018977190483257425,0.1967441086719954,-1.4678802369451946
1.8794755204934717,11.797071708263385,-0.01876475611693987,0.1838787274284621,-1.4393647728093408
1.8751886817377983,11.756243856745101,-0.018512102628046045,0.1711460683827061,-1.4052169077937844
1.8709651085329713,11.71832799928071,-0.01821462089218896,0.158557040003301,-1.3650378351008712
1.866815709347048,11.683289711414218,-0.017867111159317776,0.14612372405313545,-1.3184158734864337
1.8627526717253593,11.651091660274147,-0.017463650768410246,0.13385932933878644,-1.2649338750672627
1.8587896495565683,11.621693363260462,-0.01699741156890218,0.12177803599761727,-1.204181165917561
1.8549420013068634,11.595051002188786,-0.016460399298098397,0.109894668973469,-1.1357720151199324
1.8512271023474678,11.571117341780312,-0.015843069914035682,0.09822411718716571,-1.0593732847036526
1.8476647680564797,11.549841822871706,-0.015133750007600102,0.08678039506159614,-0.9747445321081873
1.8442778462596698,11.531170924597472,-0.014317743877704538,0.07557524210566624,-0.8817940155498534
1.8410930727176087,11.515048907228316,-0.013375939096740263,0.06461621327829188,-0.7806528542912371
1.838142339912716,11.501419035874097,-0.012282607032761256,0.053904407193177406,-0.6717651879096975
1.8354646235029732,11.490225297518773,-0.01100188348674042,0.04343244807049833,-0.5559817433180759
1.8331089866661108,11.481414373864911,-0.009481915094673408,0.03318427935439464,-0.4346253513099038
1.8311395004823063,11.474937073511711,-0.007644051721016492,0.02314007154300248,-0.30947253371615835
1.8296442905723795,11.470747190492148,-0.005357773582694597,0.013293693844491382,-0.18258035880165338
1.8287576091902182,11.46879154612024,-0.0023524993056641616,0.0037119093894950553,-0.05591102567905021
