x,y,v_x,v_y,omega
2.375,32.48,0.0,3.5384615384615383,-2.7346938775510203
2.3744004619393135,31.850714037845957,-0.00666153400762585,3.4536047076944745,-2.5545621545505015
2.372693702085591,31.23638413187809,-0.01230246436707121,3.3722831363929444,-2.3922385182866175
2.370049931241742,30.636394682597334,-0.01707276723125178,3.294266300059859,-2.245447975712951
2.3666145089808053,30.050169777672664,-0.02109859122359936,3.219343754658692,-2.1122579065658704
2.362511859702997,29.477169777704546,-0.024486400752049,3.1473229116537453,-1.9910197171454846
2.3578487136050845,28.91688827501175,-0.027326333669199145,3.078027118266229,-1.8803215164959226
2.3527167994449543,28.368849375082885,-0.029694934776692935,3.0112939920544903,-1.7789495376854951
2.347195090136209,27.832605258585474,-0.031657390876035314,2.946973969027872,-1.6858565366796148
2.3413516820361364,27.30773398846774,-0.03326936579143728,2.8849290322802923,-1.60013578827692
2.335245372957275,26.793837532085895,-0.03457851286257912,2.825031594184611,-1.520999594420346
2.328926991437451,26.29053997271349,-0.035625726246575645,2.7671635099532264,-1.447761447865336
2.322440519891612,25.797485888443646,-0.03644617981829993,2.711215204156177,-1.3798211704860424
2.3158240463688538,25.31433887953545,-0.03707019265678951,2.6570848948237784,-1.3166524828181627
2.309110573312764,24.840780227801893,-0.03752395241087903,2.604677902215746,-1.2577925689841223
2.302328706636761,24.37650767378192,-0.03783012176693251,2.553906031339506,-1.202833285818004
2.2955032443189993,23.92123429925651,-0.0380083484304168,2.504687018942808,-1.151413732001027
2.2886556803919893,23.474687504215993,-0.03807569520302569,2.4569440370629687,-1.1032139462754602
2.281804637492948,23.0366080687094,-0.03804700367521447,2.410605246343611,-1.0579495463334667
2.2749662389285015,22.606749291143867,-0.03793520259641168,2.365603393273404,-1.0153671540854963
2.2681544293943756,22.184876195582746,-0.03775157000498705,2.3218754462945883,-0.9752404804809977
2.26138125200005,21.770764801440308,-0.03750595659863453,2.279362266399159,-0.937366965262944
2.254657088018821,21.36420144970846,-0.03720697652612924,2.238008308399189,-0.9015648850626091
2.2479908647664004,20.964982180493724,-0.03686217072298674,2.197761349542299,-0.867670857924131
2.2413902361669424,20.572912157204716,-0.03647814704876758,2.158572242557801,-0.8355376843516412
2.234861739862807,20.18780513322277,-0.036060700774959625,2.1203946905749294,-0.8050324748177478
2.2284109341379947,19.809482957321517,-0.03561491838962241,2.0831850416612188,-0.7760350217753261
2.2220425174345277,19.437775114482537,-0.03514526720445399,2.0469021009941173,-0.7484363809046677
2.2157604328293954,19.072518299091282,-0.03465567285257428,2.0115069589087122,-0.7221376318685377
2.209567959493441,18.713556017795717,-0.0341495864358093,1.9769628332642124,-0.6970487934498674
2.203467792861652,18.3607382195748,-0.033630042806286564,1.94323492474601,-0.6730878717806359
2.197462114997598,18.013920950799147,-0.03309971123876139,1.9102902838723597,-0.650180023573243
2.1915526564257792,17.672966033275905,-0.03256093955922279,1.8780976886080945,-0.6282568189485068
2.1857407505282613,17.337740763456733,-0.03201579263542224,1.846627531604913,-0.6072555907076961
2.1800273814510116,17.008117631155113,-0.031466086000687364,1.8158517161908618,-0.5871188587933704
2.174413226336707,16.683974056268905,-0.03091341526935969,1.7857435603225469,-0.5677938202854668
2.168898692590848,16.36519214213842,-0.03035918190685215,1.7562777077939502,-0.5492318966344046
2.163483950793927,16.051658444290943,-0.029804615836718285,1.7274300460668732,-0.5313883309826001
2.1581689637917267,15.743263753431322,-0.029250795298837673,1.6991776301511283,-0.5142218294031308
2.1529535124264947,15.439902891636038,-0.028698664314850523,1.6714986120186843,-0.4976942407170796
2.147837218312069,15.141474520796628,-0.02814904806766161,1.6443721750858926,-0.48177027026222385
2.1428195640045966,14.84788096243808,-0.02760266645980503,1.6177784733424305,-0.46641722359430576
2.137899910876053,14.559028028110177,-0.027060146079572703,1.591698574745356,-0.4516047766239853
2.1330775149593113,14.274824859615194,-0.026522030773107653,1.56611440853222,-0.4373047691410105
2.12835154100024,13.995183778394782,-0.02598879099435113,1.5410087161390364,-0.42349101906322806
2.1237210749233557,13.720020143452896,-0.02546083208214349,1.5163650054374829,-0.4101391550811143
2.119185134892471,13.449252217240698,-0.024938501594352586,1.4921675080313708,-0.3972264656563636
2.1147454583149634,13.182801414922416,-0.024391238155730972,1.4683969621717705,-0.38388920962041445
2.1104033102970634,12.92059178715079,-0.023854850932046985,1.4450433464018528,-0.3711129148040109
2.106156737428194,12.662549532243187,-0.023329292055389722,1.4220928192381728,-0.3588677214607541
2.102003797346857,12.408603287758439,-0.022814486626135964,1.3995321194812353,-0.34712565886858326
2.0979425632542537,12.158684028806988,-0.022310336625011088,1.3773485355348989,-0.33586050671189405
2.0939711277658493,11.9127249717105,-0.02181672435725877,1.3555298766482897,-0.3250476679962337
2.0900876061801275,11.670661482677502,-0.021333515484093384,1.3340644459405517,-0.31466405242499534
2.0862901392344684,11.43243099118563,-0.02086056168989739,1.3129410150802518,-0.3046879692770174
2.0825768954098782,11.197972907783253,-0.02039770302776919,1.292148800501716,-0.2950990289212668
2.078946072839097,10.967228546043593,-0.01994476998091024,1.2716774410500635,-0.28587805219132445
2.0753959008662575,10.740141048423105,-0.01950158527286531,1.2515169769553467,-0.2770069869194732
2.0719246413006855,10.516655315793155,-0.019067965455712366,1.231657830044076,-0.26846883099893587
2.0685305894025037,10.296717940429865,-0.018643722301865288,1.2120907851035811,-0.2602475614041944
2.065212074633343,10.080277142261632,-0.018228664022141156,1.1928069723212114,-0.2523280686541951
2.0619674612016414,9.86728270818735,-0.017822596330099548,1.1737978507263538,-0.24469609625235705
2.058795148428602,9.657685934290793,-0.017425323370337358,1.1550551925687231,-0.2373381846813063
2.0556935709578976,9.451439570788185,-0.017036648526378453,1.1365710685713761,-0.23024161956972694
2.0526611988295436,9.248497769556629,-0.016656375121997802,1.1183378340014907,-0.22339438368416575
2.0496965374360228,9.048816034100941,-0.016284307028233885,1.1003481155061503,-0.21678511243048634
2.0467981273766567,8.852351171825607,-0.01592024918694485,1.0825947986642344,-0.21040305257833822
2.043964544224384,8.65906124848701,-0.015564008060529648,1.0650710162090478,-0.20423802394783105
2.041194398217465,8.468905544709031,-0.01521539201634542,1.0477701368795873,-0.1982803838208894
2.0384863338871893,8.281844514452349,-0.014874211653388973,1.030685754861329,-0.1925209938607788
2.0358390296313678,8.097839745334614,-0.014540280077958122,1.013811679780176,-0.18695118934228205
2.0332511972422687,7.91685392070498,-0.014213413134254428,0.9971419272157491,-0.1815627505121712
2.0307242647452335,7.739066082667737,-0.013863614610581096,0.978278495420281,-0.22365701598629914
2.028256658470209,7.564664569476193,-0.013554232889695612,0.9595160955968818,-0.26684991158859256
2.025841220135749,7.393631419991454,-0.013283970826525077,0.9408522320113392,-0.3110445219045079
2.0234710265355056,7.225949113796169,-0.01305151362062311,0.922284503491828,-0.3561451651195745
2.0211393924576884,7.061600554379048,-0.012855531688458294,0.903810601142862,-0.4020571834602834
2.018839873116449,6.900569052701279,-0.01269468321419949,0.8854283063879015,-0.44868673383321106
2.016566266151471,6.7428383110855314,-0.012567616396665822,0.8671354893426374,-0.4959405777338154
2.014312613249086,6.588392407367564,-0.012472971407612823,0.8489301075236583,-0.5437258694651034
2.012073201435735,6.437215779249428,-0.012409382074062827,0.8308102049000772,-0.5919499416668846
2.0098425640925255,6.289293208791527,-0.012375477294932697,0.8127739112988076,-0.6405200871079568
2.007615481738005,6.144609806978654,-0.012369882199739536,0.7948194421775703,-0.6893433356355678
2.0053869826251103,6.003150998292163,-0.012391219054647835,0.7769450987834496,-0.7383262251080036
2.003152343197524,5.864902505216946,-0.012438107918530396,0.7591492687189615,-0.787374565056171
2.000907088450445,5.729850332607441,-0.01250916704901856,0.7414304269422248,-0.8363931917274526
1.998646992241022,5.597980751831667,-0.012603013055680479,0.7237871372330281,-0.885285713058647
1.99636807759451,5.469280284606075,-0.012718260794451255,0.7062180541624556,-0.9339542420030476
1.994066617053531,5.343735686426516,-0.012853522994203883,0.6887219256104045,-0.9822991164981035
1.9917391331197964,5.221333929492118,-0.013007409602848243,0.6712975958829146,-1.0302186042029353
1.9893823988402528,5.102062185008563,-0.013178526836524517,0.6539440094899178,-1.077608589957411
1.9869934385929524,4.985907804745615,-0.013365475911258516,0.6366602156539655,-1.1243622437146026
1.9845695291320768,4.872858301709883,-0.013566851431803051,0.6194453736319383,-1.1703696664742504
1.9821082009565643,4.762901329777964,-0.013781239407226416,0.6022987589449252,-1.2155175114944656
1.9796072400727802,4.656024662116522,-0.014007214857040862,0.5852197706266681,-1.2596885777805307
1.977064690228779,4.552216168194452,-0.014243338965193295,0.5682079396185395,-1.3027613725420093
1.9744788557060355,4.451463789167445,-0.01448815573195613,0.5512629384593314,-1.3446096389718136
1.9718483047642619,4.35375551138636,-0.014740188065530832,0.5343845924416085,-1.3851018453339898
1.9691718738462363,4.2590793377476,-0.01499793324586318,0.5175728924335121,-1.4241006309532447
1.9664486726626749,4.167423256564927,-0.015259857682597876,0.5008280095961987,-1.4614622042840142
1.9636780902923046,4.078775207597587,-0.015524390877071817,0.48415031226313404,-1.4970356878099642
1.9608598024497608,3.9931230448179136,-0.015789918484526284,0.46754038528879943,-1.530662404102512
1.9579937800940208,3.9104544954419858,-0.016054774357027807,0.45099905222152303,-1.562175096975294
1.9550802995732257,3.8307571146782777,-0.016317231429584144,0.43452740070854995,-1.5913970813507414
1.9521199545283552,3.7540182355703955,-0.016575491291199198,0.4181268116012496,-1.6181413152662125
1.949113669808875,3.680224913219803,-0.01682767225858164,0.4017989922942378,-1.6422093874822599
1.9460627176888063,3.609363862572046,-0.017071795742180436,0.38554601490304374,-1.6633904145511504
1.942968736712505,3.5414213888345216,-0.017305770661169007,0.3693703599583267,-1.6814598421619518
1.939833753546793,3.4763833094653407,-0.017527375624517318,0.3532749663659055,-1.6961781473978992
1.9366602082713311,3.414234866532553,-0.017734238547284363,0.33726328844285375,-1.7072894416625242
1.9334509836040359,3.354960628093771,-0.017923813311551788,0.32133936087694176,-1.714519979101945
1.9302094386355422,3.2985443770945864,-0.018093353005044905,0.30550787244734723,-1.7175765833286312
1.9269394477398283,3.2449689861415756,-0.018239879169553067,0.2897742492527532,-1.7161450175495523
1.9236454454428011,3.1942162763922965,-0.01836014635297074,0.27414474796147026,-1.7098883419069206
1.920332478175444,3.146266858753428,-0.01845060106210839,0.25862655913708626,-1.698445330041622
1.917006264026745,3.101099955643498,-0.018507333923437234,0.2432279198621246,-1.6814290591571346
1.9136732618660983,3.0586932018440933,-0.0185260234170803,0.22795823346457866,-1.658425850943493
1.9103407515614503,3.019022423568792,-0.018501868856786053,0.2128281918165532,-1.6289948345393115
1.907016927538365,2.982061396032421,-0.018429509177494526,0.19784989192089064,-1.5926685417253523
1.9037110087075118,2.9477815818261384,-0.018302922276430975,0.1830369325933416,-1.5489551494793414
1.9004333690045636,2.916151855778608,-0.01811529664521478,0.16840446793476238,-1.497343284685725
1.8971956947267972,2.887138227413466,-0.017858861996635847,0.15396918056682204,-1.437310737984819
1.894011178006545,2.860703580575862,-0.017524657117278145,0.1397491176287738,-1.368339042383605
1.8908947609658375,2.8368074625421436,-0.017102198890581233,0.125763304968079,-1.2899366934641607
1.8878634537492278,2.8154059732514263,-0.016578992405081688,0.11203102048435132,-1.2016748082577788
1.884936764058925,2.796451829815865,-0.015939781931617273,0.09857057324411861,-1.1032400697772968
1.882137299824544,2.7798947100617966,-0.015165376228169093,0.08539742402329477,-0.9945103209964746
1.8794916464180518,2.765682001997181,-0.014230772732855992,0.07252155447244368,-0.8756567386262749
1.8770316858557963,2.7537600774878186,-0.01310212240331696,0.05994427340935235,-0.7472701816242562
1.8747966387829362,2.744076109501293,-0.01173173396179358,0.0476553708853732,-0.6104932646944452
1.872836329418512,2.7365801523321807,-0.010049481198478961,0.03563304210478388,-0.4671095585641278
1.8712167228824683,2.7312265058908274,-0.007946146979782362,0.02385191835468163,-0.3195018790276355
1.8700307493588026,2.7279717314598493,-0.00523133661650318,0.012312241989514385,-0.17036953640425473
1.869428800318865,2.72675976551756,-0.0014569860494698414,0.0011540462581257453,-0.02215519141186506
