x,y,v_x,v_y,omega
2.375,32.48,0.0,3.4871794871794872,-4.571428571428571
2.3733789763266935,31.689622121352507,-0.014095858028752585,3.3856716314943456,-4.197425633507755
2.368818144369209,30.92197291486959,-0.025563550297196855,3.289538859661461,-3.8697884120932455
2.3618675833739315,30.175867353394022,-0.03487611053130624,3.1983355879521627,-3.5811718671111743
2.352979148818564,29.450217054625682,-0.04241462473275621,3.111667010033383,-3.3255948054674858
2.3425253716742755,28.744019479792954,-0.04848778521758093,3.0291814667729793,-3.0981536195395543
2.3308143827156416,28.056348718975062,-0.05334690137923503,2.9505642794695306,-2.8948026574782686
2.3181017746305836,27.386347566060927,-0.057197516751703405,2.8755327023925377,-2.712184225325
2.3046000866089345,26.733220654578002,-0.060208466045247946,2.803831745285065,-2.547495937757983
2.2904864298545515,26.096228475451067,-0.06251898399286351,2.735230681905663,-2.398386436173964
2.275908649918371,25.47468213476385,-0.06424431980001123,2.669520106678845,-2.2628728363874546
2.2609903304916377,24.867938737538008,-0.065480196954189,2.6065094344154205,-2.139274952333782
2.2458348747236747,24.275397304953334,-0.06630637494114171,2.546024761973056,-2.026162565946262
2.230528848175457,23.696495149063207,-0.06678950808683869,2.4879070283758726,-1.9223129117223554
2.215144727864986,23.130704642140202,-0.06698545113464717,2.432010423128522,-1.8266762100845555
2.1997431713832087,22.577530328193774,-0.06694112696776745,2.3782010024926,-1.7383475810098008
2.1843748964861462,22.036506332568536,-0.06669604605016426,2.326355481205105,-1.6565440440115327
2.1690822432273658,21.507194032321568,-0.06628354750445131,2.2763601731163643,-1.5805855947922935
2.1539004763442207,20.989179955635066,-0.06573181669680886,2.228110058940174,-1.5098795660343298
2.13885887432416,20.482073883105837,-0.06506472260806384,2.1815079630531207,-1.4439076467694962
2.123981642655685,19.985507127562457,-0.06430250929172437,2.136463824280615,-1.3822150639463502
2.109288681683404,19.49913097224649,-0.06346236872810468,2.0928940480321203,-1.3244015303254126
2.0947962338348307,19.022615249873645,-0.06255891691166454,2.050720929123079,-1.270113641472434
2.0805174304588525,18.555647047356764,-0.06160459070553933,2.009872136241088,-1.2190384664655813
2.0664627548739603,18.097929522898617,-0.06060997959786862,1.9702802503514967,-1.1708981258138391
2.0526404352834975,17.649180823806596,-0.05958410379746105,1.9318823504486746,-1.125445188902097
2.0390567788316676,17.20913309479147,-0.058534647957580926,1.8946196409872502,-1.0824587542455029
2.0257164561352847,16.777531567725653,-0.05746815809792421,1.8584371161067845,-1.0417411006474837
2.0126227440438145,16.354133724885003,-0.056390207914858555,1.8232832564206047,-1.003114817319302
1.9997777330844455,15.938708528606547,-0.055305539557915104,1.7891097546964092,-0.966420337146313
1.987182504984401,15.531035711085007,-0.05421818305116892,1.755871267230033,-0.9315138103650711
1.9748372847855544,15.13090511871994,-0.05313155780836552,1.7235251881183762,-0.8982652665620001
1.9627415713414913,14.738116106028137,-0.05204855909653286,1.6920314439842796,-0.8665570216022666
1.9508942493863641,14.352476974664444,-0.050971631817616075,1.6613523070043532,-0.8362822932282553
1.9392936858656138,13.97380445355892,-0.049902833580212844,1.6314522243480276,-0.807343994932794
1.9279378128025906,13.601923216587647,-0.04884388870694449,1.602297662358696,-0.7796536825531962
1.916824198627587,13.236665434556286,-0.047796234553956644,1.5738569640009574,-0.7531306320400214
1.9059501096047538,12.877870358595587,-0.046761061296767714,1.5461002182660066,-0.7277010301827307
1.8953125627480814,12.52538393235201,-0.04573934615255664,1.5189991403737724,-0.7032972628466256
1.8849083714120902,12.179058430609093,-0.044731882856063186,1.4925269617385466,-0.6798572875911573
1.8747519314321095,11.83875372605522,-0.043584986535072395,1.4666443822081585,-0.652862796359731
1.8648559636836226,11.504335251252595,-0.04246690693003011,1.4413423552059634,-0.6272462893942111
1.8552138691559823,11.175672110849263,-0.041377393310322176,1.4165979961273631,-0.6029196382700857
1.8458191164943605,10.852638538927117,-0.04031610809508451,1.392389585804336,-0.5798014191459369
1.836665260165392,10.535113639480677,-0.039282642591596265,1.3686964963386317,-0.5578163225720041
1.827745955264315,10.2229811433089,-0.0382765304612492,1.3454991225464006,-0.5368946221117283
1.819054969449418,9.916129180086006,-0.0372972592335076,1.32277881852225,-0.5169716952481935
1.8105861924212452,9.614450064484782,-0.036344280141907125,1.3005178388796945,-0.4979875908442805
1.8023336433054968,9.31784009532274,-0.0354170165167738,1.2786992842684948,-0.4798866381163537
1.7942914762484432,9.02619936678893,-0.034514870935867845,1.2573070508081192,-0.46261709268158796
1.7864539844906688,8.73943159088822,-0.03363723130564733,1.2363257831111019,-0.44613081576148617
1.7788156031480433,8.457443930311339,-0.03278347602153246,1.2157408306009088,-0.43038298307962586
1.7713709108970666,8.180146841003737,-0.03195297833478624,1.1955382068565084,-0.41533182038948185
1.764114630734441,7.907453923765075,-0.03114511003586993,1.1757045517405398,-0.40093836291618534
1.7570416299571894,7.639281784264547,-0.03035924454892712,1.1562270960901295,-0.38716623630103386
1.7501469194893762,7.375549900905714,-0.029594759519015166,1.1370936287693016,-0.37398145690521495
1.7434256526640002,7.116180500018764,-0.02885103896251472,1.1182924658998223,-0.36135224956448186
1.7368731235535346,6.861098437898388,-0.0281274750415345,1.0998124221034336,-0.3492488810936521
1.7304847649295492,6.610231089242152,-0.02742346951485865,1.0816427836029596,-0.33764350802242676
1.7242561459205912,6.363508241577879,-0.026738434910863012,1.0637732830428874,-0.326510037205286
1.718182969427748,6.120861995299229,-0.026071795461688745,1.0461940759018773,-0.3158239980908034
1.712261069348897,5.882226668956768,-0.025422987832666222,1.028895718380391,-0.3055624255619794
1.7064864076553534,5.647538709477544,-0.02479146167640936,1.0118691466563436,-0.29570375237113916
1.7008550713583057,5.416736607009856,-0.024176680037048606,0.9951056574105012,-0.2862277102923343
1.6953683418497396,5.189858538480134,-0.023534011341786537,0.9777471124131603,-0.2942231957409337
1.690025875454244,4.966958139601978,-0.02292221818426027,0.9605172256577781,-0.3045991616258303
1.684820541225994,4.748006262936208,-0.022341557713567998,0.9434121366532768,-0.317225919440035
1.67974516516286,4.532974630684691,-0.021792147183249063,0.9264281437946816,-0.3319780429228885
1.674792560949236,4.321835799023514,-0.021273976413482328,0.9095616967372839,-0.34873406285079855
1.6699555579488756,4.11456312412507,-0.02078691924182511,0.8928093893361327,-0.367376174564174
1.665227026671511,3.9111307297426983,-0.02033074403960566,0.876167953119281,-0.38778995697207663
1.6605999019200173,3.71151347623832,-0.019905123364687628,0.8596342512666278,-0.4098641018339662
1.6560672038093052,3.5156869309396725,-0.019509642815417616,0.8432052730694347,-0.4334901521671577
1.6516220568338462,3.3236273397190885,-0.01914380914509615,0.8268781288486944,-0.4585622486695849
1.6472577071476686,3.135311599690432,-0.018807057691232233,0.810650045313522,-0.48497688308042824
1.6429675382087292,2.9507172329248554,-0.01849875916910976,0.7945183613436521,-0.5126326574262858
1.6387450849286829,2.7698223610892896,-0.018218225874771014,0.778480524182993,-0.5414300481179286
1.6345840464591714,2.5926056809143283,-0.017964717338371246,0.7625340860340514,-0.5712711738722825
1.6304782977367902,2.419046440400134,-0.01773744546494438,0.7466767010459135,-0.6020595664360298
1.626421899900792,2.249124415670341,-0.01753557919590947,0.7309061226914081,-0.633699943080943
1.6224091096903348,2.0828198883846376,-0.01735824872110889,0.7152202015321065,-0.6660979798264948
1.6184343879216136,1.9201136236205514,-0.017204549267770475,0.6996168833729838,-0.699160084322047
1.6144924071395281,1.7609868481342872,-0.017073544489496266,0.6840942078119135,-0.73279316728857
1.6105780585335916,1.6054212289087495,-0.016964269475168325,0.668650307192758,-0.7669044113777896
1.6066864582035802,1.4533988518944945,-0.016875733394495995,0.6532834059746851,-0.8014010362542463
1.602812952856929,1.3049022008459303,-0.016806921793775936,0.6379918205345827,-0.8361900586421688
1.5989531250171347,1.1599141361506824,-0.016756798552262076,0.6227739594240952,-0.8711780460034202
1.5951027978203989,1.018417873544493,-0.01672430750631144,0.6076283241079905,-0.9062708624240218
1.5912580394764815,0.8803969625971924,-0.016708373745144615,0.592553510216349,-0.9413734051837549
1.5874151674692514,0.7458352648471092,-0.01670790457859516,0.5775482093495806,-0.9763893303648259
1.5835707525727516,0.6147169314514045,-0.01672179017357491,0.5626112114826403,-1.011220765720179
1.579721622759799,0.48702638020823485,-0.016748903852101853,0.5477414080231828,-1.0457680088683436
1.5758648670822568,0.36274827179295244,-0.016788102039569142,0.532937795587939,-1.0799292087082424
1.5719978396052534,0.24186748503449707,-0.01683822384741598,0.5181994805725161,-1.1136000277527758
1.5681181634818167,0.12436909103939087,-0.016898090269424577,0.5035256846023476,-1.1466732828630044
1.5642237352598078,0.01023832594892582,-0.01696650296543452,0.4889157509669062,-1.1790385616244996
1.5603127295197545,-0.10053943791019293,-0.017042242600248267,0.4743691521558466,-1.2105818113436413
1.556383603950364,-0.20797872275111473,-0.01712406669879883,0.45988549863479755,-1.2411848973550343
1.5524351049783203,-0.31209397823146645,-0.017210706971147356,0.4454645490204482,-1.2707251270240516
1.5484662740806074,-0.4128996168803951,-0.01730086605244145,0.4311062218397749,-1.2990747355054284
1.5444764549213312,-0.5104100524369954,-0.01739321359343853,0.416810609087163,-1.326100328988
1.54046530147105,-0.6046397415420373,-0.017486381626398692,0.4025779918262149,-1.3516622808305307
1.5364327872853456,-0.695603229285922,-0.01757895911885724,0.38840885812059434,-1.3756140756952833
1.5323792161410983,-0.7833151991861627,-0.017669485613727783,0.3743039236206267,-1.3978015965469976
1.528305234254147,-0.867790528248193,-0.017756443838022398,0.36026415517963195,-1.418062349254282
1.5242118443312411,-0.9490443478553203,-0.017838251143766918,0.3462907979258233,-1.4362246195811008
1.5201004217430802,-1.0270921113379714,-0.017913249622850184,0.33238540627112195,-1.4521065576962178
1.5159727331445991,-1.1019496691896222,-0.01797969471176793,0.3185498793954195,-1.465515186117388
1.5118309579145408,-1.1736333530270926,-0.018035742071349312,0.30478650179995864,-1.4762453284787636
1.5076777128401135,-1.2421600695346555,-0.01807943248888724,0.29109798957016564,-1.4840784590076967
1.50351608053604,-1.3075474057820315,-0.018108674503057573,0.2774875430157398,-1.4887814766244973
1.4993496421631525,-1.369813747458707,-0.018121224391614888,0.26395890634667285,-1.4901054138749035
1.495182515103712,-1.4289784117101618,-0.01811466308178078,0.25051643497033627,-1.487784100556128
1.491019396364472,-1.4850617963752413,-0.018086369433351013,0.23716517081298583,-1.4815328165007406
1.4868656126229787,-1.5380855474754398,-0.018033489188328783,0.22391092571047724,-1.4710469898896352
1.4827271780214348,-1.5880727467433715,-0.017952898651182884,0.2107603722715113,-1.4560010301366588
1.4786108610677577,-1.635048120715453,-0.017841161815573013,0.19772114052921078,-1.4360474329084691
1.474524262361166,-1.6790382723215558,-0.017694479111312472,0.18480191691515935,-1.410816366654694
1.4704759053788137,-1.720071934779618,-0.017508625083055274,0.17201253924193388,-1.3799160559192387
1.4664753433388444,-1.75818024563808,-0.01727887091667797,0.15936407691860335,-1.3429344320934253
1.4625332863577116,-1.7933970355424265,-0.01699988544099901,0.14686887877136912,-1.2994427485292621
1.4586617550208116,-1.8257591210652464,-0.016665604445087922,0.1345405605575181,-1.2490021821481114
1.4548742695471302,-1.855306582799649,-0.016269051847794078,0.12239388930685739,-1.1911749008983858
1.4511860887237766,-1.882082997676811,-0.015802085746583656,0.11044450092933833,-1.1255416944870074
1.447614520999835,-1.9061355768343446,-0.015255024896387179,0.09870836131010063,-1.0517290416137577
1.4441793436701382,-1.9275151365676422,-0.0146160823183698,0.08720085376205063,-0.9694493148911146
1.440903388354736,-1.9462758014173644,-0.013870485641649876,0.07593536232250378,-0.8785583380368299
1.437813387427203,-1.962474312981179,-0.012999087641245615,0.06492125997156042,-0.779133768667982
1.434941235576389,-1.97616881757245,-0.01197614584409198,0.054161388648189604,-0.6715737837321775
1.4323259201429934,-1.987417080369923,-0.010765727489783782,0.043649592199379306,-0.5567048773682176
1.430016556676104,-1.9962743193790402,-0.00931569396142669,0.03336987744510587,-0.4358665241692887
1.4280773876220134,-2.0027914364125152,-0.007546645639362413,0.023300705454705535,-0.31091037721868686
1.4265969609693863,-2.007015728907028,-0.00532662960087313,0.013432272758434121,-0.18402870792600676
1.4257103082110074,-2.0090004343230277,-0.002383394385031724,0.003826035206779597,-0.057345277774797504
