x,y,v_x,v_y,omega
2.375,32.48,0.0,2.9743589743589745,-5.795918367346939
2.373722687752883,31.891994766166547,-0.01277312247116878,2.9056933639755096,-5.435838523469913
2.3700741796571543,31.31744673289328,-0.02371195848612049,2.83978696875718,-5.109146326444093
2.3643961040106674,30.75582237581878,-0.03306879797875002,2.7764566019878085,-4.8118068020472995
2.3569834151952542,30.206623063240347,-0.04105809017537918,2.715536523796517,-4.54036514107393
2.348091331156618,29.669381794933976,-0.04786275021098263,2.6568761592672,-4.291850990873583
2.3379411267209234,29.143660358651616,-0.053639294145966215,2.6003382035564235,-4.0637005487166125
2.326724992791272,28.62904683486568,-0.05852204515054824,2.545797034302935,-3.853692761403896
2.3146101285189005,28.12515339438818,-0.06262659757316386,2.4931373704720223,-3.6598967855317066
2.301742200369561,27.631614344270584,-0.06605268392023175,2.4422531307039623,-3.4806284977043367
2.288248276138028,27.14808438573793,-0.06888655839510108,2.393046454622572,-3.3144143232044896
2.2742393216217773,26.674237054437487,-0.07120298676740267,2.345426858381874,-3.1599610168425016
2.2598123315453265,26.20976331843188,-0.07306691399710563,2.299310501674206,-3.016130310492742
2.2450521534642656,25.754370313466207,-0.07453486681350496,2.2546195479824913,-2.8819175594566016
2.230033053049712,25.307780198329347,-0.07565613733203058,2.2112816033861007,-2.756433689731518
2.214820060812673,24.86972911579269,-0.07647378503835418,2.1692292219804923,-2.6388898818800413
2.199470133555775,24.43996624678128,-0.07702548753062866,2.128399468133609,-2.5285845329170353
2.1840331583150485,24.01825294721634,-0.07734426487663462,2.0887335275157866,-2.424892121784149
2.1685528220270065,23.60436195844395,-0.07745909800378986,2.050176360208112,-2.3272536713302103
2.153067366430522,23.1980766833937,-0.07739545796105227,2.012676390294373,-2.2351685538966786
2.1376102446351966,22.799190521641002,-0.07717575999220201,1.9761852272326368,-2.1481874314042213
2.1222106932359437,22.407506257414866,-0.07681975400032622,1.9406574150287133,-2.0659061564006658
2.106894231730411,22.022835495329034,-0.07634486105500231,1.906050205829614,-1.9879604895331386
2.0916830992237427,21.644998139241373,-0.07576646401167891,1.8723233550469442,-1.9140215126545093
2.076596636921563,21.27382191018382,-0.07509815901012129,1.8394389355285894,-1.8437916362930988
2.0616516236663025,20.909141899767153,-0.07435197354248042,1.807361168638095,-1.7770011163164179
2.046862570723121,20.5508001558646,-0.07353855588933242,1.7760562703874399,-1.7134050079487362
2.0322419811361745,20.19864529772481,-0.0726673399801384,1.7454923110104856,-1.6527804963726032
2.0178005782265753,19.852532157966834,-0.07174668911585246,1.7156390865692233,-1.5949245523679387
2.0035475071675943,19.512321449173974,-0.07078402147395824,1.686468001359402,-1.5396518691504069
1.989490513031968,19.177879453034894,-0.06978591988230444,1.6579519600314,-1.4867930430312621
1.975636098245406,18.84907773018471,-0.06875822798331518,1.6300652684704098,-1.43619296595081
1.9619896619868036,18.525792849078613,-0.06770613460270745,1.6027835425905927,-1.3877094025137737
1.9485556237388204,18.207906132390193,-0.06663424787712442,1.5760836242935747,-1.3412117280214897
1.9353375329035898,17.895303419568357,-0.06554666047518211,1.5499435039247924,-1.296579807271197
1.92233816615009,17.587874844312513,-0.06444700705981606,1.5243422486336609,-1.253702996673913
1.909559613945996,17.28551462583846,-0.06333851498112433,1.499259936106878,-1.212479254609584
1.8970033575425156,16.9881208729078,-0.062224049053679245,1.474677593199724,-1.17281434695761
1.8846830180257739,16.69559859088131,-0.060979346113738106,1.450545227065147,-1.130933649802681
1.8726102220983947,16.407856124118737,-0.059748613160053844,1.426879440560617,-1.0909521371845
1.8607820584908237,16.1248018150616,-0.05853302291565841,1.4036636500107786,-1.0527612914592397
1.8491954009025227,15.846347247313908,-0.05733355296735037,1.3808820274661433,-1.016259971307704
1.8378469447267882,15.572407098843641,-0.05615100878999438,1.35851945723652,-0.9813538305685058
1.8267332394339282,15.302899003578698,-0.054986044138605514,1.3365614954129161,-0.9479547889785418
1.8158507171082297,15.037743420823638,-0.05383917911837923,1.314994332137684,-0.9159805496479734
1.8051957175759483,14.776863511969388,-0.05271081620443541,1.2938047564048258,-0.8853541586649534
1.7947645105105372,14.520185024009685,-0.05160125444967481,1.2729801231922093,-0.8560036027253136
1.7845533148565593,14.267636179415941,-0.05051070209010238,1.2525083227452334,-0.8278614411231644
1.774558315874383,14.019147571956669,-0.049439287731661556,1.2323777518474757,-0.8008644688274584
1.7647756800731629,13.7746520680791,-0.04838707028053982,1.2125772869282356,-0.7749534077135879
1.7552015682691475,13.53408471349929,-0.047354047759613424,1.1930962588698573,-0.750072623323665
1.7458321469795037,13.297382644673363,-0.0463401651368262,1.173924429389414,-0.7261698647991797
1.7366635983381686,13.064485004846428,-0.04534532127652325,1.1550519688799121,-0.7031960258694725
1.7276921286993354,12.835332864397863,-0.04436937511180994,1.1364694356057417,-0.6811049249925836
1.7189139760756902,12.609869145221712,-0.043412151124642306,1.1181677561557692,-0.6598531029347451
1.7103254165421886,12.388038548899601,-0.042473444210372475,1.1001382070653365,-0.6393996362438525
1.7019227697216819,12.169787488440512,-0.04155302399469455,1.0823723975255681,-0.6197059652231183
1.6937024034558914,11.955064023377467,-0.040650638663210226,1.0648622531048926,-0.6007357351458931
1.6856607377538677,11.743817798025617,-0.03976601835702597,1.0476000004135908,-0.5824546495731993
1.6777942480999861,11.535999982719499,-0.038898878181790594,1.0305781526475781,-0.5648303347434759
1.6700994681945787,11.331563217859486,-0.03804892087228316,1.0137894959525415,-0.5478322141008173
1.6625729921923524,11.130461560608829,-0.03721583914997993,0.9972270765540453,-0.5314313921148488
1.655218547353933,10.932827411528894,-0.03632860923421556,0.9791144142453199,-0.5509874203122388
1.6480371471615798,10.738804271146854,-0.03548539268931574,0.961116989575067,-0.5723785617367206
1.6410200821761327,10.54836940741512,-0.03468525716515645,0.9432316477422817,-0.5954884835789884
1.6341588352069616,10.361500706619115,-0.033927212526552744,0.9254553602177709,-0.6202036953003249
1.6274450922474275,10.17817664860559,-0.03321021706878966,0.907785219917487,-0.646413291316055
1.6208707522222079,9.998376282933119,-0.03253318318340703,0.890218436807232,-0.6740087004933171
1.6144279356525415,9.822079205859946,-0.03189498251325651,0.8727523339245116,-0.7028834414158681
1.6081089923379839,9.649265538086887,-0.03129445063232061,0.855384343806101,-0.7329328823867697
1.6019065081465063,9.479915903175012,-0.030730391282454222,0.8381120053126584,-0.7640540051504592
1.5958133109986556,9.314011406559295,-0.030201580196052263,0.8209329608445237,-0.7961451713188454
1.5898224761259867,9.151533615080272,-0.029706768530637383,0.8038449539457062,-0.8291058904815684
1.5839273306790755,8.9924645369561,-0.0292446859384744,0.7868458272960274,-0.8628365889682319
1.5781214577560752,8.836786602117048,-0.02881404329152816,0.7699335210944853,-0.8972383782099758
1.572398699918986,8.684482642823582,-0.02841353507936482,0.7531060718401861,-0.9322128216188471
1.5667531622615567,8.535535874487493,-0.028041841494927944,0.7363616115206956,-0.967661698865607
1.5611792150900163,8.38992987661328,-0.027697630220475146,0.7196983672214505,-1.0034867663893494
1.5556714962756377,8.247648573773734,-0.027379557923311683,0.7031146611739935,-1.039589512914989
1.5502249133364787,8.108676216529801,-0.027086271468277096,0.6866089112653297,-1.0758709086866105
1.544834645304531,7.9729973621996955,-0.026816408851200617,0.6701796320357183,-1.1122311470450679
1.5394961444339401,7.840596855376344,-0.026568599854709128,0.6538254361977938,-1.1485693768862546
1.5342051378059876,7.711459808084946,-0.02634146642481477,0.6375450367161707,-1.184783424431213
1.528957628887147,7.585571579463956,-0.026133622763590946,0.621337249493716,-1.2207695026198024
1.5237498990977953,7.462917754842721,-0.025943675129925542,0.6052009967186242,-1.2564219063050834
1.5185785094511255,7.343484124077314,-0.025770221336774504,0.5891353109354341,-1.2916326912750515
1.5134403023245002,7.2272566589924345,-0.025611849929477976,0.573139339913363,-1.3262913349612249
1.5083324034290033,7.114221489761402,-0.025467139025490623,0.5572123523969771,-1.3602843765094488
1.5032522240473285,7.004364880037954,-0.02533465479125511,0.5413537448375043,-1.3934950336872907
1.4981974636155186,6.897673200632379,-0.02521294952684359,0.5255630492182335,-1.4258027938854205
1.4931661127305018,6.794132901500085,-0.02510055932332624,0.5098399421047196,-1.4570829762394986
1.4881564566730185,6.693730481782595,-0.024996001251506896,0.49418425507018865,-1.4872062616580872
1.483167079544509,6.5964524576086845,-0.024897770033586758,0.47859598666890324,-1.516038187297313
1.4781968691270153,6.502285327326234,-0.024804334141352278,0.46307531615559666,-1.5434386017844033
1.473245022587332,6.411215533792909,-0.02471413125548237,0.44762261917765755,-1.5692610772750841
1.4683110531607486,6.323229423305268,-0.02462556301034894,0.4322384856987389,-1.5933522742569788
1.4633947979660125,6.238313200690602,-0.024536988937013903,0.4169237404479102,-1.6155512549162756
1.45849642712194,6.156452880023092,-0.024446719503710714,0.40167946622717543,-1.635688740917143
1.453616454357814,6.077634230355223,-0.024353008137549228,0.38650703045153795,-1.6535863116739258
1.448755749334762,6.001842715776213,-0.024254042092969778,0.3714081153385511,-1.6690555397278612
1.44391555192438,5.929063429021742,-0.024147932010852878,0.35638475220617655,-1.681897060820958
1.439097488724685,5.859281017763635,-0.024032699986094825,0.34143936037490524,-1.6918995779026287
1.4343035921331448,5.79247960260653,-0.023906265929307686,0.3265747911961599,-1.6988388009155715
1.4295363223434427,5.72864268571352,-0.023766431967713716,0.31179437773392094,-1.7024763282260826
1.4247985926889086,5.667753048880673,-0.02361086457762608,0.2971019905945497,-1.702558481623256
1.420093798824101,5.609792639790562,-0.02343707407045203,0.2825021003065638,-1.6988151158226876
1.41542585232136,5.55474244511387,-0.023242390956957855,0.26799984646036334,-1.6909584366866826
1.4107992193680308,5.502582349120736,-0.023023938576333277,0.25360111347096226,-1.6786818818077345
1.4062189653929473,5.45329097654972,-0.022778601174500666,0.23931261223920686,-1.6616591454221559
1.4016908066441802,5.406845518722701,-0.022502986313171342,0.2251419660309736,-1.6395434707442134
1.3972211700101287,5.363221542381584,-0.02219338002734515,0.2110977973801788,-1.6119673923378202
1.3928172627647484,5.322392781596186,-0.021845692426456936,0.19718981047380646,-1.5785431969984647
1.388487154492768,5.2843309145587405,-0.021455390293348177,0.18342885990063312,-1.538864494829403
1.3842398743219961,5.249005329439246,-0.021017411414369618,0.16982699129430923,-1.4925094676500759
1.3800855279358677,5.216382887153273,-0.020526052446914213,0.15639743156543856,-1.4390466085982359
1.3760354409505722,5.186427694469451,-0.01997481740603948,0.1431544952727805,-1.3780441065461695
1.37210233858802,5.159100909089407,-0.01935620621948252,0.13011335852764686,-1.3090844803309865
1.3683005769153138,5.134360609962059,-0.01866141050757948,0.11728963274583787,-1.2317866295264412
1.3646464494557577,5.112161781680516,-0.01787986408798069,0.1046986500695816,-1.1458380792445062
1.3611586065846575,5.0924564807848895,-0.01699856462302279,0.09235435888668225,-1.0510406478466514
1.3578586466960978,5.075194270584003,-0.016001034262573405,0.08026774312218775,-0.94737253480021
1.3547719721442106,5.060323019326795,-0.014865711256299251,0.06844476944988472,-0.8350678016824395
1.3519290570080797,5.04779013042555,-0.013563440105009204,0.05688411956256419,-0.7147084333353001
1.3493673641759145,5.037544166649518,-0.012053488216643898,0.04557551819777031,-0.5873120264889141
1.3471343249572576,5.02953656400361,-0.010276903969926173,0.03450050826131399,-0.45437851135157903
1.3452922393126103,5.023722570179867,-0.008143952476546248,0.02363942997611998,-0.31783768517290417
1.3439275013180363,5.020059279382412,-0.005503427469194598,0.012993477998417921,-0.17983255295891318
1.3431746427033586,5.018493712047849,-0.002025158677582574,0.0026621953472148324,-0.04231309453358323
