x,y,v_x,v_y,omega
2.375,32.48,0.0,3.333333333333333,-4.571428571428571
2.3739623153390865,31.854274453986044,-0.010922996430666835,3.253251361550378,-4.271358370527019
2.371006717757669,31.243445166620972,-0.020188557057942848,3.176530610713524,-4.000811993361729
2.3664252092676583,30.646894936450767,-0.02803784810005994,3.102945496341275,-3.756028697021007
2.360467583916574,30.06404743411816,-0.034673997700829864,3.03229137031776,-3.5338138005742863
2.35334802804974,29.494363470014047,-0.04026869563426689,2.9643819360413155,-3.331441742195207
2.3452505862085267,28.937337714037533,-0.04496753427324055,2.899047074237806,-3.1465776643069296
2.336333706814621,28.39249579708455,-0.04889435408365965,2.836130998951466,-2.977213620213574
2.326734037495446,27.8593917374154,-0.05215479664450108,2.7754906817764247,-2.821616397465324
2.3165696056288114,27.337605645515115,-0.05483922300427991,2.716994496121304,-2.6782846283689152
2.305942492952428,26.82674166924369,-0.057025120957649736,2.6605210435779068,-2.5459133682894786
2.2949410920878943,26.32642614754043,-0.05877909866902408,2.605958132245889,-2.4233647112850676
2.283642016232094,25.83630594610934,-0.060158541918347797,2.5532018828182244,-2.309643311355334
2.272111720072427,25.356046952672443,-0.06121299660446588,2.5021559428332965,-2.2038759087311948
2.2604078794323983,24.88533271275969,-0.061985325922149115,2.452730793090445,-2.1052941406746686
2.2485805686776117,24.423863189775908,-0.06251268202296961,2.4048431330546496,-2.0132200573678314
2.2366732680697066,23.9713536353749,-0.06282732437603558,2.3584153343243637,-1.9270538747076966
2.2247237277081053,23.527533558075422,-0.06295731100923964,2.3133749530385668,-1.8462635839899963
2.2127647101830163,23.092145779649034,-0.06292708399169657,2.2696542935550004,-1.7703761087016072
2.200824630371953,22.664945570154217,-0.06275796665107435,2.227190016916738,-1.6989697548643867
2.1889281077842413,22.24569985363052,-0.06246858690378673,2.1859227885958754,-1.6316677465836706
2.177096444365619,21.834186477437427,-0.06207523855539404,2.1457969608051006,-1.5681326749668916
2.165348038616609,21.430193539054216,-0.06159219038155624,2.106760285333957,-1.5080617181865403
2.153698745172873,21.033518764872298,-0.06103195113145042,2.0687636534230993,-1.451182514566464
2.142162187578443,20.643968936129653,-0.06040549723097229,2.031760859657346,-1.397249590267999
2.130750030801391,20.26135935767316,-0.05972246884325978,1.9957083872531107,-1.3460412593062854
2.1194722190541655,19.88551336570129,-0.05899133902227363,1.9605652124508084,-1.297356926920482
2.108337183653316,19.516261871047664,-0.058219559934036845,1.9262926260083961,-1.251014738297218
2.0973520249580484,19.153442934923383,-0.05741368948983188,1.8928540700366796,-1.2068495237374963
2.0865226718413528,18.79690137435032,-0.05657950121222736,1.8602149886271284,-1.164710998910171
2.0758540216528902,18.44648839479484,-0.05572207971895587,1.828342690904212,-1.1244621851288585
2.0653500632142396,18.10206124775628,-0.05484590384579035,1.7972062252911984,-1.0859780198486446
2.055013985032013,17.76348291128172,-0.053954919125015745,1.7667762639146674,-1.0491441319863677
2.044848270612482,17.43062179157161,-0.05305260108057164,1.7370249961917519,-1.0138557603715315
2.0348547825041527,17.103351444012347,-0.0521420105860505,1.7079260307479096,-0.9800167967546211
2.025034836475171,16.781550312125418,-0.051225842350601215,1.6794543049039594,-0.9475389374343572
2.015389267044611,16.465101483059694,-0.050306467444766856,1.65158600105102,-0.9163409297960426
2.005918485425728,16.153892458376124,-0.049385970648738176,1.6242984693023506,-0.8863479019461337
1.996622530801016,15.847814938984445,-0.048466183295599055,1.5975701558732105,-0.857490765238314
1.9875011157300067,15.546764623190484,-0.0475487121887105,1.571380536694814,-0.8297056808590086
1.9785536663882632,15.250641016901845,-0.046634965092798804,1.5457100558171843,-0.802933582813032
1.9697793582475596,14.959347255120306,-0.04572617323039862,1.5205400681990007,-0.7771197506541745
1.9611771477307345,14.672789933921901,-0.04482341115723445,1.495852786521063,-0.7522134261670245
1.9527530174503123,14.39088032136149,-0.043851644426156924,1.4716168193779986,-0.7260014039114185
1.9445118664203662,14.113532757210326,-0.04289731378380166,1.447831224318458,-0.7009426126034918
1.9364503641763098,13.840663148589666,-0.04196060457468568,1.4244804453727078,-0.6769730155574858
1.9285651525716963,13.572190293286617,-0.04104162284230061,1.4015496104488567,-0.6540328044208004
1.9208528598484895,13.308035753415254,-0.04014040582303287,1.379024493460234,-0.6320660754971356
1.9133101128317032,13.04812373603665,-0.03925693119577163,1.3568914789461297,-0.6110205341553657
1.9059335474707195,12.792380980282232,-0.03839112523563527,1.3351375289951126,-0.5908472246055911
1.898719817923159,12.540736650559502,-0.03754287000184356,1.3137501522967614,-0.5715002826136482
1.891665604353977,12.29312223545086,-0.03671200967375617,1.292717375162627,-0.552936708981497
1.88476761960213,12.049471451945184,-0.0358983561351599,1.2720277143707899,-0.5351161618475995
1.87802261484929,11.809720154668401,-0.03510169389473481,1.2516701517006195,-0.5180007660622873
1.871427384409388,11.573806249803475,-0.03432178442002344,1.2316341100354435,-0.5015549380714028
1.8649787697439546,11.341669613412623,-0.03355836995295983,1.2119094309208882,-0.4857452248999021
1.858673662796067,11.11325201389494,-0.03281117686690846,1.1924863534757848,-0.47054015596805376
1.8525090087249945,10.888497038331462,-0.03207991861806551,1.1733554945608378,-0.4559101065984217
1.8464818081141825,10.667350022486993,-0.03136429833785282,1.1545078301177993,-0.441827172183806
1.8405891187168761,10.449757984253917,-0.030664011107476703,1.135934677598769,-0.4282650520863209
1.834828056796318,10.23566956033794,-0.02997874595102959,1.1176276794115136,-0.41519894242719607
1.8291957981109368,10.025034945999167,-0.02930818757929887,1.099578787312413,-0.4026054370069175
1.8236895785891931,9.81780583767452,-0.028652017912739622,1.0817802476838776,-0.39046243566703365
1.8183066947336464,9.613935378318956,-0.028009917408803382,1.0642245876378487,-0.3787490594692888
1.8130445037892962,9.41337810531368,-0.02738156621593773,1.0469046018913777,-0.3674455721255141
1.807900423707249,9.216089900799393,-0.026766645174033644,1.029813340364281,-0.3565333071636516
1.8028719329312242,9.022027944301794,-0.026164836678857276,1.012944096452543,-0.3459946003620241
1.7979565700312605,8.831150667525023,-0.025575825426023657,0.996290395934512,-0.3358127270260754
1.7931568885195497,8.643617563135837,-0.024947137855144734,0.9777422818463892,-0.36784865315617754
1.788472531133101,8.459598350296606,-0.024361887265367792,0.9593020638297296,-0.40132018479441556
1.783895359649013,8.27907279506923,-0.023818865198713512,0.9409669385636983,-0.43612138589441457
1.7794174685550206,8.102021185800563,-0.023316830527523476,0.9227342116327737,-0.47214828224485983
1.7750311908541614,7.928424312754675,-0.02285451369204689,0.9046012941134244,-0.5092986304316549
1.7707291031038364,7.758263448358218,-0.022430620521900178,0.8865656995334823,-0.5474716899561912
1.766504029765744,7.591520327988626,-0.0220438356685488,0.8686250411990463,-0.5865679975376535
1.7623490469382932,7.428177131235504,-0.021692825673037777,0.8507770298864321,-0.6264891426183135
1.7582574855387678,7.268216463565842,-0.0213762416903847,0.8330194718994691,-0.6671375430740941
1.7542229339986959,7.1116213383233315,-0.021092721889321396,0.8153502674953653,-0.7084162201079658
1.750239240532587,6.958375158991153,-0.020840893543403297,0.7977674096854657,-0.7502285712705058
1.7463005150374107,6.808461701646081,-0.020619374826873486,0.7802689834205573,-0.792478140509683
1.7424011306778835,6.661865097529599,-0.02042677632604499,0.7628531651739827,-0.8350683840999599
1.7385357252108484,6.518569815658793,-0.02026170227432302,0.7455182229397657,-0.8779024312384
1.7346992021007392,6.378560645396121,-0.020122751516299407,0.7282625166673027,-0.9208828380217516
1.7308867314773506,6.241822678892621,-0.02000851820358367,0.7110844991590011,-0.9639113334324912
1.7270937509869053,6.108341293313565,-0.01991759222215543,0.69398271746264,-1.0068885558624427
1.7233159665877409,5.978102132748965,-0.019848559347995554,0.6769558147962977,-1.0497137785886608
1.7195493533428503,5.851091089703516,-0.019800001124537905,0.6600025330505382,-1.0922846224864526
1.7157901562630757,5.727294286051283,-0.019770494452037005,0.6431217159203211,-1.134496754117344
1.7120348912569865,5.606698053329698,-0.019758610875219722,0.6263123127279487,-1.1762435671640223
1.7082803462464455,5.489288912234738,-0.019762915551527618,0.6095733830084638,-1.2174158449983845
1.7045235825106593,5.375053551164587,-0.01978196587779933,0.5929041019404748,-1.2579014019614418
1.700761936326178,5.263978803641969,-0.019814309748321057,0.576303766718649,-1.297584700703851
1.6969930209759752,5.156051624425661,-0.019858483411709846,0.5597718039793369,-1.336346442682548
1.6932147292075026,5.051259064098836,-0.019913008888000745,0.5433077784082956,-1.3740631286323277
1.6894252362275965,4.949588241895487,-0.01997639090048427,0.5269114026795896,-1.4106065855323229
1.6856230033314794,4.851026316495631,-0.02004711326916879,0.5105825488978551,-1.4458434562689642
1.68180678227402,4.755560454484787,-0.020123634704089576,0.49432126174261665,-1.4796346478645053
1.6779756205040763,4.66317779613259,-0.020204383926895476,0.4781277735436706,-1.511834733802696
1.6741288673974084,4.573865418098585,-0.02028775403802977,0.46200252155111926,-1.5422913056554366
1.6702661816405504,4.487610292619461,-0.020372096034161014,0.44594616770281553,-1.5708442689191113
1.6663875399375314,4.404399242670273,-0.020455711366038482,0.4299596212360258,-1.5973250777415473
1.662493247233779,4.324218892521639,-0.02053684341030098,0.4140440645390645,-1.621555903112084
1.6585839486773968,4.247055613034675,-0.020613667709511854,0.39820098269212734,-1.6433487291749358
1.6546606435678313,4.172895460944588,-0.020684280812231406,0.3824321972035161,-1.6625043727227784
1.6507247015764164,4.101724111282206,-0.020746687518448846,0.36673990450575356,-1.6788114217985373
1.6467778815632832,4.033526781970135,-0.020798786304006868,0.3511267198318372,-1.6920450909198501
1.6428223533617938,3.9682881495079627,-0.020838352659039733,0.33559572713839714,-1.701965993094277
1.6388607229565906,3.9059922545317782,-0.020863020027308717,0.320150535768794,-1.7083188330267276
1.6348960615466903,3.8466223959026813,-0.020870257971640167,0.30479534453749896,-1.7108310324816753
1.6309319390640171,3.7901610118568776,-0.020857347109131626,0.2895350138393705,-1.7092113087436647
1.6269724628150615,3.736589546653164,-0.020821350248296577,0.2743751461997376,-1.7031482421167796
1.6230223220362314,3.6858883011092267,-0.020759079002545623,0.2593221753153736,-1.692308890752162
1.619086839313239,3.63803626547044,-0.02066705492369105,0.24438346298763733,-1.6763375442074797
1.6151720300295849,3.5930109332721756,-0.020541463851614213,0.22956740225724712,-1.6548547560100455
1.6112846713079678,3.5507880953467534,-0.020378101639091383,0.21488352327350677,-1.62745686736716
1.6074323823387853,3.5113416140529488,-0.020172308562830657,0.20034259560863765,-1.5937163395001956
1.603623718630126,3.4746431794185106,-0.019918888370424877,0.18595671633281252,-1.553183365726261
1.5998682836935325,3.4406620515541064,-0.01961200569897959,0.1717393664504028,-1.5053894569061947
1.5961768632152333,3.409364797956542,-0.01924505196732896,0.15770540826079263,-1.4498540122234211
1.5925615892130218,3.380715040915959,-0.01881046384542479,0.14387098164007778,-1.38609533357402
1.5890361456417947,3.3546732401422084,-0.018299468483278753,0.13025323703096586,-1.313648145746941
1.5856160333718363,3.3311965500088654,-0.01770171330575781,0.11686981700423409,-1.2320904497643113
1.5823189230319705,3.31023881024311,-0.017004711324409984,0.1037379700037169,-1.141083381596762
1.5791651414686327,3.2917507527335808,-0.01619298934230307,0.0908731616755286,-1.0404283718140428
1.576178365614938,3.2756805303828784,-0.015246756486063374,0.07828707359502149,-0.9301455151536013
1.5733866429586132,3.2619746816230126,-0.014139797791038963,0.06598501861411048,-0.8105739484493684
1.5708239322502817,3.2505796014082264,-0.012836104401922782,0.053963194173124875,-0.6824861393273437
1.5685324889106986,3.2414434274332606,-0.011284351804215963,0.04220705819492777,-0.5471894611280634
1.566566695723251,3.2345178501199356,-0.009408208063655976,0.030693755629535538,-0.4065595774125102
1.5649997284137136,3.2297584864946245,-0.007086184668315736,0.019404808847407754,-0.2629223244954657
1.5639376841864432,3.2271201581277147,-0.004093228250319001,0.00836706869900768,-0.11870233363200727
