x,y,v_x,v_y,omega
2.375,32.48,0.0,3.0256410256410255,-7.020408163265306
2.373594074511452,31.911623883053252,-0.014799215668927038,2.957265468535244,-6.59715265354225
2.3695722371659835,31.355983038920026,-0.027535914283370495,2.891585522340796,-6.211926111466452
2.3633001924441643,30.81258235194902,-0.038485609104203115,2.828421708932968,-5.860255458200036
2.355095130497294,30.28095914328062,-0.047883464020746815,2.7676120665238835,-5.538296712449547
2.3452327645616355,29.760680068228254,-0.055930914249343176,2.70900977613261,-5.242732852294671
2.333953226693206,29.251338425235225,-0.06280106331307017,2.6524812027413747,-4.970690508784594
2.3214660300941556,28.752551805863693,-0.06864311141377549,2.597904264327361,-4.719671587323128
2.3079542635126993,28.26396002980676,-0.07358601049629221,2.545167062587719,-4.487496815366472
2.293578150287607,27.785223320040913,-0.07774149713625744,2.494166724421201,-4.272258886848892
2.2784780790314008,27.316020681833283,-0.0812066213501241,2.444808414606492,-4.072283379520346
2.262777192882104,26.85604845602064,-0.08406586443194838,2.397004488684477,-3.8860960059858787
2.2465836083793937,26.405019022247448,-0.08639291980710727,2.3506737615596487,-3.7123950544490993
2.2299923223652147,25.962659632028792,-0.08825219613162075,2.30574087232093,-3.5500281037151327
2.213086855148169,25.52871135484331,-0.08970009036359822,2.262135729631508,-3.397972275361579
2.195940669961382,25.102928123150214,-0.09078606949731322,2.2197930250326894,-3.255317426187784
2.1786184020717774,24.685075864405864,-0.09155359249852414,2.178651803855193,-3.1212517950128698
2.161176925447802,24.274931709937466,-0.092040898280165,2.1386550852858393,-2.995049706263701
2.1436662804174325,23.872283271997134,-0.092281680986885,2.099749524612415,-2.8760610035860688
2.126130482057496,23.476927981533173,-0.09230567017034028,2.0618851118503305,-2.763701943731858
2.108608225998773,23.088672480226283,-0.09213913044779812,2.0250149019063826,-2.657447327135245
2.0911335057901637,22.707332061185525,-0.09180529280071653,1.9890947722068522,-2.5568236791383256
2.0737361538448753,22.332730153412896,-0.09132472767600415,1.9540832043471343,-2.4614033265048696
2.056442316216367,21.96469784575038,-0.090715668413559,1.919941086837274,-2.37079923903234
2.0392748699608374,21.603073446538577,-0.08999429217096462,1.8866315364448325,-2.284660526807593
2.022253790587001,21.247702075657166,-0.08917496439573211,1.8541197359910702,-2.2026685007968076
2.0053964760328133,20.898435285996538,-0.08827045196413809,1.8223727867523913,-2.124533218687383
1.9887180327099587,20.555130711737664,-0.08729210932906838,1.791359573867317,-2.049990449745373
1.9722315283935805,20.2176517411012,-0.08625004136965017,1.7610506433586017,-1.9787990023469966
1.9559482160848674,19.885867211474174,-0.08515324609048813,1.7314180895574693,-1.9107383661335489
1.9398777324195815,19.55965112503877,-0.08400973985988806,1.702435451867846,-1.8456066277062606
1.924028273721361,19.238882383217266,-0.0828266674898015,1.6740776199374439,-1.783218624649083
1.9084067523921666,18.923444538413953,-0.08161039913329798,1.646320746413216,-1.7234043076288046
1.8930189359831666,18.613225561682064,-0.08036661569828144,1.6191421665540402,-1.6660072845252791
1.8778695709889561,18.308117625074118,-0.07910038424077584,1.5925203240559351,-1.6108835241146309
1.8629624931490159,18.008016897549723,-0.07781622460069852,1.5664347025166463,-1.557900199867832
1.8483007258166047,17.71282335341791,-0.07651816837205327,1.5408657620287376,-1.5069346570209354
1.8338865677616965,17.42244059238293,-0.0752098111532958,1.51579488044473,-1.4578734882918096
1.819721671606785,17.136775670344655,-0.07389435889840287,1.4912042989055139,-1.410611705519918
1.8058183578557974,16.855743176771668,-0.07245631216462639,1.467032475547007,-1.361489059279335
1.7921868648780186,16.57926060274084,-0.07103308760146454,1.4433104089880457,-1.3145282500542705
1.7788242489457837,16.307243978978246,-0.06962602747469143,1.4200224727234454,-1.2696091338858384
1.765727331403908,16.039612239258847,-0.06823626243979135,1.3971537348491656,-1.2266195095855228
1.7528927365894722,15.776287092150696,-0.0668647356068997,1.3746899189208313,-1.185454509681146
1.7403169254319815,15.517192899944902,-0.06551222394563438,1.3526173674559538,-1.146016044333147
1.7279962252104872,15.262256564288911,-0.06417935733325149,1.3309230078702596,-1.10821229307763
1.7159268558900775,15.011407418078758,-0.06286663551316875,1.3095943206576592,-1.0719572398034187
1.7041049534124095,14.764577123200429,-0.06157444319912463,1.2886193096405425,-1.0371702468567285
1.6925265902729087,14.52169957374199,-0.060303063532462495,1.267986474132475,-1.0037756645971783
1.681187793680132,14.282710804326829,-0.059052690075713635,1.2476847828692135,-0.9717024731097896
1.6700845615600266,14.047548903244493,-0.05782343750434514,1.2277036495764266,-0.9408839531154345
1.6592128766388285,13.816153930079626,-0.05661535113984362,1.2080329100537452,-0.9112573834221902
1.6485687188127094,13.588467837561353,-0.05542841545088611,1.1886628006649245,-0.8827637625268372
1.6381480759895584,13.364434397375543,-0.05426256163491237,1.1695839381330846,-0.8553475522132549
1.6279469535681699,13.14399912970081,-0.05311767437970481,1.1507873005483122,-0.8289564412062354
1.6179613827022261,12.927109236245986,-0.051993597893386145,1.1322642095024513,-0.8035411271282481
1.6081874274806243,12.71371353658234,-0.05089014128136965,1.114006313272757,-0.7790551151756135
1.5986211911415866,12.503762407578108,-0.04980708334007937,1.096005570982319,-0.7554545320816846
1.5892588214254717,12.29720772575606,-0.04874417682955392,1.0782542376708224,-0.7326979540700239
1.5800965151600417,12.094002812406966,-0.04770115228023434,1.0607448502143786,-0.71074624762198
1.571130522162015,11.894102381303004,-0.0466777213832048,1.0434702140378749,-0.6895624219920673
1.5623571485298684,11.697462488865487,-0.045673580007810924,1.0264233905675855,-0.6691114925025214
1.5537727593949715,11.504040486650872,-0.04468841088584169,1.0095976853757265,-0.6493603537365421
1.5453737811910773,11.313794976027815,-0.043721885997254906,0.9929866369722301,-0.6302776618291137
1.537165116014497,11.126894443242747,-0.042685115861486475,0.9743873923442842,-0.6556973757686166
1.5291485724444112,10.943517209402806,-0.04169955329730945,0.9558992796550919,-0.6827084930928063
1.5213145630852938,10.763642436962687,-0.04076370311445338,0.9375193776093061,-0.7111965339208187
1.5136537871040592,10.587249832141396,-0.03987604405643732,0.919244883667437,-0.7410493139856853
1.5061572347968242,10.414319622723614,-0.0390350328618243,0.901073110203963,-0.7721566896197405
1.498816191423459,10.244832536551208,-0.038239107910441786,0.8830014810845381,-0.8044103072882492
1.4916222403861275,10.078769780625958,-0.03748669248252332,0.8650275286549314,-0.8377033565907608
1.4845672658229874,9.916113020745694,-0.03677619765579345,0.8471488911373297,-0.8719303256508637
1.4776434546837298,9.756844361596542,-0.03610602486270718,0.8293633104327083,-0.9069867578079833
1.470843298349675,9.600946327223973,-0.03547456812734203,0.8116686303311685,-0.9427690085093965
1.4641595938576915,9.448401841804639,-0.03488021599880229,0.7940627951355091,-0.9791740012764517
1.4575854447842413,9.299194210639612,-0.034321353195406835,0.7765438487068693,-1.0160989815856827
1.4511142618433976,9.153307101287673,-0.03379636197136997,0.7591099339451268,-1.0534412674626221
1.4447397632506807,9.010724524754401,-0.033303623215123056,0.7417592927208954,-1.0910979955331057
1.4384559749030896,8.871430816649266,-0.03284151728583796,0.7244902662805248,-1.1289658612130617
1.432257230424688,8.735410618218317,-0.03240842459207263,0.7073012961505235,-1.1669408516424966
1.4261381711266363,8.602648857154545,-0.032002725913735514,0.6901909255733943,-1.2049179698818246
1.4200937459305873,8.47313072808133,-0.03162280246572663,0.6731578015130881,-1.2427909487880164
1.4141192113049739,8.346841672596437,-0.031267035698624726,0.6562006772752488,-1.2804519528733889
1.4082101312648865,8.223767358754738,-0.030933806828613433,0.639318415795276,-1.3177912663203861
1.4023623774880518,8.103893659856858,-0.030621496085433977,0.622509993656102,-1.3546969651806224
1.396572129601906,7.987206632398301,-0.030328481663470717,0.6057745059076373,-1.3910545716251577
1.3908358756999548,7.873692493018805,-0.030053138357067306,0.5891111717712613,-1.4267466879351236
1.3851504131496395,7.763337594274592,-0.029793835856777928,0.5725193413257286,-1.4616526077275398
1.3795128497587963,7.656128399036511,-0.029548936678413934,0.5559985032856465,-1.495647901701323
1.3739206053736661,7.552051453294325,-0.029316793691377224,0.539548294000517,-1.5286039749650464
1.36837141398834,7.451093357121234,-0.02909574720679188,0.5231685078214772,-1.5603875927745345
1.3628633264536656,7.353240733522757,-0.028884121579255677,0.5068591090046035,-1.5908603712708056
1.3573947138831273,7.258480194859619,-0.028680221268515802,0.49062024534423326,-1.6198782295765695
1.351964271864224,7.166798306494957,-0.02848232629888855,0.4744522637574506,-1.6472907993966723
1.3465710255965906,7.078181547271171,-0.028288687044619787,0.4583557280718621,-1.672940788095805
1.3412143360928028,6.9926162663705504,-0.028097518258408335,0.4423314393031041,-1.6966632911266684
1.3358939075947212,6.910088636055885,-0.027906992247714413,0.4263804587460165,-1.7182850496990199
1.3306097963777437,6.8305845997218775,-0.02771523108888947,0.4105041342435534,-1.7376236497802389
1.3253624211378494,6.754089814615018,-0.02752029775210258,0.39470413003916627,-1.7544866589956465
1.3201525751823668,6.680589588498641,-0.027320185989819036,0.37898246065954816,-1.768670698887247
1.3149814406756972,6.610068809451363,-0.027112808817228592,0.3633415293118086,-1.7799604514868794
1.3098506052266674,6.542511867892607,-0.02689598538308597,0.3477841713066902,-1.7881276015418668
1.3047620811460572,6.477902569830778,-0.026667425991758063,0.33231370302836183,-1.7929297193961533
1.2997183277529247,6.416224040233065,-0.026424714988583654,0.31693397694757414,-1.7941090950481433
1.2947222771692029,6.357458615328838,-0.02616529115585742,0.30164944309691444,-1.7913915420963697
1.2897773641174965,6.301587722594789,-0.025886425177892466,0.2864652172614915,-1.7844852023206892
1.2848875603328254,6.2485917471505665,-0.025585193608118905,0.2713871558355743,-1.773079399217228
1.2800574143240984,6.198449883352065,-0.025258448589006607,0.25642193678022485,-1.7568436143316717
1.2752920973892024,6.151139970556677,-0.024902782304635156,0.24157714527647775,-1.7354266971866523
1.2705974570205139,6.106638312428391,-0.02451448473418996,0.22686136133707863,-1.7084564729212064
1.2659800791700866,6.064919479866759,-0.024089492638729428,0.2122842445748324,-1.675539988446817
1.2614473613312687,6.0259560988550405,-0.023623326717249135,0.19785660818012152,-1.6362647477167789
1.2570075991255298,5.9897186264800375,-0.023111012290528227,0.18359046945149415,-1.5902014428270586
1.2526700902042556,5.956175121437404,-0.022546976354463334,0.16949905731307188,-1.5369089072594662
1.248445261018536,5.925291019992287,-0.021924909811005467,0.15559674737238194,-1.475942320963207
1.2443448247514135,5.897028935251367,-0.021237577211336706,0.14189888147941454,-1.406866103641837
1.240381983048269,5.87134850744668,-0.02047654597965929,0.12842141120149997,-1.329273449312452
1.2365716910740787,5.84820634634729,-0.019631790590764316,0.11518028458154575,-1.242815046462508
1.2329310163535745,5.827556123825385,-0.018691101204018,0.10219047880693045,-1.1472400510761251
1.2294796390782183,5.809348892903451,-0.01763918590499449,0.0894645835292026,-1.0424524542523637
1.2262405685351554,5.793533722402149,-0.016456293495668368,0.07701089543187917,-0.9285847714227549
1.2232411925233424,5.780058726909566,-0.015116085576046984,0.0648311623847928,-0.8060868946312268
1.2205148446410476,5.768872506233009,-0.013582313184949972,0.05291852894739044,-0.6758186337647079
1.2181031961477542,5.759925826978922,-0.011803460428665747,0.041257042148283796,-0.5391179354086204
1.216060051917234,5.753172984470051,-0.00970332094523152,0.02982551057664852,-0.3977952084894698
1.2144579546922643,5.748571464668611,-0.007160860370239987,0.0186115399648314,-0.2539896002574885
1.2134024904631728,5.746076211368582,-0.003949289409670118,0.007654284246012602,-0.1098363443090192
