x,y,v_x,v_y,omega
2.375,32.48,0.0,2.8205128205128203,-3.836734693877551
2.373920802461037,31.839279376677567,-0.009384326425761523,2.750970860551794,-3.578585835397906
2.370851083748612,31.214209815297476,-0.01730887976924094,2.684416629709859,-3.3464404594243797
2.366101575739569,30.604127737242216,-0.023991189874614526,2.6206449185967604,-3.1369079553060653
2.3599370168519536,30.008414524033,-0.029613670017690455,2.559469978874662,-2.9471199079899764
2.3525835121669694,29.42649232314594,-0.03432984898217363,2.500723072317169,-2.7746386441586655
2.3442345998813803,28.857820371929474,-0.038269388283816784,2.4442504165216814,-2.6173836406140323
2.3350562736697977,28.30189175749432,-0.04154214399081388,2.3899114481318153,-2.473571949181146
2.3251911578294004,27.758230546514532,-0.04424147201264205,2.3375773429967825,-2.34166969811671
2.31476199153029,27.226389231239633,-0.046446930588315935,2.287129746350166,-2.220352403719099
2.303874547045192,26.705946447640116,-0.04822649971688696,2.2384596762543434,-2.1084723318644274
2.2926200822616436,26.1965049291817,-0.049638411444401793,2.191466571210144,-2.005031532650894
2.2810774084556877,25.697689665746772,-0.050732665129126775,2.1460574586587744,-1.909159464276187
2.2693146390154793,25.209146242058416,-0.05155228652486301,2.102146225587788,-1.8200943477426386
2.257390672636385,24.730539333882767,-0.0521343776411753,2.0596529759396063,-1.7371675687244907
2.2453564547775957,24.261551343490005,-0.05251099504394516,2.0185034622583045,-1.6597905792259005
2.2332560533489008,23.801881158494705,-0.05270988694470677,1.9786285811791051,-1.5874438586029467
2.221127578281698,23.35124302038779,-0.05275511363966394,1.9399639240983884,-1.5196675779089692
2.209003969518565,22.909365490904207,-0.05266757125714498,1.9024493757589,-1.4560536784595384
2.1969136737880106,22.47599050591071,-0.05246543509550333,1.8660287546193342,-1.3962391288732783
2.1848812271254774,22.050872507801838,-0.05216453588304583,1.8306494898056296,-1.3399001675815307
2.1729277573088046,21.633777648500512,-0.051778679914110004,1.79626233020589,-1.2867473721810638
2.1610714180780923,21.224483056107793,-0.05131992209208206,1.7628210819047325,-1.2365214247806757
2.1493277651124405,20.822776159060368,-0.05079879934836851,1.7302823706815744,-1.1889894650241417
2.137710082164513,20.428454062356792,-0.050224530633611215,1.698605426740837,-1.143941940819612
2.1262296644484233,20.041322971021756,-0.04960518863673293,1.6677518892159864,-1.1011898818015198
2.1148960652888302,19.661197656506708,-0.0489478475336426,1.637685628306178,-1.0605625328511428
2.1037173111305045,19.287900962186487,-0.04825871036484287,1.6083725831740026,-1.0219052951252596
2.0927000892465024,18.921263344515683,-0.04754321906126141,1.5797806139634185,-0.9850779304014556
2.081849911843837,18.56112244676298,-0.04680614965757046,1.5518793664948918,-0.9499529914728821
2.0711712597273335,18.207322702554055,-0.046051694833761335,1.5246401483652972,-0.9164144470784664
2.060667708228135,17.85971496672937,-0.04528353559405586,1.4980358153275906,-0.8843564746488823
2.050361283209568,17.51815827845934,-0.044337551523918044,1.4720223435422588,-0.8490898060551816
2.040271522191415,17.182517282908528,-0.04339950080784172,1.446595009073493,-0.8156340413280349
2.030396411212651,16.852659836397095,-0.04247102944228105,1.4217306127650597,-0.7838727230998092
2.020733588512444,16.528458994432754,-0.041553515776909855,1.3974071434465825,-0.7536983008999979
2.0112804021379804,16.20979274722907,-0.04064810487060309,1.373603701802849,-0.7250113430843181
2.002033960151031,15.896543772065172,-0.03975573849417194,1.3503004300571204,-0.6977198276901849
1.9929911743687208,15.588599201209096,-0.038877181352006344,1.3274784469522318,-0.6717385034134739
1.9841487984514465,15.28585040423955,-0.03801304401559486,1.3051197875655445,-0.6469883129820545
1.975503461045309,14.988192783702399,-0.037163802994295156,1.2832073475401113,-0.6233958721377133
1.9670516945952086,14.695525583129399,-0.03632981831092605,1.261724831355533,-0.6008929982506571
1.958789960365924,14.40775170652918,-0.035511348900243954,1.240656704298544,-0.5794162832974051
1.950714670140218,14.124777548534862,-0.03470856610589479,1.2199881478259447,-0.558906706548479
1.942822205003822,13.8465128344601,-0.033921565514941035,1.1997050180415643,-0.5393092828495414
1.9351089315757726,13.572870469576305,-0.03315037733766345,1.1797938070349214,-0.5205727428493067
1.9275712159979141,13.303766396979249,-0.03239497551327822,1.1602416068525174,-0.5026492419388195
1.9202054359585183,13.03911946346345,-0.0316552856988603,1.1410360758935447,-0.48549409502743307
1.913007990991112,12.77885129286853,-0.030931192278585887,1.1221654075405258,-0.46906553459771466
1.9059753112600855,12.522886166403364,-0.03022254451294772,1.1036183008522338,-0.45332448976033385
1.8991038650188625,12.271150909491794,-0.029529161932470183,1.0853839331614028,-0.43823438427568
1.8923901649038857,12.023574784718392,-0.02885083906732876,1.067451934433414,-0.4237609517257766
1.8858307732079616,11.780089390484285,-0.02818734959288123,1.0498123632544702,-0.4098720662116736
1.8794223062592414,11.540628565012195,-0.027538449961207224,1.032455684328936,-0.39653758712107356
1.873161438016988,11.305128295366174,-0.026903882580124758,1.0153727473756062,-0.38372921666122656
1.867044902982006,11.07352663117597,-0.026283378593632712,0.9985547673218144,-0.37142036898548336
1.8610745804759823,10.845861392994674,-0.025632469284835525,0.9811429559937993,-0.37673595855995945
1.855250665105249,10.62218582395781,-0.025010273069367442,0.9638619921528496,-0.38451920883232243
1.8495665037366749,10.402470284160518,-0.024417217092145307,0.9467079191279613,-0.39463684816257255
1.8440153624712863,10.186686024826315,-0.023853576519930222,0.9296769446477128,-0.40696004747852405
1.8385904600734202,9.974805151410994,-0.023319487809340383,0.9127654328768054,-0.42136410529539736
1.8332849984709192,9.766800588470414,-0.022814960908058873,0.8959698970412896,-0.4377281461661187
1.8280921905623948,9.562646046160623,-0.022339890470415034,0.8792869926090646,-0.4559348312587632
1.823005285549689,9.362315988246063,-0.021894066161810336,0.8627135109958004,-0.47587007981995005
1.8180175919972497,9.165785601498019,-0.02147718212027009,0.8462463737697952,-0.49742280033645
1.8131224988050856,8.973030766371256,-0.021088845637677208,0.8298826273324998,-0.5204846302521915
1.8083134942681904,8.784028028851747,-0.02072858511793472,0.8136194380545322,-0.5449496831345507
1.8035841833827257,8.598754573372727,-0.020395857364365222,0.7974540878500062,-0.5707143022124945
1.7989283035477586,8.417188196699858,-0.020090054244046453,0.7813839701749486,-0.5976768192299414
1.79433973880086,8.23930728268931,-0.01981050877246425,0.7654065864384985,-0.625737317570647
1.7898125327163794,8.065090777824754,-0.019556500657801238,0.7495195428185125,-0.6547973986159633
1.7853409000865934,7.894518167440864,-0.01932726134033692,0.7337205474761842,-0.6847599502938321
1.7809192374981948,7.727569452541861,-0.019121978558779954,0.7180074081673385,-0.7155289167661157
1.776542132909672,7.5642251271237235,-0.018939800471853736,0.7023780302512557,-0.747009068181548
1.7722043743289997,7.404466155908189,-0.018779839360080767,0.6868304151012286,-0.7791057693927621
1.767900957685706,7.248273952395213,-0.018641174929428156,0.6713626589246382,-0.8117247464975399
1.7636270939867678,7.095630357138397,-0.018522857235254243,0.6559729520041794,-0.8447718500159803
1.759378215841906,6.946517616144668,-0.018423909241802323,0.6406595783760588,-0.8781528134560068
1.7551499834407307,6.800918359295377,-0.018343329029288286,0.6254209159655887,-0.9117730059486702
1.7509382900617627,6.658815578680681,-0.018280091657389107,0.610255437205687,-0.9455371775511197
1.7467392671917417,6.520192606732536,-0.018233150690621418,0.5951617101694727,-0.9793491957178575
1.742549289332739,6.385033094033776,-0.018201439387663214,0.5801384002545109,-1.0131117713288016
1.738364978574554,6.253320986671213,-0.01818387155307391,0.5651842724634448,-1.0467261725345378
1.7341832090106535,6.1250405029895205,-0.01817934204606039,0.5502981943338939,-1.0800919245336478
1.730001111077617,6.00017610958945,-0.018186726936867053,0.5354791395797577,-1.1131064932328743
1.7258160759007248,5.878712496398364,-0.018204883296977593,0.5207261925166383,-1.1456649505569172
1.7216257597320501,5.760634550622989,-0.01823264860454025,0.5060385533561927,-1.1776596189698179
1.7174280885722908,5.645927329373194,-0.01826883974119304,0.49141554446809377,-1.2089796925435363
1.7132212630737245,5.53457603072108,-0.018312251550688278,0.47685661772420135,-1.2395108316614216
1.7090037638292155,5.4265659629311465,-0.018361654923301794,0.4623613630578268,-1.2691347281757936
1.7047743571613077,5.3218825115644215,-0.01841579436285384,0.44792951839196316,-1.2977286375522985
1.7005321015362882,5.2205111041211865,-0.01847338498514025,0.4335609811144225,-1.3251648742339341
1.6962763547409314,5.122437171842911,-0.018533108887528144,0.4192558213053553,-1.351310266152979
1.6920067819746534,5.027646108243083,-0.01859361081923718,0.40501429695400815,-1.3760255640229393
1.6877233650273684,4.936123223878102,-0.018653493070196932,0.3908368714371411,-1.3991648007759776
1.6834264127337408,4.847853696802108,-0.0187113094830874,0.3767242335715113,-1.4205745963059313
1.6791165729182258,4.762822518072699,-0.018765558477910723,0.3626773205972516,-1.440093402580603
1.6747948460727753,4.681014431586803,-0.018814674960789358,0.34869734449749085,-1.457550684270154
1.6704626010409553,4.6024138674268045,-0.01885702096807973,0.3347858221112036,-1.4727660304051071
1.6661215930192823,4.527004867785877,-0.018890874872556175,0.32094460954904847,-1.4855481933800445
1.6617739842297745,4.454771004418429,-0.018914418949250788,0.30717594147222543,-1.4956940530803906
1.657422367668377,4.385695286427989,-0.01892572506290178,0.2934824758359493,-1.5029875063551308
1.6530697943937869,4.319760057063856,-0.0189227381944029,0.2798673447217394,-1.5071982859632391
1.6487198048928,4.256946878055825,-0.018903257466352144,0.26633421186985473,-1.5080807191806145
1.6443764651452157,4.197236399884197,-0.018864914251772464,0.25288733744865166,-1.5053724454835706
1.6400444081190027,4.1406082162792615,-0.01880514684573175,0.23953165042035124,-1.4987931266123393
1.6357288815631326,4.08704070120125,-0.01872117103139941,0.22627282851888358,-1.4880432030439625
1.6314358031442362,4.036510826618187,-0.018609945654656974,0.21311738524686613,-1.472802781662585
1.62717182421477,3.9889939596531505,-0.01846813199287661,0.2000727622752057,-1.452730784878059
1.622944403838229,3.9444636382357423,-0.018292045194434715,0.1871474239631337,-1.4274645584130479
1.6187618951859601,3.9028913254519644,-0.018077595260078707,0.1743509480697047,-1.3966202332731659
1.6146336471507792,3.8642461446244454,-0.017820213741495405,0.16169410260437092,-1.3597942809833266
1.610570125145056,3.8284946001916467,-0.01751476022131458,0.14918889246343278,-1.3165669092752217
1.606583056815258,3.7956002942984775,-0.01715539916823425,0.13684855008587185,-1.266508243264418
1.602685611228079,3.765523656505305,-0.01673543202462558,0.12468743072431387,-1.2091886543991388
1.598892624658259,3.7382217152518464,-0.016247059886852742,0.11272075408836613,-1.144195162287537
1.595220893579019,3.713647955859205,-0.015681036454363816,0.10096411019548138,-1.0711565419556912
1.5916895676882572,3.6917523316675975,-0.015026145204435019,0.08943262190544927,-0.9897805333107452
1.588320695790211,3.672481521260085,-0.014268393039445751,0.078139642507699,-0.8999070620331601
1.585140009833943,3.6557795492491714,-0.013389745710710315,0.06709489671762767,-0.8015808487630909
1.582178085045156,3.641588892385311,-0.012366122017872842,0.056302119489858776,-0.6951435097285051
1.5794721008969193,3.6298521345933175,-0.011164174923316077,0.04575664391879285,-0.5813362852231203
1.5770685830283933,3.62051403215289,-0.009735980455169537,0.03544424686753399,-0.4613864173843121
1.5750278474071528,3.613523362556098,-0.00800954668605101,0.025344184408924237,-0.33702317592983644
1.5734318977420179,3.6088328638682334,-0.0058682764890367976,0.015442760702934717,-0.2103460152041297
1.5724020646700572,3.606392495236271,-0.0030867937019257705,0.005777836096746805,-0.0834752227607983
