x,y,v_x,v_y,omega
2.375,32.48,0.0,2.6666666666666665,-4.6938775510204085
2.373768983338301,31.873948222857866,-0.010704492710424965,2.603348786743157,-4.393400047055947
2.370258252464688,31.282160028934598,-0.01982360184273219,2.5426355082417866,-4.121608344492333
2.364806619798289,30.70405651997268,-0.02758189960421572,2.4843515262096507,-3.8749389064732633
2.357705224774708,30.139097195898437,-0.03416936147040154,2.4283382483490077,-3.6503536669937136
2.3492048127585035,29.586776360224697,-0.03974726475746311,2.3744516270748295,-3.4452514063603172
2.339521785508896,29.04661998215666,-0.044452972195645,2.322560356125499,-3.2573959151524425
2.328843252782559,28.51818294016971,-0.04840383412033125,2.2725443568044845,-3.084857412187057
2.317331267158977,28.00104658701152,-0.05170038869342323,2.2242934967450063,-2.9259645029958135
2.305126387545022,27.49481658770829,-0.054428999254014974,2.1777064971961195,-2.779264577227861
2.2923506883109446,26.999120991154584,-0.05666403756404765,2.132689994575238,-2.6434910042109965
2.2791103086462625,26.5136085029026,-0.05846969865057823,2.08915772935506,-2.517535836242772
2.265497619048508,26.03794693232217,-0.05990151524294007,2.047029840909518,-2.400426997845574
2.2515930677943197,25.571821791729562,-0.061007626097827033,2.006232251200153,-2.2913091468902964
2.237466758984603,25.114935028641867,-0.061829841812752785,1.9666961234754288,-2.1894275551964006
2.22317980469351,24.667003875199093,-0.06240454332718836,1.9283573847226199,-2.0941144829798106
2.208785486419144,24.22775980115337,-0.06276344166729986,1.8911563026315181,-2.0047776215175817
2.1943302550737447,23.796947558766163,-0.06293422220573607,1.8550371094311189,-1.9208902577418392
2.179854593884713,23.37432430956385,-0.06294109248149429,1.819947666241169,-1.841982877774064
2.1653937645881602,22.95965882424572,-0.0628052492276601,1.785839162612123,-1.7676359771666335
2.1509784540131767,22.55273074816745,-0.06254527751132648,1.7526658467641465,-1.6974738865120351
2.1366353354429237,22.153329925776802,-0.06217749266478854,1.7203847827197307,-1.6311594541764776
2.122387556890859,21.76125577818904,-0.06171623387490554,1.6889556310869405,-1.568389454814768
2.108255166561404,21.37631672878172,-0.06117411681600513,1.6583404507158084,-1.5088906142757816
2.0942554842055063,20.99832967228304,-0.060562251496150854,1.6285035188379064,-1.4524161594914997
2.080403425777577,20.627119483339975,-0.05989043048584139,1.5994111676235594,-1.3987428167289355
2.0667117877064687,20.262518560996376,-0.05916729187162319,1.5710316353642404,-1.3476681937842303
2.053191496173123,19.90436640589684,-0.05840046059225322,1.5433349307186857,-1.2990084917978877
2.039851826011728,19.552509227368567,-0.057596671245964466,1.5162927086576066,-1.25259650075789
2.0267005931953785,19.20679957782835,-0.05676187498315976,1.4898781569095116,-1.2082798397449304
2.0137685952003577,18.867099632700132,-0.05569028149528312,1.4640344094228182,-1.160235927230339
2.0010831545621746,18.533277001857023,-0.05461789796717885,1.438771076169439,-1.1146519677141256
1.9886441124194314,18.205200832348286,-0.053547685882762305,1.4140651804282576,-1.0713701628467434
1.9764506763946506,17.882745420219656,-0.052482192593592214,1.3898949250380792,-1.0302447546774562
1.9645015100448455,17.565789947960987,-0.0514236017525386,1.3662396163416513,-0.9911409625311117
1.9527948114250482,17.25421823877162,-0.05037377755004759,1.343079594000672,-0.9539340261806304
1.9413283820985747,16.94791852635408,-0.04933430354972155,1.320396166151824,-0.9185083434696404
1.9300996877570236,16.64678323906231,-0.04830651681159237,1.298171549428794,-0.8847566919930134
1.919105911465334,16.35070879733427,-0.04729153789875241,1.276388813423712,-0.8525795257019678
1.9083440004193715,16.059595423432047,-0.046290297283530506,1.2550318292043179,-0.8218843383930242
1.8978107069926322,15.773346962596317,-0.04530355860115706,1.234085221541159,-0.7925850869902167
1.8875026247523796,15.491870714797805,-0.04433193914016957,1.2135343245328634,-0.7646016683576544
1.8774162200418112,15.215077276336558,-0.04337592790825319,1.1933651403475511,-0.7378594441018915
1.8675478596519735,14.94288039060169,-0.042435901568596016,1.173564300825207,-0.7122888084550688
1.857893835043607,14.675196807360173,-0.04151213850415732,1.15411903170972,-0.6878247948828228
1.8484503835236445,14.411946149993977,-0.04060483123464552,1.1350171193006717,-0.6644067175460495
1.8392137067326433,14.153050790150978,-0.03971409738275726,1.1162468793340867,-0.6419778441717998
1.8301799867570279,13.898435729316926,-0.038839989361724774,1.0977971279185403,-0.6204850972635997
1.8213454001429121,13.648028486853924,-0.037982502934932355,1.079657154368443,-0.5998787809119869
1.8127061300557124,13.401758994085679,-0.037141584779848406,1.0618166957902158,-0.580112330757742
1.8042583768012044,13.159559494041503,-0.03631713917239613,1.0442659132895806,-0.5611420849181095
1.7959983668985886,12.92136444650006,-0.03550903389382821,1.0269953696794836,-0.5429270739144924
1.78792236087406,12.687110438000406,-0.034717105449899525,1.009996008578377,-0.5254288278423653
1.7800266599239594,12.456736096512145,-0.033941163681408246,0.9932591347978138,-0.508611199203651
1.7723142160705767,12.230289077768312,-0.033123565478442314,0.975845376018126,-0.5112400738446468
1.764786085459459,12.007832062264576,-0.032338439835625704,0.9585634544491465,-0.516403652680797
1.7574347684185239,11.789335188953643,-0.03158605617250587,0.9414093569502754,-0.5239645620641471
1.750252720128422,11.574769500343116,-0.030866537654466952,0.9243792396629947,-0.5337900531660923
1.7432323827685918,11.364106904508937,-0.0301798741701434,0.907469419764663,-0.5457516722639563
1.7363662147993937,11.157320138934484,-0.029525934257664352,0.8906763678392629,-0.5597249453954315
1.7296467176128798,10.954382736037545,-0.02890447605984837,0.8739967008297889,-0.5755890759868475
1.723066459767085,10.755268990254933,-0.028315157381844022,0.8574271755407566,-0.593226654130958
1.7166180990025344,10.559953926561512,-0.027757544918598116,0.8409646826629049,-0.6125233762499372
1.7102944022247997,10.368413270306284,-0.027231122713877485,0.8246062412955822,-0.6333677739300194
1.7040882636233614,10.18062341825355,-0.026735299907323786,0.8083489939455945,-0.6556509507560813
1.6979927210845882,9.996561410721593,-0.02626941782114002,0.7921902019844741,-0.6792663260077364
1.69200097104531,9.816204904715214,-0.02583275643345148,0.7761272415492567,-0.7041093841033611
1.686106381923135,9.639532147951432,-0.025424540281114853,0.7601575998749381,-0.7300774286950047
1.6803025062502728,9.466521953680076,-0.025043943830731375,0.7442788720498867,-0.7570693403253467
1.6745830916291644,9.297153676202647,-0.024690096352819848,0.7284887581886247,-0.784985336557674
1.6689420906205839,9.131407186993698,-0.024362086330489977,0.7127850610196206,-0.8137267334810703
1.6633736696680703,8.969262851329198,-0.0240589654304949,0.6971656838890861,-0.843195707475377
1.6578722171565252,8.810701505325643,-0.02377975206120269,0.6816286291852984,-0.8732950560936364
1.6524323506975271,8.655704433292286,-0.02352343453877935,0.6661719971917222,-0.9039279568831922
1.6470489237294035,8.504253345296394,-0.023288973879689253,0.6507939853812398,-0.9349977229198515
1.6417170315162761,8.35633035483821,-0.023075306234461596,0.6354928881681855,-0.966407553771852
1.6364320166272441,8.211917956527806,-0.022881344974510207,0.6202670971396828,-0.9980602805410584
1.6311894739745072,8.070999003650538,-0.022705982440594758,0.6051151017930962,-1.029858103547015
1.6259852554876415,7.933556685500914,-0.02254809135823777,0.590035490812321,-1.0617023211242482
1.6208154745004113,7.799574504356439,-0.02240652592202452,0.5750269539222486,-1.0934930478935827
1.6156765099264538,7.669036251953038,-0.022280122547170395,0.5600882843682041,-1.1251289207431425
1.6105650103009848,7.541925985312005,-0.022167700282995757,0.5452183820755729,-1.1565067906131694
1.6054778977673607,7.4182280017545565,-0.022068060878952047,0.530416257554401,-1.1875213980198216
1.6004123720899843,7.2979268129239685,-0.02197998848953806,0.5156810366246404,-1.2180650300759794
1.5953659147787138,7.181007117616371,-0.021902248999769672,0.5010119660501309,-1.2480271565713248
1.5903362934147491,7.067453773199492,-0.02183358894774933,0.486408420183602,-1.2772940424597021
1.585321566274005,6.95725176537314,-0.021772734015243395,0.47186990874120227,-1.3057483338699862
1.5803200873513958,6.850386175995887,-0.021718387050925245,0.4573960858436132,-1.3332686145097017
1.5753305118983822,6.746842148668442,-0.021669225583974397,0.44298676048198915,-1.3597289290727468
1.570351802596765,6.646604851725037,-0.021623898777914832,0.42864190859110435,-1.38499827000102
1.5653832365042395,6.5496594382390185,-0.021581023765784413,0.41436168693950254,-1.4089400236960379
1.56042441292193,6.455991002597074,-0.021539181297777717,0.4001464490774072,-1.4314113720485024
1.5554752623512496,6.36558453313712,-0.021496910621183477,0.38599676361785307,-1.4522626449779337
1.5505360567273736,6.278424860277099,-0.021452703499475975,0.3719134351649575,-1.4713366195905835
1.5456074211397497,6.194496599484932,-0.02140499726246974,0.3578975282451813,-1.4884677616301811
1.5406903472769307,6.113784088352901,-0.02135216676204438,0.34395039464204835,-1.5034814051977663
1.5357862088642384,6.036271316942308,-0.02129251508745274,0.3300737045805029,-1.5161928673777691
1.530896779399162,5.961941850456686,-0.021224262869734577,0.31626948225099594,-1.5264064956072452
1.5260242525320233,5.890778743184754,-0.0211455359749473,0.3025401462006024,-1.5339146476241243
1.5211712654897906,5.822764442530477,-0.02105435134881633,0.2888885551409386,-1.5384966070057526
1.5163409260009595,5.757880681821753,-0.02094860072797738,0.2753180597175265,-1.5399174422078237
1.5115368432521312,5.696108360470024,-0.020826031870528536,0.26183256073230077,-1.5379268244296207
1.506763163496544,5.637427409955258,-0.02068422687370862,0.24843657417872175,-1.5322578307169321
1.5020246110479263,5.581816644057977,-0.020520577027314853,0.23513530318894382,-1.5226257751443024
1.497326535539718,5.5292535917902335,-0.020332253478843904,0.2219347165305495,-1.5087271351281386
1.4926749665257937,5.479714311650113,-0.020116172729194828,0.208841632513987,-1.4902386754454082
1.488076676769635,5.433173186231137,-0.019868955585227787,0.19586380591189084,-1.4668169244800904
1.4835392559551928,5.389602696999159,-0.019586877583834636,0.18301001349662943,-1.4380982329301986
1.4790711971207235,5.3489731804158716,-0.019265807933288498,0.17029013070588364,-1.4036997550840151
1.474681998975147,5.311252568853611,-0.018901132463030622,0.15771518722681988,-1.3632218512213186
1.4703822885830582,5.276406123364833,-0.0184876535551319,0.14529738224082475,-1.3162526358528805
1.4661839709925286,5.244396170978643,-0.01801945592773392,0.13305002981300146,-1.2623757138465972
1.4621004157105255,5.21518186763792,-0.017489720437511833,0.120987390541099,-1.2011825789434876
1.4581466952903246,5.188719020157574,-0.016890457129451232,0.10912432667929149,-1.1322917084934112
1.4543398999543729,5.164960017557611,-0.01621211100926177,0.09747569592906802,-1.0553770409681225
1.4506995661574174,5.143853943793022,-0.015442965486002838,0.08605538028475745,-0.9702091141626805
1.4472482794633275,5.125346967480191,-0.014568223158257206,0.07487484852248559,-0.8767122390757977
1.444012547997838,5.109383120139409,-0.01356857219382304,0.06394121531040173,-0.7750396992539385
1.4410241001887778,5.095905558973875,-0.012417930493658604,0.05325496873770599,-0.6656642020743005
1.4383218559620823,5.0848583140513455,-0.01107984539065021,0.04280803058863434,-0.5494698436635022
1.4359550003617845,5.076188255023993,-0.009501507655418158,0.032583787040521416,-0.42781253140007797
1.433988024410115,5.0698464298099815,-0.00760263105474906,0.022562519168275605,-0.30249177756445894
1.4325100630652012,5.065786633923079,-0.005249206727111512,0.012740053761325823,-0.1755639741178509
1.4316582216412979,5.063954471048145,-0.002158110002483853,0.003191797325042503,-0.04895513513878855
