x,y,v_x,v_y,omega
2.375,32.48,0.0,3.230769230769231,-7.142857142857143
2.373622692098627,31.905057750525316,-0.01530342112636471,3.157477985616118,-6.708399116189456
2.3696842125100903,31.343046043731945,-0.028457463190712688,3.0870965343102146,-6.3133932473469425
2.3635453873774384,30.793458541453994,-0.03975170494986105,3.019431268778142,-5.95315903677959
2.355518762378934,30.25582206486503,-0.0494330172557421,2.954307359988143,-5.623678754427606
2.3458756566021095,29.729693441346143,-0.057712602486756324,2.891566234666148,-5.321489306256795
2.3348520665908588,29.214656766114928,-0.06477173097158521,2.831063490125096,-5.043594093615259
2.322653630698738,28.71032100798874,-0.07076644560753435,2.7726671557214866,-4.7873907177326736
2.3094598207653587,28.216317903165724,-0.07583144254112603,2.7162562312008696,-4.550611339591698
2.2954274949332514,27.732300092014576,-0.08008328892673328,2.6617194482563296,-4.3312732190426235
2.280693919598409,27.25793946244722,-0.08362310368262735,2.608954213603197,-4.12763749454659
2.265379348215688,26.792925670142814,-0.08653880056982607,2.5578657008902126,-3.9381746738723806
2.2495892286344237,26.336964811157344,-0.0889069725553323,2.5083660656149855,-3.7615356200732557
2.233416097843404,25.889778226630945,-0.09079448067821783,2.46037376245612,-3.5965270602264043
2.2169412127300245,25.451101422646328,-0.09225979835933402,2.413812948484092,-3.4420908341886816
2.2002359571577452,25.02068309098492,-0.09335415244376989,2.368612958864864,-3.2972862498004907
2.1833630589217865,24.598284218714287,-0.09412249462243474,2.3247078441421656,-3.1612750290225415
2.166377644634961,24.183677276329128,-0.09460433078673731,2.282035960137381,-3.0333084234914276
2.1493281560755912,23.776645475641352,-0.09483443098403957,2.240539603060144,-2.912716153261252
2.1322571478039776,23.376982089835817,-0.09484343870055836,2.200164683668021,-2.7988968831118948
2.1152019827706283,22.984489829127053,-0.09465839500332063,2.160860435318235,-2.691309999852898
2.098195440078025,22.598980266307112,-0.09430319047004734,2.122579151569986,-2.5894684939287673
2.081266246922162,22.22027330719621,-0.09379895570621281,2.0852759496622877,-2.492932781195028
2.0644395449537107,21.848196701620004,-0.09316439949879765,2.0489085567399625,-2.4013053274367175
2.0477372997996395,21.482585591059618,-0.09241610221310709,2.0134371161532614,-2.314225960183207
2.0311786612244607,21.12328208956785,-0.09156877084443757,1.9788240115330331,-2.2313677705371844
2.0147802803454855,20.770134894930653,-0.09063546114417384,1.945033706658044,-2.152433522797594
1.9985565894153259,20.42299892738584,-0.08962777141315495,1.9120325993954033,-2.0771525021881176
1.9825200489203656,20.08173499350061,-0.08855601186418297,1.8797888882182585,-2.005277741462866
1.9666813660937128,19.746209473061484,-0.08742935287640202,1.8482724499942602,-1.9365835759186223
1.9510496883868593,19.416294027051038,-0.08625595497752572,1.8174547278996198,-1.8708634836968145
1.9356327749707063,19.091865324979423,-0.08504308297973064,1.7873086284516426,-1.8079281744508313
1.920437148931161,18.77280479000936,-0.08379720634855015,1.75780842677124,-1.7476038946828452
1.9054682324766272,18.45899836046392,-0.08252408759071353,1.7289296792892384,-1.689730922480519
1.8907304671756544,18.150336266439986,-0.08122886019787348,1.700649143198889,-1.6341622281403454
1.8762274209854222,17.846712820369035,-0.07991609747137293,1.6729447020339363,-1.580762280360005
1.861961883609458,17.548026220472295,-0.07858987337267496,1.6457952968186904,-1.5294059804070916
1.8479359515308271,17.254178366152047,-0.07725381638988954,1.6191808622952075,-1.4799777090004154
1.8341511039006386,16.965074684444904,-0.07591115727887461,1.5930822677841308,-1.4323704726348077
1.8206082703173576,16.68062396673904,-0.0745647714242459,1.5674812622809997,-1.3864851377924794
1.807307891407016,16.400738215025076,-0.07321721646843757,1.5423604234297483,-1.3422297429565986
1.7942499730052581,16.12533249701186,-0.0718707657733171,1.5177031100503993,-1.2995188796118868
1.7814341346470515,15.854324809493693,-0.07052743820675736,1.4934934179292516,-1.2582731345129443
1.7688669819929164,15.587639307333472,-0.06910759128363096,1.4696788282954365,-1.2159583501111342
1.7565535875681844,15.325202635993556,-0.06770790232450384,1.446284186592537,-1.1754291309983145
1.7444902659169705,15.066940470165466,-0.06632900491120701,1.423295433719565,-1.1365900816092855
1.732673229666537,14.812780961371622,-0.06497139787138469,1.4006991084342375,-1.0993518666464699
1.7210986123617689,14.562654633253981,-0.0636354610704832,1.3784823150951122,-1.063630764309218
1.7097624886131775,14.316494282481905,-0.062321469469421936,1.356632693483497,-1.0293482568850998
1.6986608918531405,14.074234884919058,-0.06102960564209983,1.3351383905481307,-0.996430655214508
1.6877898299621763,13.835813506716097,-0.059759970924168,1.3139880339292298,-0.9648087538991038
1.6771452989979894,13.601169220020697,-0.058512595344578096,1.2931707071307583,-0.9344175144434496
1.6667232952343232,13.37024302301905,-0.05728744647393442,1.2726759262208613,-0.9051957738025368
1.6565198256939204,13.142977764043636,-0.056084437308318386,1.25249361795042,-0.8770859760600808
1.6465309173397347,12.91931806950111,-0.05490343329374584,1.2326140991887589,-0.8500339251871526
1.6367526250706903,12.699210275391582,-0.05374425858452497,1.2130280575837638,-0.8239885570311857
1.627181038652436,12.482602362206542,-0.05260670161830168,1.193726533361142,-0.7989017288644608
1.6178122886994686,12.269443893007448,-0.051490520081333896,1.1747009021843413,-0.7747280249813161
1.6086425518125052,12.059685954500601,-0.05039544532937244,1.1559428590028307,-0.7514245769767138
1.5996680549638538,11.85328110093636,-0.049321186322311146,1.1374444028220712,-0.728950897467316
1.5908850792136509,11.650183300672346,-0.04826743312438657,1.1191978223336434,-0.7072687261315578
1.582289962831011,11.450347885250935,-0.04723386001605703,1.101195682348689,-0.6863418870488163
1.5738791038862843,11.253731500851163,-0.04622012825868334,1.0834308109821063,-0.6661361564109433
1.5656489623736205,11.060292061984274,-0.04522588854869314,1.065896287538867,-0.6466191397633165
1.5575960619167808,10.869988707310608,-0.044250783193969384,1.0485854310574094,-0.6277601580081484
1.5497169911055706,10.682781757463289,-0.043294448041702426,1.0314917894683595,-0.6095301414709807
1.5420084045052724,10.49863267477145,-0.04235651418383319,1.0146091293298516,-0.5919015313928607
1.534467023377017,10.317504024782448,-0.04143660946344632,0.9979314261034958,-0.5748481882663453
1.5270975654285457,10.139582684861384,-0.04044625663067946,0.9789723507971902,-0.6078563782746507
1.5199015579137671,9.965064454391918,-0.039509382422417395,0.9601190988635331,-0.6421813602425439
1.512869536062087,9.793930523944997,-0.038624193707362274,0.9413690172133625,-0.6777148780168086
1.5059923582733323,9.626162551985367,-0.037788892834356,0.9227195601158749,-0.7143503598321979
1.4992612067110884,9.461742645800538,-0.0370016800794663,0.9041682863822446,-0.7519826790626492
1.4926675874833946,9.30065334290201,-0.036260755783798185,0.885712856934743,-0.7905079170225044
1.486203330464789,9.142877592829425,-0.03556432220070802,0.8673510327606547,-0.8298231267743298
1.479860588810547,8.988398739288169,-0.03491058506864764,0.8490806732533054,-0.8698260968830632
1.473631838211256,8.83720050255026,-0.034297754923472736,0.8308997349456888,-0.9104151140309422
1.4675098759335916,8.689266962047046,-0.03372404816169086,0.8128062706455661,-0.9514887233735735
1.4614878196912993,8.544582539080338,-0.0331876878637769,0.7947984289845476,-0.9929454854741094
1.4555591063889701,8.403131979575942,-0.032686904384324526,0.7768744543976205,-1.034683728599215
1.4497174907801744,8.264900336800306,-0.03221993571340529,0.7590326875539123,-1.076601295096671
1.4439570440809737,8.12987295395667,-0.031785027611046686,0.7412715662642524,-1.1185952804993173
1.4382721525797026,7.998035446572214,-0.031380433514188275,0.7235896268963955,-1.1605617639127528
1.4326575162842738,7.869373684581415,-0.03100441421279989,0.7059855063346913,-1.2023955281438738
1.4271081476491103,7.743873774003806,-0.030655237289015,0.6884579445276294,-1.2439897679129963
1.4216193704251894,7.621522038105642,-0.03033117631010849,0.6710057876741831,-1.2852357843629734
1.4161868186786193,7.502304997925215,-0.030030509762891386,0.653627992108349,-1.3260226639334551
1.4108064360257386,7.3862093520298835,-0.029751519713560323,0.6363236289509007,-1.3662369395063396
1.4054744751359323,7.273221955359556,-0.029492490173176483,0.6190918896083089,-1.4057622315488771
1.4001874975573232,7.1633297969957965,-0.029251705144701802,0.6019320922112437,-1.4444788667834503
1.3949423739252458,7.056519976677848,-0.029027446322825196,0.58484368909928,-1.4822634716979557
1.3897362846190577,6.952779679866197,-0.028817990412596976,0.567826275474637,-1.5189885379790076
1.3845667209394874,6.852096151130514,-0.028621606027072966,0.5508795993662678,-1.5545219567041642
1.3794314868864617,6.754456665611549,-0.028436550117656115,0.5340035730666657,-1.588726517873239
1.3743287016263575,6.659848498275057,-0.028261063883502188,0.5171982862276862,-1.6214593715994359
1.3692568027480136,6.568258890639974,-0.028093368098096653,0.500464020828781,-1.6525714470294222
1.364214550418827,6.479675014621844,-0.027931657781755447,0.4838012682615778,-1.681906824834143
1.3592010325660346,6.394083933085501,-0.027774096138160856,0.46721074880889535,-1.7093020589339174
1.3542156712241216,6.311472556647633,-0.027618807660874378,0.450693433834094,-1.7345854430285932
1.3492582302074845,6.231827596209154,-0.02746387030176098,0.4342505710378845,-1.7575762175493135
1.3443288242883957,6.155135510629211,-0.027307306577002043,0.41788371318369666,-1.7780837129095817
1.339427930084408,6.081382448876255,-0.027147073467305417,0.40159475073805684,-1.7959064255205428
1.334556398887188,6.010554185907328,-0.026981050946249904,0.38538594891667016,-1.8108310241079228
1.3297154716971298,5.942636051434903,-0.02680702894328631,0.36925998966584694,-1.8226312856545304
1.3249067967659678,5.8776128506427625,-0.026622692514068857,0.3532200191357296,-1.831066963120879
1.3201324499943852,5.815468775812043,-0.026425604947959657,0.3372697012056121,-1.8358825914387331
1.3153949585852551,5.756187307720836,-0.026213188486819576,0.3214132775855601,-1.8368062448057416
1.3106973284185386,5.699751105595659,-0.025982702254474157,0.30565563491638714,-1.8335482680083985
1.3060430756952732,5.646141884335815,-0.025731216892918393,0.2900023790818657,-1.8258000187683838
1.3014362635020393,5.595340277726947,-0.025455585254124863,0.2744599165722208,-1.8132326789639834
1.296881544083899,5.54732568644598,-0.025152408280766682,0.25903554210520086,-1.7954962229299918
1.29238420779891,5.502076109894951,-0.024817994885777264,0.24373753068400805,-1.772218675056569
1.2879502399861007,5.459567961375022,-0.024448314145438185,0.2285752306485298,-1.7430058525420287
1.2835863873515592,5.4197758669579095,-0.024038937349468832,0.21355915176383228,-1.7074418808179732
1.2793002360289973,5.3826724498279965,-0.023584966234552685,0.19870103856851526,-1.6650909005402825
1.2751003043069808,5.3482281041420805,-0.02308094178785283,0.18401391349721735,-1.615500571867465
1.270996154305654,5.316410765992266,-0.02252072489355537,0.16951206594516702,-1.5582082440983707
1.2669985289081116,5.287185694414092,-0.02189733507913769,0.15521095159008977,-1.492751019491631
1.2631195234531047,5.260515283253806,-0.021202725532049962,0.14112695019084803,-1.4186814186240695
1.2593728067942362,5.236358935850639,-0.020427459566489534,0.12727690984436058,-1.3355909492239395
1.25577391446267,5.214673049408326,-0.01956023300646705,0.11367738395912133,-1.2431445258681397
1.2523406496042975,5.195411174086459,-0.018587154308783802,0.10034345295051066,-1.1411291643358106
1.2490936478052892,5.178524429857035,-0.017490643457975984,0.0872870384875371,-1.0295201311227562
1.2460571940374983,5.163962272243868,-0.01624773173970182,0.0745147127698519,-0.9085656016666226
1.2432604307353452,5.1516736738014615,-0.014827416061998451,0.06202526992353926,-0.778884806553921
1.2407391804133021,5.141608688075692,-0.013186476405147354,0.049807904807214864,-0.6415619012465249
1.2385387686363587,5.1337201131195656,-0.01126254333866831,0.03784292803864475,-0.4981971363367932
1.2367186396816168,5.127964447871321,-0.00896111171401903,0.026108908052952497,-0.3508539977869577
1.2353609507656205,5.124300174033188,-0.006124320685938927,0.01460524570407718,-0.20183335773361824
1.2345924226307143,5.122677053682171,-0.0024148808130181124,0.003429424862755449,-0.05324386463776973
