x,y,v_x,v_y,omega
2.375,32.48,0.0,2.9743589743589745,-4.816326530612245
2.3739322427364797,31.891974352662302,-0.010677572635204512,2.905897499017974,-4.5172908729233425
2.370882669622347,31.31736903020145,-0.019818158506121196,2.840155725590527,-4.245945567481951
2.3661375246282166,30.75565767134781,-0.027633291435180722,2.776957862945911,-3.998953773110807
2.3599439085476646,30.206347477076402,-0.03430286937034177,2.7161440797681315,-3.773455720088648
2.3525155834014218,29.66897621452118,-0.03998038209208598,2.657568545784116,-3.5669907782943224
2.34403782684277,29.143109581486893,-0.04479718349443175,2.601097784558741,-3.377433802515163
2.334671508353872,28.628338875334993,-0.048866001394546624,2.5466092769602686,-3.202942853264221
2.3245565247336857,28.124278920812497,-0.05228383480731872,2.4939902682646715,-3.0419160409480823
2.31381470563595,27.630566219765615,-0.05513435617003891,2.4431367422041483,-2.8929557315457823
2.3025522788919552,27.146857292240192,-0.057489911269908094,2.3939525330500944,-2.75483872556537
2.290861968704777,26.672827183661056,-0.05941319060187314,2.3463485527412455,-2.6264913091503073
2.278824786531991,26.20816811692566,-0.06095863112598983,2.300242114612738,-2.5069682985692268
2.2665115638336295,25.752588271584113,-0.06217359585762436,2.2555563388027275,-2.3954353727825475
2.2539842672834682,25.30581067498737,-0.0630993696439867,2.212219627164688,-2.2911541249944056
2.2412971300902305,24.867572192502713,-0.06377200228838882,2.1701651976818903,-2.1934693717266525
2.228497627416037,24.437622605724187,-0.06422302445354956,2.1293306701033434,-2.101798343481673
2.2156273192521327,24.015723769123866,-0.06448005718548942,2.0896576958998985,-2.015621449394616
2.2027225803130963,23.601648836858672,-0.06456733220487615,2.051091626752028,-1.934474363145281
2.1898152333801293,23.195181552514974,-0.0645061371247941,2.013581216684935,-1.8579412216664821
2.1769330999349306,22.796115595475854,-0.06431519732719347,1.9770783537062866,-1.785648764057322
2.1641004797770735,22.404253978364135,-0.06401100425137482,1.9415378174109057,-1.7172612673009424
2.151338569529135,22.019408490670912,-0.06360809822801496,1.9069170595213365,-1.6524761592359873
2.1386658284401787,21.641399184243404,-0.06311931266154666,1.873176004753724,-1.591020208790559
2.1260982986473396,21.270053896792945,-0.06255598526684232,1.8402768697508776,-1.532646209586613
2.1136498860047435,20.905207810005727,-0.06192814115911911,1.8081839981212962,-1.477130086319471
2.1013326067044686,20.546703039206164,-0.06124465184362835,1.7768637098743392,-1.424268364335552
2.089156804167525,20.194388251843172,-0.06051337352580818,1.7462841637555826,-1.3738759519908348
2.0771313400508995,19.8481183123507,-0.05974126764044936,1.7164152311691532,-1.3257841930097811
2.0652637626806865,19.507753951180717,-0.05893450606167845,1.6872283805306418,-1.2798391524510848
2.0535604557655893,19.173161456024722,-0.058098563089294876,1.6586965710292854,-1.2359001052424983
2.0420267698567525,18.844212383432303,-0.057238295999073666,1.6307941548949247,-1.1938382007507078
2.03066713868833,18.52078328920615,-0.056358015685149365,1.6034967873666075,-1.1535352806493078
2.0194851822494746,18.20275547610469,-0.05546154870340808,1.5767813436479556,-1.1148828305573832
2.0084837981952077,17.89001475751875,-0.05455229183925877,1.5506258422115005,-1.077781048640645
1.9976652429947086,17.582451235909428,-0.053633260165732194,1.5250093738816968,-1.0421380166767973
1.9870312040357332,17.279959094902694,-0.05270712942402107,1.4999120361856413,-1.0078689610531044
1.976582863748875,16.982436404032853,-0.0517762734445634,1.475314872512749,-0.9748955928417885
1.966331494678829,16.689787143130623,-0.05073741725589439,1.4511777365095635,-0.9400818025262023
1.9562867134596378,16.401918687921345,-0.04971039493601916,1.427506815583216,-0.9068465736305631
1.9464460565719301,16.118739448778186,-0.048696173941056756,1.4042855758483928,-0.8750997345755388
1.93680688325974,15.840161067799109,-0.04769555918084438,1.3814982339423951,-0.8447572402473356
1.9273664061127778,15.566098272993933,-0.046709212288779625,1.3591297141093492,-0.8157406896139252
1.918121718015945,15.296468740761949,-0.04573766867954542,1.3371656082105106,-0.7879768863889657
1.909069815882348,15.031192966098086,-0.044781352656427326,1.3155921384281002,-0.7613974384583497
1.900207621536964,14.770194140010155,-0.04384059079741068,1.2943961224512242,-0.7359383922541631
1.8915320000751237,14.513398033669894,-0.0429156238209926,1.2735649409513945,-0.7115398986744992
1.8830397759822177,14.260732888857532,-0.04200661710806811,1.2530865071722077,-0.6881459075123207
1.8747277472679265,14.012129314293002,-0.041113670034844806,1.2329492384730831,-0.6657038876786514
1.8665926978391345,13.767520187477615,-0.04023682425307459,1.213142029680794,-0.6441645707902017
1.8586314083100677,13.526840561698034,-0.039376071037593795,1.1936542281150115,-0.6234817159437706
1.8508406654256166,13.290027577869996,-0.038531357806916626,1.1744756101653695,-0.6036118937234274
1.843217270253909,13.05702038092268,-0.037702593910160405,1.155596359307773,-0.584514287685092
1.8357580452866271,12.827760040446208,-0.03688965576265823,1.137007045456931,-0.5661505117397123
1.8284598405700576,12.602189475344467,-0.036092391403035565,1.1186986055604946,-0.5484844420134445
1.8213195389761423,12.380253382253635,-0.03531062453611657,1.1006623253478105,-0.5314820619033651
1.8143340607106673,12.16189816750353,-0.03454415811863438,1.08288982215324,-0.5151113191723018
1.807500367144982,11.947071882414175,-0.03379277753821658,1.065373028740306,-0.49934199403810314
1.8008154640481213,11.735724161734275,-0.03305625343039065,1.048104178058696,-0.48414557731262764
1.7942764042877517,11.527806165041266,-0.03233434417330669,1.031075788871388,-0.4694951577352488
1.7878802900608788,11.32327052093473,-0.03162679809542157,1.0142806521939791,-0.4553653177259353
1.781624274708591,11.122071273866066,-0.030933355427456323,0.9977118184926661,-0.44173203685500473
1.7755113086742862,10.924338163100138,-0.03019630491559253,0.9796192891666173,-0.4633751686533844
1.7695416952491365,10.730212147031835,-0.029499829335903734,0.9616408715163959,-0.48679687233240093
1.7637073996031771,10.539670714150265,-0.02884312712369027,0.9437734572993027,-0.5118838208883327
1.7580005533973977,10.352691962320026,-0.028225334934104663,0.9260140610030783,-0.538525394456933
1.7524134665035416,10.169254574699014,-0.027645534004455144,0.908359815207052,-0.5666134322942521
1.746938637506906,9.98933779654259,-0.0271027559619012,0.8908079663571928,-0.5960419909712981
1.7415687630991594,9.812921412812674,-0.02659598811556518,0.8733558709419427,-0.6267071077821047
1.7362967464607482,9.639985726512641,-0.026124178268547342,0.8560009920583714,-0.6585065683786113
1.7311157047256942,9.470511537670717,-0.025686239081992152,0.8387408963608559,-0.6913396776524288
1.7260189756154765,9.304480122895914,-0.0252810520201842,0.8215732513871832,-0.7251070328829693
1.7210001233231953,9.141873215431222,-0.024907470902627227,0.8044958232597502,-0.7597102981633977
1.7160529437243173,8.982672985629005,-0.02456432508615384,0.7875064747624043,-0.7950519791001684
1.7111714689859716,8.826862021773117,-0.0242504222973019,0.7706031637964873,-0.8310351967582242
1.7063499716429962,8.674423311171182,-0.02396455113245084,0.7537839422228514,-0.8675634597918322
1.7015829682057,8.525340221438892,-0.023705483240512217,0.7370469551000485,-0.9045404336600291
1.69686522236162,8.379596481895625,-0.023471975200287203,0.7203904403326189,-0.9418697057751447
1.6921917478314001,8.237176164987616,-0.02326277010191269,0.703812728747473,-0.9794545453721983
1.6875578109373,8.098063667650784,-0.023076598839088455,0.6873122446208393,-1.0171976568153336
1.6829589329417933,7.962243692520378,-0.022912181115980222,0.6708875066832248,-1.0550009249740167
1.6783908922132156,7.829701228888517,-0.022768226169795115,0.6545371296353849,-1.092765151205517
1.673849726275537,7.700421533303526,-0.022643433206991623,0.6382598262145267,-1.130389778370198
1.6693317338000502,7.574390109696374,-0.0225364915478775,0.6220544098570018,-1.1677726031812923
1.66483347659817,7.451592688909503,-0.022446080470923765,0.6059197980116966,-1.2048094740500335
1.660351781676634,7.332015207491597,-0.022370868744434728,0.589855016167369,-1.2413939724292051
1.6558837434192695,7.215643785608112,-0.022309513829210353,0.5738592026674739,-1.2774170754824195
1.6514267259632025,7.102464703901589,-0.022260660731460668,0.557931614397772,-1.3127667977120456
1.6469783658420147,6.992464379117266,-0.02222294048041641,0.5420716334454458,-1.3473278089654015
1.642536574973998,6.885629338288339,-0.02219496819975193,0.5262787748438118,-1.3809810260069866
1.6380995440804216,6.78194619125053,-0.022175340736010914,0.5105526955342914,-1.4136031745956072
1.6336657466267601,6.6814016012273605,-0.022162633800606298,0.4948932046973997,-1.44506631874224
1.6292339433892453,6.5839822531948755,-0.022155398574540117,0.4793002756274456,-1.4752373535527294
1.6248031877601288,6.489674819696958,-0.022152157716626632,0.46377405935174193,-1.503977457787693
1.6203728319178112,6.3984659237393124,-0.022151400706546455,0.44831490022472215,-1.5311415020140025
1.6159425340028244,6.310342098340769,-0.022151578443322835,0.43292335376069846,-1.5565774079988473
1.611512266457736,6.225289742264074,-0.022151097007561463,0.4176002070062361,-1.580125454839822
1.6070823257088058,6.143295071384031,-0.022148310481738247,0.4023465017941894,-1.601617527278779
1.6026533433899748,6.064344065078021,-0.022141512706572695,0.3871635612659271,-1.6208763017806518
1.5982262993360603,5.988422406941915,-0.022128927832573916,0.37205302009514934,-1.6377143663690152
1.5938025366024549,5.915515419043,-0.022108699503480034,0.35701685889399676,-1.6519332710396954
1.5893837788039553,5.845607988820959,-0.02207887848151377,0.34205744332640353,-1.6633225070275497
1.5849721501066383,5.7786844876394134,-0.022037408491657286,0.32717756848904705,-1.6716584155762446
1.5805701982553457,5.714728679876771,-0.021982110021269423,0.3123805091373919,-1.6767030305852428
1.576180921077329,5.653723621331203,-0.02191066175889607,0.2976700763182961,-1.6782028652023901
1.5718077969727684,5.595651545609563,-0.02182057928670961,0.28305068089811486,-1.6758876609921385
1.5674548199894778,5.540493737088742,-0.021709190546197993,0.2685274043101114,-1.6694691310392071
1.5631265401885592,5.4882303890045385,-0.02157360746298866,0.25410607653193373,-1.658639747130889
1.5588281101500376,5.438840445275474,-0.021410692922225083,0.23979336075870622,-1.6430716487308807
1.5545653386582894,5.392301424866329,-0.02121702199525857,0.22559684333275148,-1.6224157917667017
1.5503447528714045,5.3485892279293665,-0.02098883587359085,0.21152512603688514,-1.5963015139964292
1.5461736706568725,5.307677923768303,-0.02072198627172943,0.1975879155737663,-1.5643367790358016
1.542060285333714,5.26953952205772,-0.020411866959855363,0.18379610153207043,-1.5261094844704368
1.5380137659056534,5.234143731023575,-0.02005332732075017,0.17016180880935997,-1.4811903965674311
1.5340443771769856,5.2014577098868635,-0.019640559965928475,0.1566984025577722,-1.429138525509992
1.530163626201209,5.171445828399349,-0.019166949791838646,0.1434204123173665,-1.3695101053642666
1.5263844447953447,5.1440694545458285,-0.0186248642668025,0.13034332621785724,-1.3018728155863915
1.522721423130403,5.119286803349805,-0.018005352382616992,0.11748318574239106,-1.225827482525686
1.519191117921316,5.0970528959158905,-0.017297699708251627,0.10485588859677131,-1.1410401808516402
1.5158124724555089,5.077319698093376,-0.016488754949820605,0.09247608962838971,-1.047288222815344
1.5126074076901657,5.06003652926524,-0.015561892703612806,0.08035559865296041,-0.9445234635888288
1.5096016787206348,5.045150843700537,-0.014495396991694201,0.06850125699407006,-0.8329545287574126
1.5068261471598505,5.032609465624343,-0.01325991861614886,0.056912523767865666,-0.7131438841096598
1.5043187143373211,5.02236025626183,-0.011814409609145201,0.045579569857267827,-0.5861031671065171
1.5021273421473436,5.014353922057381,-0.010099312290631397,0.0344837721872175,-0.45334910680077156
1.5003150435064954,5.008545092691154,-0.008023674117848451,0.023604521475039487,-0.31685778168846923
1.4989693005348812,5.0048904851363964,-0.005433755598293824,0.0129415540725409,-0.17884494132327325
1.4982266528300303,5.003336909779012,-0.001992721450216014,0.002594199501312013,-0.041339649165286596
