x,y,v_x,v_y,omega
2.375,32.48,0.0,3.641025641025641,-5.918367346938775
2.3731859151940475,31.72605093384151,-0.017276998151929502,3.53944165572185,-5.456075526358061
2.3680660569277583,30.992890584863925,-0.03148355676510936,3.443037858350388,-5.048524092541678
2.3602298291211943,30.279475214987233,-0.04314718424978808,3.3513942357133564,-4.687408126536306
2.350166170508822,29.584844265029645,-0.05269718348709071,3.264138621025577,-4.3659045541664545
2.3382820667668174,28.90811107796025,-0.060484756912953144,3.180939351063898,-4.078371944831168
2.3249173160912893,28.248455011691107,-0.06679858285398048,3.101499375308888,-3.820118127164021
2.3103563815682486,27.605114673248764,-0.0718769840321187,3.0255514669991284,-3.5872187206913133
2.294837960245468,26.977382069437898,-0.07591750475627085,2.9528542835805576,-3.3763742950270617
2.2785627498082572,26.364597515063387,-0.07908449940764065,2.883189091414763,-3.1847971103700465
2.2616997832522325,25.766145173689996,-0.08151518207830986,2.8163570169032752,-3.010120705582009
2.2443916190901185,25.181449131326374,-0.08332447660848871,2.7521767198931135,-2.850327271123811
2.226758611903573,24.60996992272854,-0.08460892516813626,2.6904824096100883,-2.703688965763796
2.208902440152557,24.051201444888132,-0.085449853412964,2.631122141250922,-2.568720238566816
2.190909031293343,23.50466820386734,-0.08591594524621947,2.573956344661394,-2.4441388909696693
2.1728509956875066,22.969922850291223,-0.0860653462379393,2.5188565465397157,-2.328834120419488
2.154789658499068,22.446543966104834,-0.08594738889004597,2.4657042552354027,-2.221840171413949
2.1367767612893376,21.93413407107989,-0.08560401310738523,2.414389983097429,-2.1223145135372006
2.1188558912201665,21.432317822334003,-0.08507093993234054,2.3648123859110064,-2.0295196921477943
2.101063684831816,20.940740384043195,-0.08437864471861825,2.316877502572852,-1.9428081724678776
2.0834308446390395,20.459065947765435,-0.08355316664115824,2.2704980810248885,-1.861609634259152
2.0659829998054415,19.98697638648716,-0.08261678415501135,2.225592978768198,-1.785420281190426
2.048741436540896,19.52417002776173,-0.08158858026923144,2.1820866281406675,-1.7137938132399284
2.031723719333229,19.070360533210767,-0.08048491694664384,2.1399085580589734,-1.6463337771819522
2.0149442204508947,18.625275873271622,-0.07931983431368504,2.098992965170998,-1.5826870632859305
1.9984145721641382,18.1886573874473,-0.07810538746494748,2.0592783283939626,-1.5225383587851786
1.9821440536917656,17.760258921490657,-0.07685193131955294,2.0207070616693277,-1.4656054027378893
1.9661399228815548,17.339846033964854,-0.0755683621110245,1.9832252004811608,-1.411634914368162
1.9504077009894583,16.92719526549427,-0.07426232257561122,1.9467821182863436,-1.360399089207827
1.9349514175683402,16.522093464775303,-0.07294037667313073,1.911330269513344,-1.311692575426945
1.9197738213570896,16.124337166073534,-0.07160815867211309,1.8768249562177688,-1.2653298574772527
1.9048765621322303,15.73373201350634,-0.07027050061226181,1.8432241158507259,-1.2211429862355776
1.8902603477118798,15.350092227911379,-0.06893154148631522,1.8104881279108178,-1.178979604742491
1.8759250796579614,14.973240112541038,-0.06759482093195418,1.7785796375210103,-1.138701226797166
1.86186997068427,14.603005594209833,-0.06626335976986811,1.747463394204739,-1.1001817324206722
1.8480936463268534,14.239225796862925,-0.06493972934838732,1.7171061043372298,-1.0633060497991609
1.8345942330541836,13.88174464483561,-0.06362611134370559,1.68747629592293,-1.0279689979761673
1.8213694346754674,13.530412493340979,-0.0623243494059698,1.6585441945021298,-0.9940742684491966
1.8084165986361147,13.185085783960378,-0.06103599382596193,1.6302816091226335,-0.9615335270769485
1.795732773561594,12.84562672312251,-0.059762340217093424,1.6026618274284854,-0.9302656204311438
1.7833147592178398,12.511902981745461,-0.05850446305675529,1.5756595190195972,-0.9001958730213672
1.7711591498923922,12.18378741438421,-0.05726324480465083,1.5492506463256435,-0.8712554637564371
1.7592623720609124,11.86115779637679,-0.05603940120944073,1.5234123823164376,-0.843380871641949
1.7476207170847484,11.5438965776173,-0.054833503325456154,1.4981230344406156,-0.8165133821003949
1.7362463292408221,11.231892698940236,-0.0534939999500322,1.4733424767695034,-0.7862406305106387
1.7251498147275477,10.925039189157157,-0.052187090652581786,1.4490719021169596,-0.7574029768035071
1.7143243715537944,10.623230925259133,-0.050912368145066875,1.4252925159594756,-0.7299149621685507
1.7037632902237476,10.326366637441769,-0.049669358807760404,1.401986415634481,-0.7036971840680186
1.693459966385352,10.03434872738655,-0.048457534891244713,1.3791365372723607,-0.6786757991096777
1.6834079110928573,9.74708309729176,-0.047276325037277585,1.3567266064875596,-0.6547820721537676
1.6736007590130408,9.464478988896019,-0.04612512334192551,1.3347410925195127,-0.6319519668603643
1.664032274860966,9.186448831799446,-0.045003297154027226,1.313165165543094,-0.6101257734305269
1.6546963583133127,8.91290810044353,-0.04391019377600314,1.2919846568941826,-0.5892477697736774
1.6455870476146108,8.643775179161828,-0.04284514621163309,1.271186021979174,-0.5692659127538361
1.6366985220633439,8.378971234759913,-0.04180747808614835,1.2507563056581097,-0.5501315565364455
1.6280251035403244,8.118420096125277,-0.040796507847370905,1.2306831099098425,-0.5317991953822643
1.619561257220409,7.862048140406269,-0.0398115523422982,1.2109545636045187,-0.5142262285209593
1.611301591590097,7.609784185334288,-0.038851929851149006,1.1915592942238664,-0.4973727449895386
1.6032408578774577,7.3615593872955145,-0.03791696265017815,1.1724864013835032,-0.48120132654391123
1.5953739489868326,7.117307144787741,-0.03700597916529813,1.1537254320238721,-0.4656768669493389
1.5876958980185725,6.876963006924733,-0.0361183157705136,1.1352663571476345,-0.4507664061305363
1.5802018764434567,6.640464586675122,-0.03525331827820772,1.1170995499915153,-0.43643897781746555
1.5728871919922065,6.407751478545382,-0.03441034316227081,1.0992157655298052,-0.4226654694608421
1.5657472863124384,6.178765180437168,-0.03358875854980638,1.0816061212150925,-0.4094184933141212
1.558777732438388,5.9534490194282945,-0.032787945012578826,1.0642620788694057,-0.39667226768807684
1.5519742321126015,5.731748081244191,-0.03200729618538914,1.0471754276458602,-0.38440250748160826
1.54533261299345,5.513609143202718,-0.031246219235100084,1.0303382679872075,-0.3725863231794897
1.5388488257776582,5.298980610430149,-0.03050413520101207,1.0137429965134301,-0.3612021275856307
1.5325189412629632,5.087812455159785,-0.029780479224656792,0.9973822917757672,-0.3502295496300928
1.526345223755158,4.880191868179015,-0.029016830373485743,0.9799566318506129,-0.36558223476760254
1.5203278177696262,4.676218445153918,-0.028291798060151384,0.9626473969598401,-0.38292381726204616
1.5144586648140612,4.4758680799691035,-0.0276048967547529,0.9454513190860261,-0.4021399900241578
1.5087298168288275,4.279117339271277,-0.026955560247474815,0.9283652589885164,-0.42311965551301045
1.5031334523135462,4.085943436001735,-0.026343149421869227,0.9113862007214294,-0.4457546752662157
1.4976618908890766,3.8963242040350465,-0.02576695938260264,0.8945112465803596,-0.4699396278519296
1.4923076064255025,3.710238073835953,-0.02522622598476964,0.8777376124586227,-0.49557157425896303
1.4870632388572695,3.5276640490501734,-0.02472013180792524,0.8610626235964249,-0.5225498297721827
1.481921604797936,3.3485816839481224,-0.02424781161429754,0.844483710708815,-0.55077574140466
1.4768757070590806,3.1729710616432243,-0.023808357327183702,0.8279984064807063,-0.5801524699757987
1.471918743170687,3.000812773008686,-0.023400822562278458,0.8116043424196703,-0.6105847759359815
1.4670441129937788,2.8320878962183613,-0.023024226741609966,0.7952992460596252,-0.6419788080430959
1.4622454255101416,2.6667779768384463,-0.022677558816838164,0.7790809385110042,-0.6742418939945326
1.457516504868656,2.504865008397463,-0.022359780625882536,0.7629473323555109,-0.7072823321097297
1.452851395763001,2.3463314133620834,-0.022069829904165922,0.7468964298862003,-0.7410091831428314
1.448244368211301,2.1911600244459137,-0.02180662296916576,0.73092632169638,-0.7753320612822162
1.4436899218046233,2.0393340661773003,-0.02156905709443103,0.71503518562376,-0.8101609233631513
1.4391827894881017,1.890837136650564,-0.021356012586728642,0.6992212860594283,-0.8454058552811697
1.4347179409358572,1.7456531893826863,-0.02116635457750306,0.6834829736346426,-0.8809768545463964
1.4302905855787984,1.603766515194323,-0.020998934537342855,0.6678186853021586,-0.9167836078623268
1.4258961753428172,1.4651617240301391,-0.020852591519620753,0.6522269448329301,-0.9527352625457718
1.4215304071538843,1.3298237266285575,-0.020726153136882586,0.636706363753578,-0.9887401905270079
1.4171892252660698,1.197737715945145,-0.020618436270874344,0.6212556427551245,-1.0247057435797293
1.4128688234686282,1.0688891482268907,-0.02052824751428377,0.6058735736092081,-1.0605379983282308
1.4085656472290022,0.9432637236263055,-0.02045438333929748,0.5905590416344536,-1.0961414894633423
1.4042763958299616,0.8208473662345739,-0.020395629984897825,0.5753110287629747,-1.1314189294679617
1.39999802456115,0.7016262034016059,-0.020350763051402578,0.5601286172652936,-1.1662709130065827
1.395727747028114,0.5855865441976,-0.02031854678703648,0.5450109942014186,-1.2005956039700807
1.3914630376455124,0.47271485685540426,-0.02029773304726388,0.5299574566766139,-1.2342884029864958
1.3872016343857196,0.3629977450151216,-0.020287059903144618,0.514967417992737,-1.2672415930102923
1.3829415418595359,0.25642192257186736,-0.020285249870033575,0.5000404148001362,-1.2993439603868207
1.3786810348123253,0.15297418690386877,-0.020291007722449156,0.48517611537124894,-1.3304803885566157
1.374418662126714,0.0526413902306615,-0.02030301785479899,0.4703743291355206,-1.3605314213182629
1.3701532514321795,-0.04458959118038308,-0.020319941140768648,0.4556350176363468,-1.3893727923134613
1.3658839144325734,-0.13873189027714972,-0.020340411236431134,0.44095830709477407,-1.4168749171411938
1.3616100530750934,-0.22979868531525227,-0.020363030263378882,0.42634450279194375,-1.442902344261575
1.357331366698623,-0.3178032391872705,-0.020386363798244208,0.41179410551301215,-1.4673131606322953
1.3530478603160243,-0.4027589424507525,-0.020408935083648647,0.39730783032967526,-1.4899583478590335
1.3487598542041639,-0.48467936057919303,-0.020429218362640642,0.38288662803645857,-1.5106810845762986
1.344467994997598,-0.563578286030733,-0.020445631223702177,0.36853170959727455,-1.5293159908662064
1.3401732685073824,-0.639469795808715,-0.020456525825969935,0.35424457400255954,-1.5456883108560335
1.335877014516007,-0.7123683152770823,-0.020460178853795846,0.3400270399819164,-1.5596130303361562
1.331580943833705,-0.7822886890914447,-0.020454780025271287,0.32588128205963734,-1.5708939274892153
1.327287157941348,-0.8492462602126594,-0.020438418949554994,0.31180987147576156,-1.579322556880594
1.3229981715921082,-0.9132569580817176,-0.020409070090826133,0.2978158225152979,-1.5846771701075346
1.318716938799879,-0.9743373971477212,-0.020364575549452296,0.28390264477996174,-1.5867215814858573
1.3144468827097535,-1.0325049870470124,-0.020302625308885963,0.27007440187995185,-1.5852039946599366
1.3101919299284996,-1.0877780558174877,-0.02022073451257978,0.25633577688650483,-1.5798558171985027
1.305956549996874,-1.1401759875757733,-0.020116217217188447,0.2426921446209513,-1.5703905067455792
1.3017458008198073,-1.1897193760518476,-0.019986155897732477,0.2291496503892601,-1.5565025165374162
1.2975653810492356,-1.236430195211824,-0.019827365726760648,0.21571529399144254,-1.5378664435526574
1.2934216906603038,-1.2803319878214268,-0.019636352263066953,0.20239701657620962,-1.5141365342511832
1.289321901311317,-1.321450072084211,-0.019409260584424493,0.18920378592649242,-1.484946777957144
1.2852740385903758,-1.3598117652392006,-0.019141812948348783,0.17614567269247816,-1.4499119265937621
1.2812870790238187,-1.3954466209419252,-0.018829230542672677,0.16323390542871716,-1.4086299356709113
1.2773710659120303,-1.428386673974309,-0.018466132426739997,0.15048088535589962,-1.3606865436681084
1.2735372499273132,-1.4586666807659654,-0.018046400761042716,0.13790013170751805,-1.3056630178282298
1.269798263383525,-1.4863243366147216,-0.017562994894084395,0.12550611447112545,-1.2431485167779535
1.2661683418648557,-1.5114004394884475,-0.01700768623609922,0.11331391289772268,-1.1727590653684634
1.262663614607058,-1.5339389550941505,-0.016370668600070394,0.10133861668037505,-1.094165772458668
1.2593024974509337,-1.5539869185100557,-0.01563997098206628,0.08959436823298401,-1.0071355006553937
1.2561062421434344,-1.5715940864926452,-0.014800555756022205,0.07809294588693594,-0.9115873082989455
1.253099727632732,-1.5868122398469424,-0.013832915774475962,0.06684184796354448,-0.8076666956878029
1.2503126300161223,-1.5996940474719992,-0.012710871050378417,0.055842034179827096,-0.6958352103165472
1.247781192334429,-1.6102914853379318,-0.01139805925146083,0.045085945495729376,-0.5769626116042776
1.2455509728402792,-1.6186540306847164,-0.009842126407109734,0.03455734352126453,-0.45239039559275224
1.2436813226688603,-1.6248273521089516,-0.007964065701640852,0.024236193852426917,-0.32391207070187655
1.242253552618185,-1.6288543081116558,-0.005633744304790925,0.014115768078056095,-0.19360176786503516
1.24139050487712,-1.6307836906778164,-0.0025857579910647317,0.00425930398059887,-0.06344517995290505
