x,y,v_x,v_y,omega
2.375,32.48,0.0,3.1794871794871797,-7.26530612244898
2.373460566584537,31.882966700386486,-0.016204562268031183,3.105073869076075,-6.807500205092129
2.369065553245793,31.299779492012913,-0.0300587360345351,3.033738850645776,-6.392865316399033
2.3622304008296138,30.729873789996436,-0.04189023676735172,2.965268539001343,-6.01609120512586
2.353313039452465,30.172723529615286,-0.05197672509737471,2.899471043958109,-5.672646922910202
2.3426225864815584,29.627837334520848,-0.060554358806905004,2.8361731149307126,-5.3586490253302195
2.330426575700231,29.09475521279985,-0.06782470204917333,2.775217640027168,-5.070755044097753
2.3169569960389107,28.573045686981764,-0.07396034701735667,2.7164615791105664,-4.8060767911473965
2.3024153589520395,28.062303284164443,-0.07910951705497288,2.6597742400191384,-4.562109358869783
2.2869769683893,27.562146327624873,-0.08339985728965241,2.6050358288184317,-4.3366726394155855
2.2707945325745706,27.072214982897727,-0.0869415723390786,2.552136220941018,-4.127862899575133
2.2540012298029244,26.59216952027154,-0.0898300357835107,2.500973911966225,-3.934012484730387
2.2367133192827326,26.121688762640108,-0.0921479696921915,2.451455115733052,-3.753656133553313
2.2190323712959157,25.660468693140807,-0.09396727227430612,2.403492984259602,-3.5855026982536473
2.2010471776003184,25.20822120136888,-0.09535055610040251,2.3570069291291182,-3.42841130742996
2.182835392290605,24.76467295044123,-0.09635244715973433,2.311922028004022,-3.281371197456693
2.1644649446928024,24.329564349991927,-0.09702068544871804,2.268168503041262,-3.143484586665069
2.145995258855014,23.902648622462955,-0.09739706021221196,2.2256812604215983,-3.0139520838294356
2.127478308476822,23.48369095192036,-0.09751820692665318,2.184399482132038,-2.8920602157333484
2.108959531432204,23.072467706163827,-0.09741628827984804,2.1442662626735625,-2.77717073319549
2.090478624182461,22.668765724173355,-0.0971195775069224,2.1052282845945873,-2.668711414935653
2.072070233187015,22.27238166200141,-0.09665295928724228,2.0672355277416545,-2.566168137155989
2.053764557774911,21.8831213911132,-0.096038360840173,2.0302410079237565,-2.469078016092366
2.035587876737921,21.500799443932706,-0.09529512375972053,1.9942005413446005,-2.3770234629092637
2.0175630090671133,21.12523850199364,-0.09444032540667398,1.9590725316981867,-2.289627016616852
1.9997097177138807,20.756268922641596,-0.0934890572589322,1.9248177772706816,-2.2065468423176133
1.982045063961668,20.39372830070331,-0.09245466644857016,1.891399295763952,-2.127472799939659
1.9645837189035626,20.037461061943308,-0.09134896574201247,1.8587821648676162,-2.0521230033971793
1.9473382375990487,19.68731808547839,-0.09018241641076598,1.8269333768683687,-1.9802408024032905
1.9303193007023438,19.343156352624263,-0.08896428776507516,1.795821705806632,-1.9115921294020208
1.9135359276916657,19.00483861991418,-0.08770279655785315,1.765417585878459,-1.8459631626504558
1.8969956652644226,18.672233114261353,-0.08640522899207181,1.73569299994082,-1.7831582636649064
1.8807047539819224,18.34521324844099,-0.08507804766582656,1.7066213771156051,-1.7229981532862764
1.864668275835656,18.02365735524747,-0.08372698545276538,1.6781774986056637,-1.665318295714815
1.848890285054695,17.70744843884082,-0.08235712803103584,1.65033741093802,-1.6099674641726507
1.8333739241711329,17.39647394193763,-0.08097298653277704,1.6230783459376485,-1.5568064655046157
1.8181215271002868,17.090625527626425,-0.07957856158139208,1.5963786468118797,-1.5057070041313663
1.8031347107681488,16.789798874699017,-0.07817739980953534,1.5702176997924062,-1.45655066841232
1.788414456625044,16.493893485488904,-0.07677264380209499,1.5445758708403905,-1.4092280247327817
1.7739611832171103,16.20281250529677,-0.07536707628141885,1.5194344469715337,-1.3636378065606496
1.759774810842265,15.916462552563175,-0.07396315924326814,1.4947755818031605,-1.3196861873738546
1.7458665458005522,15.63475751821155,-0.07243963066949764,1.4705405692665818,-1.2736787622033219
1.7322456605430596,15.35761422247566,-0.07093810888305473,1.4467572805848914,-1.2296980499979802
1.7189078972270755,15.084948329274091,-0.0694593997062529,1.423410016273724,-1.187631319381331
1.705848860986546,14.816678419151959,-0.06800413966773917,1.4004837744855658,-1.1473732983444858
1.6930640501545207,14.552725860458722,-0.06657281645884455,1.3779642117590494,-1.1088256017867009
1.6805488828198556,14.293014687732573,-0.06516578706394681,1.3558376064109297,-1.0718962088791326
1.6682987201344786,14.037471486809114,-0.06378329383475935,1.3340908243623235,-1.0364989854114655
1.6563088867393345,13.786025286209775,-0.0624254787457025,1.3127112872096738,-1.0025532467994647
1.6445746886347927,13.538607454399912,-0.06109239603894766,1.2916869423678368,-0.9699833578892907
1.6330914287840286,13.295151602537814,-0.059784023442783114,1.2710062351279234,-0.938718366099268
1.6218544207050751,13.05559349236447,-0.05850027212514774,1.2506580824862201,-0.9086916647983571
1.6108590002783016,12.819870948910054,-0.0572409955250979,1.2306318486128751,-0.8798406841385583
1.6001005359705331,12.587923777717013,-0.05600599718825568,1.2109173218401879,-0.8521066068408694
1.5895744376544745,12.359693686301455,-0.05479503771762394,1.191504693060414,-0.8254341066855206
1.5792761641821635,12.135124209594665,-0.053607840938280076,1.1723845354321336,-0.7997711076807931
1.5692012298535283,11.914160639124876,-0.0524440993631453,1.1535477853024914,-0.7750685620840378
1.5593452099055076,11.696749955716427,-0.05130347903707178,1.134985724260131,-0.7512802456264248
1.549703745133352,11.482840765498871,-0.05018562382772345,1.1166899622404614,-0.7283625684519344
1.5402725457434383,11.272383239032973,-0.04909015922399914,1.0986524216110973,-0.7062744004233544
1.5310473945260452,11.065329053373677,-0.048016695695929125,1.080865322170966,-0.6849769095754595
1.522024149426856,10.86163133690227,-0.046964831663955944,1.063321167001724,-0.6644334126098087
1.5131987455873621,10.6612446167712,-0.045934156120189605,1.0460127291148278,-0.6446092364281719
1.5045671969166898,10.46412476881531,-0.044924250939520786,1.0289330388418978,-0.6254715897937781
1.4961255972505758,10.270228969792935,-0.043934692914309036,1.0120753719199438,-0.6069894442925102
1.4878701211471628,10.079515651829013,-0.042965055542671576,0.9954332382266159,-0.5891334238408577
1.479805541111316,9.892150751430538,-0.0419252606241362,0.9768288712310281,-0.6152939050978934
1.4719335633677475,9.708310136880002,-0.04093766299237318,0.9583354924588146,-0.6430385939223604
1.4642444167431319,9.527972997589455,-0.04000072252989645,0.9399501842837941,-0.6722536576531829
1.456728624912691,9.351119066109057,-0.03911287568527237,0.9216701470888118,-0.7028275572143505
1.4493770104793833,9.177728596070274,-0.038272539402176876,0.9034926954247023,-0.734650793424496
1.4421806983452838,9.007782340819361,-0.03747811464097382,0.8854152545848956,-0.767615657881517
1.4351311184499518,8.841261532662923,-0.036727989520416754,0.8674353575881503,-0.8016159873471949
1.4282200079456164,8.678147862648387,-0.036020542104167,0.8495506425648622,-0.8365469205582237
1.4214394128745873,8.51842346080291,-0.03535414285403368,0.8317588505454336,-0.8723046563833275
1.4147816894103848,8.362070876754121,-0.034727156769150655,0.8140578236523525,-0.9087862122310152
1.4082395047206853,8.209073060655559,-0.034137945227688996,0.7964455037009504,-0.9458891815886751
1.4018058375072666,8.05941334433832,-0.03358486754513714,0.7789199312173415,-0.9835114895407832
1.3954739782757177,7.913075422608518,-0.033066282260639596,0.7614792448858337,-1.021551145071484
1.3892375293857242,7.7700433346073545,-0.032580548160344565,0.7441216814422137,-1.059905988904166
1.383090404931298,7.630301445147133,-0.03212602504414404,0.7268455760338008,-1.0984734355672134
1.3770268304993452,7.4938344259320715,-0.031701074239569464,0.7096493630721167,-1.137150208300172
1.3710413428545152,7.360627236567318,-0.03130405886390211,0.6925315776095072,-1.1758320653272711
1.3651287895983344,7.230665105253081,-0.030933343832737853,0.6754908572771876,-1.2144135159247698
1.359284328851248,7.10393350905299,-0.03058729561027673,0.6585259448290525,-1.2527875245939977
1.353503429007394,6.980418153616611,-0.03026428169345031,0.6416356913433441,-1.2908452015223542
1.347781868613748,6.860104952225406,-0.0299626698186128,0.6248190601430285,-1.3284754773690388
1.3421157364277732,6.742980004018779,-0.029680826875858827,0.6080751315056636,-1.3655647602501997
1.3365014317109227,6.629029571242484,-0.02941711751204038,0.5914031082448322,-1.401996572618998
1.3309356648193569,6.518240055344709,-0.029169902399179194,0.5748023222580627,-1.437651165539764
1.3254154581581212,6.410597971725867,-0.02893753614014415,0.5582722421508034,-1.472405107642528
1.319938147570887,6.306089922925583,-0.02871836477811093,0.541812482062699,-1.50613084581637
1.3145013842442823,6.204702570004692,-0.028510722870358687,0.5254228118414169,-1.5386962344603279
1.309103137213971,6.106422601850323,-0.028312930080286382,0.5091031687308737,-1.5699640298643456
1.3037416965691104,6.011236702098195,-0.028123287234034258,0.49285367076520403,-1.5997913460483915
1.2984156774628117,5.919131513327191,-0.027940071779635672,0.476674632087467,-1.628029068158516
1.2931240250489282,5.830093598136784,-0.02776153257703365,0.46056658044311455,-1.654521219323894
1.287866020480155,5.744109396667078,-0.027585883936367694,0.44453027713275917,-1.6791042767478501
1.2826412881193066,5.661165180063531,-0.027411298809405626,0.42856673974668674,-1.7016064327809517
1.277449804135084,5.581246999323373,-0.027235901024516805,0.4126772680444382,-1.7218467968670823
1.2722919066760792,5.504340628887512,-0.027057756438692116,0.3968634733856831,-1.7396345346527973
1.2671683078426876,5.430431504260511,-0.026874862860166795,0.3811273121617081,-1.7547679413340898
1.2620801077067008,5.359504652852031,-0.026685138571274296,0.36547112371701634,-1.767033447666439
1.2570288106634984,5.29154461713707,-0.026486409251907764,0.3498976732825866,-1.7762045592470261
1.252016344443166,5.226535369131717,-0.026276393067379653,0.33441020045796654,-1.7820407330700896
1.2470450821562034,5.164460215080489,-0.026052683637491407,0.31901247376550507,-1.784286200500026
1.2421178678091966,5.105301689157805,-0.02581273054152705,0.30370885173641293,-1.7826687534814567
1.2372380457994707,5.049041434912674,-0.025553816929272048,0.2885043508439273,-1.7768985221320843
1.2324094949907025,4.995660073151491,-0.025273033689340942,0.2734047203264004,-1.766666788455637
1.2276366680920439,4.945137054990706,-0.024967249454433633,0.25841652347131827,-1.751644905088709
1.222924637224346,4.897450498966375,-0.02463307546870166,0.24354722415320265,-1.7314834230888214
1.2182791467789171,4.852577011435162,-0.02426682395686533,0.22880527617533733,-1.7058115835483756
1.2137066749892433,4.810491490151193,-0.023864458039700664,0.21420021102434605,-1.674237401049415
1.2092145060961628,4.771166912020057,-0.023421530308516486,0.19974271667184407,-1.636348672143674
1.204810815675865,4.734574107856428,-0.022933105694617616,0.18544469557689666,-1.5917153921442149
1.2005047727533642,4.700681529851412,-0.022393661910654183,0.17131928342328426,-1.5398942756351601
1.1963066639614346,4.66945502187086,-0.02179695695176254,0.15738080058254267,-1.4804363710431128
1.192228047581663,4.640857609288901,-0.021135847045834606,0.14364459501701612,-1.412899158661563
1.1882819493914947,4.614849334561857,-0.020402028640147184,0.1301267178992422,-1.3368650361869496
1.184483118748107,4.591387177860547,-0.01958566234287947,0.11684335264086594,-1.2519687015628476
1.1808483736915172,4.570425118937187,-0.018674811937013546,0.10380989918397324,-1.1579365195472722
1.1773970802379046,4.551914415365076,-0.01765459283785632,0.09103961210141906,-1.0546411682404713
1.1741518367977204,4.5358041873682495,-0.016505864427239725,0.07854173523359845,-0.9421739323080549
1.1711394750539785,4.522042395530104,-0.015203206559515842,0.06631923148372976,-0.8209334360682538
1.1683925533980568,4.510577242978908,-0.013711758239661203,0.05436658484464785,-0.691721024053696
1.1659516326250319,4.501358870802147,-0.011982144634285203,0.042668911752847774,-0.5558170610417198
1.1638688686403382,4.494340850907356,-0.009941686783541546,0.0312049818765345,-0.4149903313355362
1.1622141681691696,4.489480226890564,-0.0074762129129712146,0.019959481458115255,-0.271375191762657
1.1610880265409382,4.486732866295288,-0.004377909489463623,0.008960103755314065,-0.127159004512231
