x,y,v_x,v_y,omega
2.375,32.48,0.0,2.717948717948718,-5.183673469387755
2.373853797477633,31.915619560185128,-0.010916214498735463,2.657103089811933,-4.8734268509048215
2.3705743735401557,31.363770737406437,-0.020316394429617784,2.5985999842708383,-4.590799698355605
2.3654589784274807,30.82397728101597,-0.028401654262524726,2.542290076590766,-4.332579454139219
2.3587656825078405,30.2957928691093,-0.03534402116261963,2.4880376558537063,-4.095998608869289
2.3507189938265665,29.778798428376984,-0.0412911091352307,2.4357189225493014,-3.878663934798751
2.3415145819686507,29.272599782439514,-0.0463699561782496,2.385220562569442,-3.6784984083863153
2.331323266456637,28.776825576360462,-0.05069019155521643,2.3364385429453463,-3.4936932823826985
2.3202943967144467,28.29112543520383,-0.054346663132307654,2.2892770871178287,-3.322668331034389
2.308558726278981,27.815168322388278,-0.05742162672927041,2.243647796839806,-3.1640387177411062
2.2962308647696608,27.348641069762557,-0.059986578121401665,2.199468894833736,-3.016587259427612
2.2834113759130994,26.891247056199227,-0.06210379194108791,2.156664567674141,-2.8792411120705546
2.2701885777631112,26.4427050153839,-0.06382761901117763,2.1151643924718204,-2.751052096018802
2.256640091479043,26.002747956592156,-0.06520558369423511,2.074902834116236,-2.631180031618761
2.242834177116101,25.571122184766903,-0.0662793150004504,2.035818802314734,-2.5188785752513665
2.228830888448787,25.14758640826376,-0.06708533897397137,1.9978552596199863,-2.4134831406685846
2.214683073591216,24.731910924319255,-0.06765575490765323,1.9609588731847991,-2.314400566079916
2.200437243861751,24.323876873691837,-0.06801881394439487,1.925079704219209,-2.2211002480141313
2.1861343297806033,23.92327555708639,-0.06819941539986939,1.8901709301183687,-2.133106511792437
2.171810340143404,23.529907806945385,-0.0682195335258384,1.856188595034057,-2.049992027971485
2.157496937666574,23.143583409008414,-0.06809858530111386,1.8230913853180244,-1.971372116261402
2.1432219426603116,22.764120568735734,-0.06785374809186011,1.7908404268027651,-1.8968998046836596
2.129009774478874,22.391345418281936,-0.06750023458850188,1.7593991013286188,-1.8262615332710714
2.1148818390665394,22.02509156021157,-0.06705153124325279,1.7287328802939155,-1.7591734093442986
2.100856869713452,21.665199644582973,-0.06651960545281738,1.698809173311783,-1.695377936051404
2.0869512271195814,21.3115169764022,-0.0659150859173805,1.6695971903146434,-1.6346411480060452
2.0731791640056763,20.963897150774393,-0.06524741992933716,1.6410678156644547,-1.5767500979666746
2.0595530587813005,20.622199713363514,-0.06452501077900004,1.6131934930105913,-1.5215106469334183
2.0460836221605456,20.28628984401906,-0.06375533799009356,1.5859481197937237,-1.4687455170991242
2.032780080088164,19.9560380616458,-0.06294506269925672,1.5593069504277932,-1.4182925730174893
2.019650335888147,19.631319948583652,-0.062100120158047806,1.5332465073069756,-1.3700033013399853
2.006701114161043,19.31201589293366,-0.06122580105246646,1.507744498883449,-1.3237414636840503
1.9939380886255502,18.998010847415422,-0.06032682309508361,1.482779744147342,-1.2793819007582448
1.981383452353201,18.689197659641373,-0.0592411414034805,1.4582982346531492,-1.2321542374145056
1.9690567203729175,18.385473082385218,-0.058156306027791926,1.4343167868340445,-1.187157877157242
1.9569574654786224,18.08673403434029,-0.05707469296549533,1.4108170040700674,-1.1442603590446385
1.9450847944122052,17.792881205734304,-0.05599836480990681,1.3877813636059761,-1.1033385790184604
1.9334374099447402,17.50381888031174,-0.05492910630880591,1.3651931642279396,-1.0642780242200134
1.9220136659168525,17.21945476790983,-0.053868455861555024,1.3430364776950123,-1.02697207832048
1.9108116160402118,16.93969984687284,-0.05281773343978442,1.3212961036096462,-0.9913213905176387
1.899829057166715,16.664468215612416,-0.05177806535542338,1.2999575274420359,-0.957233301688862
1.889063567648483,16.39367695267872,-0.050750406246786305,1.2790068814502875,-0.9246213219239005
1.8785125413387933,16.12724598475886,-0.04973555860740036,1.2584309082626441,-0.893404654304328
1.8681732177200754,15.865097962065768,-0.04873419014229457,1.2382169269096648,-0.8635077603616992
1.8580427085889544,15.60715814062332,-0.04774684920171478,1.2183528011136446,-0.8348599631437231
1.848118021679018,15.353354270992092,-0.04677397851196408,1.1988269096599438,-0.8073950842559411
1.8383960815586105,15.103616493015295,-0.04581592739667987,1.1796281186904953,-0.7810511116331
1.828873748102783,14.857877236196543,-0.044872962658820674,1.1607457557738055,-0.7557698951361953
1.8195478328048895,14.616071125350363,-0.04394527827349842,1.1421695856183922,-0.731496867373654
1.8104151131636343,14.378134891193088,-0.04303300402416823,1.1238897873080158,-0.7081807874132487
1.801472345355176,14.144007285566275,-0.0421362131992467,1.1058969329473491,-0.6857735052892829
1.792716275376723,13.913629001007116,-0.041254929452685246,1.0881819676160513,-0.6642297454210652
1.7841436488275773,13.686942594400978,-0.04038913292013097,1.0707361905376427,-0.6435069072468674
1.775751219475419,13.463892414469917,-0.03953876567185212,1.053551237377225,-0.6235648815452276
1.7675357567395622,13.24442453286846,-0.03870373657440404,1.036619063589039,-0.6043658810650272
1.7594940522086344,13.02848667867379,-0.03788392562490664,1.0199319287411595,-0.5858742842193669
1.7516229252974802,12.81602817607218,-0.03707918781465744,1.0034823817503686,-0.5680564907177226
1.743919228136829,12.606999885057014,-0.036289356572496524,0.9872632469654913,-0.5508807881178123
1.7363864850574444,12.401502837111018,-0.03545105370735817,0.9698514953773348,-0.5626773181923579
1.729025856681142,12.199649940916522,-0.03465016892409124,0.9525570398083301,-0.576520976653446
1.7218295291299275,12.00141691175222,-0.03388628394461869,0.9353765712802794,-0.592293685653776
1.7147897854271599,11.80678014581856,-0.03315889417697903,0.9183069138021919,-0.6098806728117011
1.707899022776802,11.61571669290107,-0.03246741677880872,0.9013450187453479,-0.6291702110137174
1.7011497682188792,11.428204230167811,-0.03181119805855158,0.884487959666661,-0.6500533669767671
1.694534692795194,11.244221037008941,-0.031189520262258564,0.8677329275606771,-0.6724237575394727
1.6880466243497236,11.06374597083013,-0.030601607789841858,0.8510772265232407,-0.6961773126843545
1.6816785590792946,10.886758443714879,-0.030046632880910043,0.8345182698124809,-0.7212120443190642
1.6754236719420843,10.713238399873557,-0.02952372080680752,0.8180535762953449,-0.7474278198638302
1.6692753260241402,10.543166293799146,-0.029031954602184187,0.8016807672704723,-0.7747261397047144
1.6632270809574488,10.376523069051366,-0.028570379366304757,0.7853975636607785,-0.8030099175779241
1.6572727004770456,10.213290137591951,-0.02813800616134661,0.769201783571736,-0.8321832629492313
1.6514061591992328,10.053449359594445,-0.02773381553210664,0.7530913402140382,-0.8621512644443722
1.6456216486981359,9.896983023651796,-0.02735676066881813,0.7370642401921343,-0.8928197733709302
1.6399135829535347,9.743873827304498,-0.027005770232145,0.7211185821630725,-0.9240951863493538
1.63427660323919,9.594104857810684,-0.026679750856849954,0.705252555873231,-0.9558842260400693
1.6287055825176702,9.447659573077686,-0.026377589348101735,0.6894644415838854,-0.9880937189146868
1.6231956294050232,9.304521782671856,-0.026098154581870765,0.6737526099002143,-1.0206303689715719
1.6177420917665013,9.164675628819985,-0.025840299118337455,0.658115522022346,-1.0534005262389752
1.6123405600029348,9.028105567311286,-0.025602860534676964,0.6425517304414474,-1.086309948841855
1.6069868700862928,8.894796348203517,-0.025384662480961,0.6270598801087428,-1.1192635573307845
1.6016771064024706,8.764732996230467,-0.025184515460201545,0.6116387101107936,-1.1521651798821628
1.5964076044594238,8.637900790800334,-0.02500121733072152,0.5962870558904778,-1.1849172868775861
1.591174953519464,8.514285245465537,-0.024833553526038447,0.5810038520599798,-1.2174207132559127
1.5859759992158835,8.393872086733953,-0.024680296984251233,0.5657881358598685,-1.2495743669035957
1.580807846216111,8.276647232079316,-0.024540207775485007,0.5506390513271369,-1.2812749212066747
1.5756678609964014,8.162596766994234,-0.024412032412227735,0.5355558542450631,-1.3124164897311141
1.5705536747966675,8.051706920912796,-0.024294502823332807,0.5205379179591109,-1.3428902808270162
1.565463186828577,7.943964041810709,-0.024186334968004496,0.5055847401560024,-1.372584229767323
1.5603945678155147,7.839354569268959,-0.024086227061161307,0.4906959507178038,-1.401382605834578
1.5553462639496014,7.7378650057617335,-0.023992857376108633,0.47587132077957167,-1.4291655915631707
1.5503170013587524,7.639481885900381,-0.023904881584357766,0.4611107731380844,-1.4558088311342239
1.545305791185907,7.544191743331915,-0.023820929585598654,0.44641439418064177,-1.4811829447138658
1.5403119353932389,7.451981074952602,-0.023739601773144645,0.4317824475270962,-1.5051530053351005
1.5353350334165543,7.362836302053697,-0.023659464671467675,0.4172153896053346,-1.5275779747668952
1.5303749898094332,7.276743727967041,-0.02357904587254502,0.4027138874104239,-1.5483100947179063
1.5254320230332432,7.19368949172225,-0.023496828186405444,0.3882788387304467,-1.5671942297249906
1.5205066755683116,7.1136595171640415,-0.02341124290818221,0.3739113951572562,-1.584067158233886
1.5155998255436356,7.03663945690764,-0.023320662088733256,0.35961298823705773,-1.5987568087711665
1.5107127001081397,6.962614630431769,-0.023223389677894345,0.3453853591521919,-1.6110814388473318
1.5058468907962352,6.8915699555231065,-0.02311765138786152,0.33123059235887103,-1.6208487554846993
1.5010043711752359,6.823489872194148,-0.023001583097848114,0.3171511536312009,-1.6278549782651484
1.4961875171031975,6.758358258100802,-0.0228732175882294,0.3031499329721092,-1.6318838488772776
1.4913991299746685,6.696158334391043,-0.022730469350143726,0.2892302928351066,-1.6327055957904795
1.4866424633910245,6.636872560829254,-0.02257111716075343,0.27539612203908564,-1.6300758695829154
1.4819212537651012,6.58048251897462,-0.022392784038514645,0.26165189562409846,-1.6237346745879946
1.4772397554619738,6.526968782166094,-0.022192914086508513,0.24800274064756778,-1.6134053373148782
1.472602781197128,6.47631077111112,-0.02196874557868711,0.2344545074950295,-1.5987935735717351
1.4680157485725356,6.428486594037839,-0.02171727941743314,0.22101384558381904,-1.5795867472797964
1.463484733850092,6.383472870721977,-0.021435241748696154,0.2076882812339115,-1.555453458750467
1.4590165343720518,6.341244540347031,-0.02111903899454387,0.19448629376558046,-1.5260436645600757
1.454618741489821,6.301774654258395,-0.02076470274098847,0.18141738326903423,-1.4909896232625475
1.4502998265368399,6.26503415646004,-0.020367820620735735,0.16849211957244575,-1.4499080921529233
1.446069243409053,6.230991657506788,-0.019923447262947664,0.15572215617279928,-1.4024043846651901
1.441937552908928,6.199613211722674,-0.019425986071576824,0.14312018462828807,-1.3480791532815177
1.4379165765068973,6.170862114022221,-0.018869027281095147,0.1306997934712791,-1.2865391066901928
1.43401959112401,6.1446987417276375,-0.018245119222596633,0.11847518076283922,-1.217413311200279
1.4302615828096794,6.121080479297714,-0.017545436151979725,0.10646065190309374,-1.1403772427051722
1.4266595871381764,6.099961779907964,-0.01675928452899963,0.09466981847548295,-1.0551872428287006
1.423233159870195,6.081294435759819,-0.015873356118441716,0.08311441150684186,-0.9617282038637854
1.420005046119123,6.065028143190627,-0.014870584367959273,0.0718026605807037,-0.8600765106272926
1.417002154991776,6.051111444945079,-0.013728378749632038,0.06073732271021838,-0.7505772439399138
1.4142570088031494,6.039493080768342,-0.012415870665856803,0.04991376468726126,-0.6339274242513621
1.4118099447458705,6.030123625382217,-0.010889501308228884,0.03931914375201639,-0.5112436743801613
1.409712579144598,6.022956952701708,-0.009085409180080694,0.02893488177662014,-0.3840739789004841
1.4080337052658785,6.017950364125376,-0.006903865855343622,0.018746914188435,-0.2542978795857223
1.4068713911462054,6.015060411596899,-0.004165792427255519,0.00877644322562941,-0.12386479641620748
