x,y,v_x,v_y,omega
2.375,32.48,0.0,2.6666666666666665,-5.918367346938775
2.373973584443151,31.97858938286641,-0.010804374282620512,2.6113398294763335,-5.598876450846418
2.371024224295155,31.48750909585613,-0.020241522012071033,2.5579263495792746,-5.304740218973897
2.3663961157463613,31.006406321658908,-0.028475410080498455,2.5063133788125183,-5.033301849154611
2.360304346388797,30.53494876544731,-0.03564847789386251,2.456397739204321,-4.7822386569469835
2.3529386847576546,30.072822926714924,-0.041884802433952414,2.4080847737681643,-4.549513506743612
2.3444668182632165,29.61973257264345,-0.04729273961276218,2.3612873743526053,-4.333334264991642
2.3350371297394275,29.175397382489077,-0.05196713958501907,2.3159251535881715,-4.132119785087913
2.3247810862251312,28.739551738074407,-0.05599121319704771,2.271923734987295,-3.9444712425501556
2.3138153004202637,28.3119436398917,-0.05943811106471604,2.22921414062015,-3.7691478771696927
2.302243314727728,27.892333731839738,-0.062372264646183256,2.187732259926827,-3.6050463838796154
2.290157149311016,27.480494420434933,-0.06485052921394299,2.14741838643952,-3.451183339001093
2.277638648722913,27.07620907661155,-0.06692316118714106,2.108216811701358,-3.306680162888139
2.264760656053695,26.67927131007344,-0.06863465638357832,2.070075467647191,-3.1707502108450814
2.2515880389486216,26.289484307670378,-0.07002447103824479,2.0329456102797803,-3.04268765683202
2.2381785880535006,25.906660228514866,-0.07112764364724153,1.9967815387255818,-2.9218578928974903
2.22458380530692,25.530619649583933,-0.07197533263255307,1.96154034475795,-2.8076892145270995
2.2108495968853106,25.16119105640677,-0.07259528233175706,1.9271816886858288,-2.699665600506983
2.1970168834246917,24.798210374156056,-0.07301222778001748,1.8936675981638231,-2.5973204272765087
2.1831221383131245,24.44152053506391,-0.07324824707858726,1.8609622870166855,-2.500230983490429
2.16919786330813,24.09097107859416,-0.07332306876345979,1.829031991612217,-2.4080136717270486
2.1552730094334356,23.746417781236353,-0.07325434044384903,1.797844822680516,-2.320319801833129
2.1413733500085534,23.407722313157656,-0.07305786402859693,1.7673706307794217,-2.236831894975409
2.1275218117297405,23.07475191926713,-0.07274780206416888,1.7375808838576983,-2.157260429620523
2.1137387689246174,22.747379122520705,-0.07233685904238933,1.7084485555783602,-2.0813409708282404
2.1000423054227966,22.425481447532768,-0.07183644097677855,1.6799480232420088,-2.00883163277035
2.0864484479028866,22.10894116276627,-0.07125679607490429,1.6520549743000803,-1.939510831564407
2.072971374076886,21.797645039753107,-0.07060713893562888,1.624746320575309,-1.8731752915695383
2.0596235986435802,21.491484127953996,-0.06989576036232455,1.5980001194153335,-1.8096382734193752
2.0464161395725338,21.190353544005195,-0.06913012459606124,1.5717955010983833,-1.7487279964193174
2.0333586669607264,20.894152274221305,-0.06831695552822527,1.5461126018899098,-1.690286231638644
2.0204596364274394,20.602782989331057,-0.06746231324321997,1.5209325022179851,-1.6341670451869177
2.007726408773328,20.316151870518325,-0.06657166206321266,1.4962371694949894,-1.5802356738651244
1.9951748130627944,20.034172712147768,-0.06555039804766957,1.471964497563512,-1.5250612982724063
1.9828182452394523,19.756762268329076,-0.0645187369348783,1.4481454373700642,-1.4723257713850149
1.9706583922351815,19.48383585593676,-0.0634797157416565,1.424764166759599,-1.421893003570553
1.9586963961810062,19.215311730830123,-0.062436032197029964,1.4018055712049988,-1.3736359383440462
1.9469329155676853,18.95111095722491,-0.061390079522138104,1.3792552035867405,-1.3274358568557751
1.935368180145222,18.691157284445417,-0.060343977556422713,1.3570992467237164,-1.2831817431381942
1.9240020402170672,18.435377030555507,-0.05929960063467962,1.3353244784332003,-1.2407697041817274
1.9128340109124413,18.18369897240708,-0.05825860257191104,1.313918238918688,-1.200102439548218
1.9018633119563404,17.936054241681028,-0.05722243907125472,1.29286840030288,-1.1610887557944682
1.8910889034003617,17.692376226528985,-0.05619238783378433,1.272163338139651,-1.123643121476306
1.8805095177275384,17.452600478454116,-0.0551695666169876,1.2517919047537212,-1.087685258944246
1.8701236887001633,17.216664624096854,-0.05415494946064491,1.2317434042700874,-1.0531397695322564
1.8599297772803585,16.984508281616503,-0.05314938127414442,1.212007569207287,-1.0199357890875964
1.849925994918348,16.75607298138247,-0.05215359095754343,1.1925745385193711,-0.9880066710975368
1.8401104244724749,16.531302090709914,-0.05116820320954187,1.1734348369812375,-0.9572896949426838
1.830481038997497,16.31014074239372,-0.05019374915864672,1.1545793558207764,-0.9277257970506473
1.8210357186132307,16.092535766812365,-0.04923067593889346,1.1359993345092714,-0.8992593229414777
1.8117722656437967,15.878435627389255,-0.048279355318306974,1.1176863436287225,-0.8718377983507131
1.8026884181982787,15.667790359214102,-0.04734009147661721,1.0996322687413191,-0.8454117177897323
1.7937818623462511,15.460551510640414,-0.0464131280184097,1.0818292951922466,-0.81993434905876
1.7850502430261233,15.256672087687818,-0.04549865429872606,1.0642698937824369,-0.795361552367375
1.7764911738103948,15.05610650108947,-0.044596811129994966,1.046946807252801,-0.7716516128425672
1.7681022456395104,14.858810515835486,-0.043707695931947,1.0298530375259893,-0.748765085316834
1.7598810346249,14.664741203073213,-0.04283136737973998,1.0129818336558298,-0.7266646503899474
1.7518251090118437,14.473856894234267,-0.04196784959980145,0.9963266804383475,-0.705314980849058
1.7439390680744418,14.28632570979163,-0.04104310763600834,0.9776857873788796,-0.7283299650186807
1.7362244386917045,14.102325572811615,-0.04016351744543513,0.959157759779179,-0.7530004179003901
1.7286727536229565,13.92183532246231,-0.039327904330858816,0.9407396123187692,-0.7792100153475487
1.721275772937474,13.744834353555266,-0.03853505025317056,0.9224284814395836,-0.8068448084680998
1.7140254917718747,13.571302593790701,-0.03778369885839905,0.9042216213453124,-0.8357929670654335
1.7069141471771148,13.401220481722408,-0.03707256003380987,0.8861164004262009,-0.8659445277927319
1.6999342241415736,13.234568945362295,-0.03640031402451938,0.8681102981013106,-0.8971911459492143
1.6930784608710465,13.071329381345713,-0.03576561513892285,0.8502009020732365,-0.9294258498487933
1.6863398534013663,12.91148363457939,-0.035167095068236794,0.8323859059933287,-0.9625427966857375
1.6797116596148398,12.755013978293853,-0.034603365842570497,0.8146631075386368,-0.996437028807816
1.6731874027276965,12.601903094421694,-0.034073022443146264,0.797030406905127,-1.031004229284795
1.6667608743122797,12.452134054221808,-0.03357464508755801,0.7794858057252515,-1.0661404756287112
1.6604261369147462,12.305690299067845,-0.03310680120226845,0.7620274064217334,-1.1017419904816184
1.654177526326613,12.162555621316496,-0.032668047093870424,0.7446534120135287,-1.1377048880359641
1.6480096535665398,12.022714145167743,-0.032256929327951704,0.727362126394394,-1.1739249148918198
1.641917406627325,11.88615030742488,-0.031871985821676906,0.7101519551094048,-1.2102971839831789
1.6358959520421923,11.752848838056767,-0.03151174665340537,0.693021406660213,-1.2467159001217258
1.6299407363240908,11.622794740458339,-0.031174734589768785,0.6759690943758931,-1.2830740756100982
1.6240474873319406,11.495973271297792,-0.03085946532760223,0.6589937388930178,-1.3192632342669028
1.6182122156185508,11.372369919829815,-0.03056444744492081,0.642094171296231,-1.355173102081851
1.61243121581637,11.251970386543647,-0.030288182051719743,0.6252693369792057,-1.3906912825806435
1.6067010681193246,11.13476056100254,-0.030029162127704012,0.6085183002956134,-1.425702914825126
1.6010186399218358,11.020726498716783,-0.02978587153007435,0.5918402500807896,-1.4600903118045263
1.595381087679714,10.90985439687606,-0.029556783650153122,0.5752345061373293,-1.4937325767884817
1.5897858590621277,10.802130568747764,-0.029340359692863534,0.5587005267921131,-1.5265051950130142
1.5842306954692638,10.697541416525908,-0.029135046547806378,0.5422379176484767,-1.5582795978586335
1.5787136349968136,10.596073402390118,-0.0289392742148276,0.5258464416756448,-1.5889226964589231
1.573233015936063,10.497713017505085,-0.028751452740441455,0.5095260307984111,-1.6182963814541897
1.5677874809073764,10.402446748657741,-0.028569968614154995,0.4932767991736102,-1.646256985387205
1.5623759817353098,10.310261042191438,-0.02839318056549509,0.4770990583664168,-1.672654704040647
1.5569977851857333,10.221142264853064,-0.028219414693204346,0.4609933346690842,-1.697332972859157
1.5516524796993718,10.135076661119946,-0.028046958847441777,0.44496038883742856,-1.720127794513143
1.5463399832723694,10.052050306517572,-0.02787405617363424,0.42900123855599603,-1.7408670136902682
1.541060552653184,9.972049056376566,-0.02769889771252903,0.41311718398089603,-1.7593695354069292
1.5358147940467137,9.895058489407258,-0.027519613934526163,0.39730983674864073,-1.7754444836061916
1.5306036755415815,9.821063845392722,-0.027334265066866287,0.38158115287804334,-1.7888902976797085
1.5254285415055953,9.750049956216746,-0.027140830048779423,0.3659334700269597,-1.7994937660034986
1.5202911292284766,9.682001169353036,-0.026937193920889863,0.3503695495910298,-1.8070289978743521
1.5151935881311895,9.616901262848678,-0.026721133418974356,0.3348926241390523,-1.8112563387510667
1.5101385019093172,9.554733350743152,-0.026490300495471776,0.31950645065595573,-1.811921238979971
1.5051289140363835,9.495479777781867,-0.026242203430146178,0.3042153699891555,-1.8087530939857588
1.5001683571253988,9.439122002222934,-0.02597418510653397,0.2890243727364498,-1.8014640853364752
1.4952608867386865,9.385640465517927,-0.02568339791148984,0.2739391715267777,-1.7897480687204108
1.490411120355547,9.335014447702768,-0.025366774542610694,0.25896627915910847,-1.7732795789561395
1.4856242823674888,9.287221907511498,-0.025020993752738738,0.24411309127530825,-1.7517130569128734
1.4809062561919255,9.242239306595671,-0.024642439674243285,0.22938797099656472,-1.7246824532211467
1.476263644909611,9.200041417903478,-0.024227152771174973,0.214800331026533,-1.691801435352729
1.4717038422900548,9.160601119405072,-0.023770769539941058,0.20036070579878856,-1.6526645270044913
1.467235116755135,9.123889176175712,-0.023268446617108453,0.18608080187868908,-1.6068496538761796
1.462866711876618,9.089874016695926,-0.02271476263043694,0.17197350843485942,-1.5539227736246195
1.458608968621601,9.058521513550392,-0.022103587422373807,0.15805284046549112,-1.493445548734981
1.4544734770933094,9.029794785090388,-0.021427902349116682,0.14433377490295823,-1.424987397557011
1.45047326950949,9.003654043746735,-0.02067954590161464,0.1308319234512868,-1.348143738380632
1.446623072479185,8.980056529134284,-0.01984884389106992,0.11756296720610664,-1.262562795645851
1.4429396466216788,8.958956579890394,-0.01892405987215281,0.10454176167693295,-1.1679838454146574
1.4394422572665486,8.940305915623828,-0.0178905649186935,0.09178102007640059,-1.0642899137675346
1.436153344483528,8.924054213583592,-0.016729569639417116,0.07928952771556592,-0.9515769817696166
1.4330994989089105,8.910150059374455,-0.015416173251294895,0.0670699902753314,-0.830238312687796
1.430312910861794,8.898542297761054,-0.013916332507825655,0.05511697407626306,-0.7010544774709965
1.427833567025786,8.889181655768379,-0.012182023660678663,0.04341609953084219,-0.5652649949424119
1.4257126980630361,8.882022170955342,-0.010142912789320925,0.031946898501130964,-0.42457744266572517
1.424018636288252,8.877021263577753,-0.007689316418932069,0.020694231789271766,-0.2810541032194125
1.4228488246128839,8.874135498911038,-0.0046244906902058085,0.009682238386669206,-0.1368231881186411
1.4223688075472107,8.873298911406454,-0.0004283205274070046,-0.0008760541278854707,0.0063193207982924215
