x,y,v_x,v_y,omega
2.375,32.48,0.0,2.2051282051282053,-7.755102040816326
2.3740726567441146,32.086709510176014,-0.010303813954283913,2.1647661262494178,-7.411861316255157
2.371389825662387,31.700579833238212,-0.019505420287129524,2.125563617503911,-7.090329894189439
2.3671400281657933,31.321407882136203,-0.027714551897248564,2.087458061407309,-6.788639859943841
2.3614931322245565,30.949001379766205,-0.03502873633871484,2.0503919649259825,-6.505121338020525
2.3546024078837466,30.58317798922978,-0.041534867448060425,2.014312374367594,-6.238277608080646
2.346606321118082,30.223764541833045,-0.04731054105932606,1.979170374485056,-5.986763864141397
2.3376301047949415,29.870596348946876,-0.05242519586445866,1.9449206575834943,-5.74936900382011
2.3277871388583575,29.523516586164096,-0.05694109231980642,1.91152115111406,-5.524999951404078
2.317180166495627,29.182375740070384,-0.06091415615497597,1.8789326943716413,-5.312668110583455
2.3059023687156865,28.847031109481815,-0.06439470806658742,1.8471187566124512,-5.1114776156765025
2.2940383162370948,28.51734635426258,-0.06742809725109922,1.8160451902679506,-4.920615108446196
2.2816648146869585,28.19319108587605,-0.07005525330596905,1.7856800140267866,-4.739340814424571
2.2688516567221093,27.874440494683817,-0.07231316852568592,1.7559932214424645,-4.566980730506753
2.255662292700641,27.560975009723972,-0.07423532060173772,1.726956611444723,-4.402919766346189
2.242154429877556,27.252679987299082,-0.07585204409920841,1.6985436377206955,-4.246595707235966
2.2283805687113425,26.949445425206935,-0.07719085774760927,1.6707292744142874,-4.09749388682966
2.214388483700123,26.651165699870603,-0.07827675348816242,1.6434898959894269,-3.955142475121766
2.2002216551777263,26.357739323982734,-0.07913245231624506,1.616803169431327,-3.8191083012654987
2.1859196576604822,26.069068722582983,-0.07977863120868856,1.5906479572325634,-3.6889931426021967
2.1715185096195464,25.785060025746635,-0.08023412480171085,1.5650042298379818,-3.5644304211463886
2.1570509889407057,25.505622876284093,-0.08051610496318555,1.5398529864124582,-3.445082257061315
2.1425469178072403,25.230670251041023,-0.08064024096421095,1.515176182955013,-3.3306368356500147
2.128033420287835,24.960118294552533,-0.08062084258473198,1.4909566669170844,-3.2208060503020803
2.113536190297527,24.69389598482578,-0.08045949064091587,1.4670689967135446,-3.1122120504919777
2.0990767076220656,24.43193477078357,-0.08020142797532183,1.4436111593109577,-3.008238708672749
2.084671540615529,24.17415862852574,-0.07985598320841722,1.4205681991094319,-2.9086365943350803
2.07033565118803,23.920494164801532,-0.07943167709712608,1.3979258422706429,-2.8131723406394196
2.056082533725159,23.67087049796679,-0.0789362947125528,1.3756704558931323,-2.721627437304162
2.0419243416388206,23.42521914601587,-0.07837695069120716,1.3537890102282013,-2.633797127235437
2.0278720027310477,23.18347392116577,-0.07776014828404815,1.3322690436617843,-2.5494893968288332
2.0139353244294815,22.945570830516694,-0.07709183284446429,1.3110986302168597,-2.4685240509670066
2.0001230898443505,22.711447982355082,-0.07637744032365738,1.290266349356573,-2.39073186469878
1.986443145500173,22.481045497702816,-0.075621941278317,1.269761257890816,-2.315953804432683
1.9729024815095502,22.254305426749845,-0.07482988083971319,1.249572863808907,-2.244040312225831
1.959507304879986,22.031171669837967,-0.07400541504433468,1.2296911018786196,-2.17485064741048
1.9462631065765206,21.811589902690823,-0.07315234388305794,1.2101063108674042,-2.1082522803865458
1.9331747229021454,21.595507505609763,-0.07227414138777746,1.1908092122554907,-2.0441203339283094
1.920246391703573,21.382873496377712,-0.0713739830408035,1.1717908903228804,-1.9823370678156351
1.9074818038612693,21.173638466633363,-0.07045477076257321,1.1530427735032083,-1.9227914030113857
1.894884150479022,20.967754521496417,-0.06951915570683992,1.1345566169072647,-1.865378481973442
1.882456166149189,20.765175222241268,-0.06856955906908405,1.1163244859277304,-1.8099992620171461
1.8702001686345953,20.565855531831765,-0.06760819109306546,1.098338740844534,-1.756560138936722
1.8581180952764487,20.369751763143604,-0.06663706844189753,1.080592022357301,-1.7049725983563
1.8462115364091634,20.17682152971345,-0.06565803008349502,1.063077237977698,-1.655152892516117
1.8344817660373542,19.98702369886564,-0.06467275182549467,1.045787549220193,-1.6070217404103562
1.8229297700071192,19.800318347077685,-0.0636827596215618,1.0287163595348974,-1.5605040493826243
1.8115562718828508,19.616666717455768,-0.06268944175919883,1.0118573029308207,-1.5155286564556123
1.8003617567219485,19.436031179200207,-0.06169406002860319,0.9952042332420665,-1.4720280878251266
1.7893536898996891,19.25861820222979,-0.06061779355205571,0.9760510664292581,-1.4821947669935238
1.778536196822139,19.08464217204895,-0.05957657397628177,0.9570159355800171,-1.494182209673027
1.7679030342830324,18.91408211818707,-0.05856967645823511,0.9380957739964412,-1.5078601110030025
1.7574480960616974,18.74691760994096,-0.057596303778819684,0.9192876509603307,-1.5231006369849205
1.747165425379237,18.58312873225602,-0.05665559269296045,0.9005887677612309,-1.539778141871599
1.7370492262598582,18.4226960622786,-0.055746619744580915,0.8819964542101096,-1.5577688901849278
1.7270938738906425,18.26560064649271,-0.054868406580040587,0.8635081656331102,-1.5769507822027853
1.7172939240673046,18.11182397835484,-0.05401992479037754,0.8451214803432537,-1.597203081758531
1.7076441218083036,17.961347976340708,-0.05320010030963336,0.8268340975915209,-1.6184061451911855
1.6981394092150142,17.814154962317254,-0.05240781739358564,0.8086438360024379,-1.6404411502711749
1.6887749326515595,17.670227640151744,-0.051641922200352956,0.7905486325031948,-1.6631898239052096
1.6795460493142886,17.529549074468108,-0.050901225991545986,0.7725465417594661,-1.6865341673943781
1.670448333257759,17.392102669457554,-0.05018450796989191,0.7546357361355517,-1.7103561779817247
1.6614775809414808,17.25787214764724,-0.04949051776653406,0.7368145062012583,-1.7345375653793187
1.6526298163595297,17.126841528525944,-0.04881797758847963,0.7190812618131733,-1.7589594619099975
1.6439012958135146,16.998995106920425,-0.04816558403391018,0.7014345338037048,-1.7835021248355576
1.63528851238824,16.87431743100951,-0.04753200958025477,0.6838729763175617,-1.808044629371235
1.6267882001887846,16.752793279855123,-0.04691590374702542,0.6663953698422999,-1.8324645508061506
1.6183973383976364,16.63440764032046,-0.046315893932397614,0.6490006249872693,-1.8566376340615118
1.610113155210979,16.51914568323496,-0.04573058591935054,0.6316877870738501,-1.880437448923735
1.6019331317142933,16.40699273865347,-0.04515856404382504,0.6144560416093747,-1.9037350290897885
1.5938550057591099,16.297934270043136,-0.04459839101376819,0.5973047207277019,-1.926398493059312
1.585876775905105,16.19195584721544,-0.04404860736406442,0.5802333106911434,-1.9482926448059048
1.5779967054948059,16.089043117802706,-0.04350773052814641,0.5632414605614422,-1.9692785520634526
1.5702133269320506,15.98918177705761,-0.042974253502468,0.546328992161845,-1.9892130999797002
1.5625254462400853,15.89235753573092,-0.04244664307492522,0.5294959114680359,-2.0079485178286633
1.5549321479809053,15.798556085756346,-0.041923337582629464,0.5127424215828039,-2.0253318764502306
1.5474328006242448,15.707763063441803,-0.04140274415804393,0.49606893746768177,-2.04120455411934
1.5400270624626504,15.619964009833538,-0.04088323541522623,0.4794761026241681,-2.0554016686660717
1.5327148881785195,15.535144327883028,-0.0403631455195624,0.46296480793706285,-2.0677514739100973
1.5254965361800414,15.453289236006604,-0.03984076557463878,0.44653621291208856,-2.0780747188909463
1.51837257683597,15.37438371758429,-0.03931433824837785,0.43019176955805893,-2.0861839690422035
1.511343901754413,15.29841246589801,-0.03878205154670025,0.41393324917837576,-2.0918828894733945
1.504411734268873,15.225359823960947,-0.03824203162596634,0.39776277234454727,-2.094965492026119
1.4975776413162634,15.155209718641032,-0.03769233451414008,0.38168284232116473,-2.0952153499516184
1.4908435469174923,15.08794558843497,-0.03713093658331442,0.36569638219062617,-2.0924047871784106
1.484211747502754,15.023550304208886,-0.03655572358044337,0.34980677587699033,-2.0862940535640084
1.477684929362753,14.962006082193994,-0.03596447797512592,0.33401791317734275,-2.076630503755432
1.4712661885564158,14.903294388520063,-0.0353548643175078,0.3183342387552128,-2.0631478060116955
1.464959053669174,14.847395834599727,-0.03472441220740335,0.30276080480409057,-2.0455652195229304
1.4587675118994712,14.794290062763693,-0.03407049634484905,0.2873033267073813,-2.023586995710504
1.4526960390635573,14.74395562172008,-0.03339031294308347,0.2719682404438664,-1.9969019825140302
1.4467496342629793,14.696369831713405,-0.03268085150778205,0.2567627596302856,-1.9651835432210762
1.4409338601754453,14.651508639751263,-0.03193886057592731,0.24169492883794452,-1.9280899462826542
1.4352548902381028,14.609346466034971,-0.03116080539454528,0.22677366800975568,-1.8852654441591523
1.4297195644388205,14.569856043893395,-0.030342814597481216,0.21200880022996343,-1.8363423431768726
1.4243354560859562,14.53300825723744,-0.02948061154545456,0.19741105150285074,-1.7809444794965212
1.4191109528971857,14.498771982036146,-0.02856942388533105,0.1829920062892927,-1.7186926661697763
1.4140553571953594,14.467113941823307,-0.027603861690517296,0.16876399607560444,-1.6492128694770496
1.4091790121683045,14.437998592062673,-0.026577749721203813,0.15473989015365272,-1.5721481106945299
1.4044934644041105,14.411388054575362,-0.02548389210317295,0.1409327485942648,-1.4871753590840584
1.4000116777886467,14.387242131196349,-0.024313736957535772,0.12735528895032594,-1.3940289370712589
1.395748321119727,14.365518434827237,-0.02305689269712552,0.11401911515089637,-1.2925320852452014
1.3917201625510391,14.346172684236361,-0.02170042473274205,0.10093366919215196,-1.182638092943144
1.387946619810858,14.329159211897313,-0.02022782793593435,0.08810491235283915,-1.0644813433672562
1.3844505385369255,14.314431722869784,-0.018617519552208944,0.07553385461968029,-0.9384360326259035
1.3812593069098549,14.301944301132501,-0.01684060963746313,0.06321527579459983,-0.8051752973151471
1.3784064756654155,14.291652562247368,-0.014857515300752466,0.05113737848467582,-0.665715483939602
1.3759341779724297,14.283514659390168,-0.012612459065755213,0.03928376437309413,-0.5214205007988002
1.3738969715338318,14.277491491202309,-0.010023168029778522,0.027640326603134653,-0.3739342813985013
1.3723688159541514,14.273544665274176,-0.006956338411115385,0.01621329482057412,-0.2250130143686943
1.3714599479781486,14.271627748556579,-0.0031421946555818857,0.005085779819379344,-0.07625551000538891
