x,y,v_x,v_y,omega
2.375,32.48,0.0,3.7435897435897436,-4.938775510204081
2.37343164650729,31.70503837331103,-0.014936699930569602,3.636997177257555,-4.543021529661921
2.369012976199993,30.951879931889916,-0.027145874424643016,3.5359403600863883,-4.195381273457662
2.3622662359306017,30.219409430484802,-0.03710879480765508,3.439969177105179,-3.8883792816206246
2.3536222406784075,29.50660085818355,-0.04521496949895646,3.348683892430548,-3.6159020187549
2.3434376326619284,28.81250764072383,-0.05178129732465399,3.2617277024239497,-3.37291725104338
2.3320085771818544,28.136254258924595,-0.05706685010461976,3.1787806956639786,-3.1552575860666225
2.3195816989064424,27.477029022043666,-0.06128437156597047,3.0995548936781985,-2.9594520839227636
2.3063628648900543,26.834077794043775,-0.06460928573296552,3.023790134892215,-2.7825942402964547
2.292524275863397,26.206698514175745,-0.06718680023520149,2.9512506257556876,-2.6222377371127625
2.2782102200223515,25.5942363856904,-0.06913754110808715,2.8817220264856833,-2.476313566702951
2.263541763203941,24.99607963104692,-0.07056204763867907,2.815008970118887,-2.343063732942502
2.248620588662388,24.41165573086456,-0.07154437656658616,2.7509329363797823,-2.220987900048781
2.2335321534670123,23.840428078573048,-0.07215500624651892,2.689330418777494,-2.1088002209945875
2.218348293122849,23.281892994316525,-0.07245318750741474,2.6300513360465394,-2.0053942187589726
2.2031293786708814,22.735577050916355,-0.07248885489227747,2.5729576487170123,-1.9098140750770027
2.187926109284704,22.201034672150577,-0.07230418688084186,2.5179221490522936,-1.821231045589724
2.1727810067861997,21.67784596966791,-0.0719348845334852,2.4648273984016624,-1.7389239978456374
2.157729665467799,21.165614789823614,-0.07141122326080587,2.413564790591614,-1.6622632815191303
2.142801800317423,20.663966945831355,-0.07075892102848952,2.3640337236204116,-1.5906973045728783
2.128022128577587,20.172548614042704,-0.0699998574461412,2.316140864842922,-1.5237413167272142
2.1134111130631865,19.69102487602836,-0.06915267126243328,2.269799497198438,-1.4609680012740058
2.0989855904540677,19.21907839054633,-0.06823325834821999,2.224928935963789,-1.4019995545271342
2.0847593035921648,18.756408181524726,-0.06725518795561947,2.1814540070990844,-1.3465009939516652
2.070743353434877,18.302728529925105,-0.06623005163759635,2.13930457956396,-1.2941744849764771
2.0569465835800815,17.85776795883831,-0.06516775650331147,2.098415145072228,-1.2447545154983715
2.043375908053727,17.42126830244095,-0.0640767723191133,2.058724439664495,-1.1980037782932886
2.0300365912363185,16.992983850540487,-0.062964340227634,2.020175102244698,-1.153709646626578
2.016932487319301,16.57268056138804,-0.061836649458246254,1.9827133658738376,-1.1116811485863898
2.004066245462702,16.16013533626414,-0.06069898727126934,1.9462887781633036,-1.0717463620521546
1.9914394858207949,15.755135350061305,-0.0595558664611794,1.9108539475779969,-1.0337501655345727
1.9790529507726002,15.357477432715378,-0.05841113399781777,1.876364312859406,-0.9975522909967993
1.9669066350064093,14.966967496887325,-0.05726806377542893,1.8427779331220404,-0.9630256336708398
1.9549998975362288,14.583420007779935,-0.056129435940575206,1.8100552964721435,-0.930054781199965
1.943331558252131,14.206657491398811,-0.054997604860354765,1.7781591452528556,-0.8985347304700988
1.9318999812090205,13.836510077941945,-0.05387455745498518,1.7470543162411079,-0.868369765482058
1.920703146525527,13.4728150773337,-0.05276196334018948,1.716707594313609,-0.8394724737554176
1.909738712485428,13.115416584212777,-0.05166121799408861,1.68708757826659,-0.8117628821987732
1.8990040691990164,12.764165109944678,-0.05057347997173465,1.6581645576200637,-0.7851676962552824
1.888496384983733,12.418917239461223,-0.049499703030964674,1.629910399365222,-0.759619628537662
1.8782126464559599,12.079535310936667,-0.048440663900207875,1.60229844372578,-0.7350568051853071
1.8681496931841397,11.745887116494675,-0.04739698630760288,1.5753034081027018,-0.711422239874587
1.8583042476331038,11.417845622305734,-0.04636916179750203,1.548901298458645,-0.6886633668461373
1.8486729410272487,11.095288706582682,-0.045357567782070604,1.5230693274751703,-0.6667316255247144
1.839252335673112,10.77809891411501,-0.04436248320970644,1.4977858388836205,-0.6455820903344868
1.830051813475985,10.466164536490062,-0.043261537715312444,1.473017757544457,-0.621658450548777
1.8210795552606287,10.159377996336268,-0.042188540526175676,1.4487588153488336,-0.5988680138855927
1.8123297400408322,9.857634341067275,-0.04114303299569416,1.4249902824511,-0.5771433602125778
1.8037966476187084,9.56083245830957,-0.040124513881676684,1.4016943152413421,-0.5564218424860983
1.7954746666000772,9.268874895307658,-0.03913244820052539,1.3788539038244936,-0.5366451953838071
1.7873583006827252,8.981667688970152,-0.03816627482187516,1.3564528231993787,-0.5177591802923234
1.7794421734641785,8.69912020581149,-0.03722541297380534,1.3344755878354881,-0.4997132628854207
1.7717210319823633,8.421144991104565,-0.036309267805387235,1.3129074093733182,-0.4824603199571668
1.7641897491738003,8.14765762661445,-0.035417235133307974,1.2917341571992178,-0.4659563725502376
1.7568433254091802,7.878576596333367,-0.03454870548212167,1.2709423216682374,-0.4501603427492798
1.7496768892447028,7.613823159682486,-0.03370306751290238,1.2505189797687293,-0.43503383179884353
1.7426856975090004,7.353321231687499,-0.03287971092235704,1.2304517630406835,-0.42054091746028943
1.7358651348293854,7.096997269672723,-0.03207802888349974,1.2107288275762182,-0.4066479687467061
1.7292107126872165,6.844780166052946,-0.03129742008953809,1.1913388259454647,-0.3933234763731338
1.7227180680800966,6.596601146833702,-0.030537290454461897,1.1722708809044808,-0.3805378974346246
1.716382961858117,6.352393675459567,-0.029797054516770977,1.1535145607539419,-0.3682635129797678
1.7102012767922552,6.112093361676429,-0.02907613658667627,1.1350598562283247,-0.35647429728477736
1.7041690154251126,5.875637875097905,-0.028373971671823494,1.1168971588052454,-0.3451457977552371
1.6982822977473104,5.64296686318832,-0.027690006212007907,1.0990172403336371,-0.33425502449101663
1.6925373587368653,5.414021873395086,-0.027023698649374883,1.0814112338876525,-0.3237803486463378
1.68693054579368,5.188746279182016,-0.026374519857150953,1.0640706157606323,-0.31370140880291647
1.6814583160967493,4.96708520973252,-0.025741953446952497,1.0469871885202748,-0.3039990246507627
1.6761172339077475,4.748985483107397,-0.02512549597211282,1.0301530650523245,-0.2946551173396887
1.6709039678412445,4.5343955426567,-0.02452465704220091,1.0135606535257464,-0.28565263592578577
1.6658152881188104,4.323265396498659,-0.023938959361930964,0.9972026432175065,-0.27697548939192634
1.660852914989428,4.1156802747060155,-0.023321737108379117,0.9797985167124391,-0.29408294972783583
1.6560165044896926,3.9117379041382563,-0.022739315270053073,0.9625097744090781,-0.3131261282323524
1.6512987839661046,3.711414392367697,-0.02219135638316571,0.9453331948343412,-0.33399347365900556
1.6466925606466187,3.514686510301054,-0.021677437135748292,0.9282656819908432,-0.35657650867729
1.6421907388303416,3.3215316663844803,-0.021197056352605645,0.911304260071766,-0.3807695885224164
1.6377863354690523,3.131927881875253,-0.020749642326340575,0.8944460685875484,-0.4064696674444839
1.6334724942728958,2.945853767095482,-0.0203345595418143,0.8776883578864567,-0.433576072022301
1.629242498463074,2.7632884985867854,-0.019951114837440397,0.8610284850535139,-0.46199028043355644
1.6250897822856278,2.5842117970878284,-0.019598563043000523,0.8444639101746308,-0.4916157067932735
1.6210079413924428,2.4086039062592057,-0.019276112130192206,0.8279921929551141,-0.522357489686525
1.6169907421883436,2.2364455720820935,-0.01898292790884512,0.8116109896840411,-0.5541222840292447
1.6130321302365571,2.0677180228587453,-0.018718138298646814,0.7953180505383366,-0.5868180553925703
1.609126237808855,1.9024029497438306,-0.018480837203276958,0.7791112172227608,-0.6203538759213582
1.6052673906613522,1.7404824877362692,-0.01827008801103703,0.762988420944479,-0.6546397209661248
1.6014501141121409,1.5819391970611392,-0.01808492674335597,0.746947680723441,-0.689586265529399
1.597669138492746,1.4267560448707144,-0.01792436486992891,0.7309871020424971,-0.7251046796019899
1.5939194040417017,1.2749163871926257,-0.01778739180668135,0.7151048758440595,-0.7611064214315258
1.590196065305427,1.1264039510512625,-0.01767297711022208,0.6992992778832122,-0.7975030277243155
1.586494495108961,0.981202816686217,-0.01758007237992893,0.6835686684505463,-0.8342058997315044
1.5828102881570594,0.8392973997883324,-0.017507612876277525,0.6679114924816861,-0.871126084110966
1.5791392643245983,0.7006724336699257,-0.017454518861446482,0.6523262800745578,-0.9081740473865934
1.5754774716942601,0.5653129512808981,-0.0174196966655847,0.6368116474399875,-0.9452594427457623
1.5718211893990393,0.43320426697648884,-0.017402039479375856,0.6213662983162993,-0.9822908678227587
1.5681669303272867,0.30433195793542467,-0.017400427870648535,0.6059890258842995,-1.019175612009835
1.5645114437487981,0.17868184511889496,-0.017413730019720193,0.5906787152254968,-1.0558193917171792
1.5608517179219141,0.05623997365097466,-0.017440801664888754,0.5754343463737375,-1.092126071867252
1.557184982743776,-0.06300740751024136,-0.017480485745951617,0.5602549980187846,-1.127997371756528
1.5535087125088234,-0.17907386675485526,-0.017531611729787722,0.5451398519298947,-1.1633325532475338
1.5498206288444236,-0.29197281201621905,-0.01759299459782735,0.5300881981783446,-1.1980280890652812
1.5461187038972395,-0.4017175141562319,-0.017663433470592797,0.5150994412503473,-1.2319773087640762
1.5424011638496957,-0.50832113173891,-0.017741709839348446,0.500173107156108,-1.2650700197031526
1.5386664928528013,-0.6117967374143092,-0.017826585369169177,0.48530885165719995,-1.2971921001233004
1.5349134374697493,-0.7121573461624067,-0.01791679923132698,0.47050646975327015,-1.3282250611536413
1.5311410117343116,-0.8094159456785164,-0.01801106491569898,0.4557659065906572,-1.3580455743018285
1.5273485029392553,-0.9035855292184536,-0.01810806646578927,0.4410872699801611,-1.3865249606989865
1.5235354782830202,-0.9946791312639931,-0.01820645406978352,0.4264708447392899,-1.4135286380935608
1.5197017925179757,-1.0827098664177655,-0.01830483893064183,0.41191710910613766,-1.4389155213329414
1.51584759676099,-1.1676909719922364,-0.018401787326365607,0.397426753507863,-1.4625373718640458
1.5119733486471336,-1.249635854821257,-0.018495813757979023,0.3830007020066153,-1.4842380916625335
1.5080798240305002,-1.328558142894849,-0.018585373067101004,0.36864013678949825,-1.5038529570218455
1.5041681304628411,-1.4044717424999362,-0.018668851386795006,0.3543465261160921,-1.5212077878811658
1.5002397227115822,-1.477390901641627,-0.018744555768053332,0.3401216561857197,-1.536118048967254
1.4962964206145488,-1.5473302806217362,-0.01881070229893098,0.3259676674343364,-1.5483878801456779
1.4923404296103744,-1.6143050307627078,-0.018865402502731377,0.3118870958129824,-1.5578090552790103
1.4883743643323792,-1.67833088238406,-0.018906647763887473,0.29788291962844526,-1.5641598719457555
1.4844012757115173,-1.7394242432606646,-0.01893229148241615,0.2839586125296913,-1.5672039791254062
1.4804246821033251,-1.7976023089102924,-0.018940028595605576,0.27011820318104374,-1.5666891571888426
1.4764486050384873,-1.852883186158948,-0.01892737202189638,0.25636634204422326,-1.5623460753939387
1.472477610302312,-1.9052860314956916,-0.0188916254654881,0.2427083754485627,-1.5538870682405699
1.468516855183888,-1.9548312057201116,-0.018829851852835602,0.22915042668878174,-1.541004995914793
1.4645721429148018,-2.001540446252257,-0.01873883642417597,0.21569948314116483,-1.5233722891810095
1.4606499855620663,-2.0454370581342403,-0.018615043125687993,0.20236348716345576,-1.500640330587325
1.4567576769860622,-2.086546124078339,-0.018454562360063792,0.18915142658986348,-1.4724393991191798
1.4529033779800407,-2.124894732716278,-0.018253047221092854,0.17607341758099262,-1.4383795149923628
1.449096216468812,-2.160512222192878,-0.018005633838229767,0.16314076791041543,-1.398052679799325
1.4453464068188304,-2.193430433006043,-0.017706839018737687,0.15036600173879341,-1.351037234438796
1.4416653941618005,-2.2236839589336554,-0.017350424381546683,0.13776281661941395,-1.296905377847444
1.438066032592461,-2.251310377213322,-0.01692920961216306,0.12534592890124197,-1.2352353298887113
1.4345628108822224,-2.276350427893682,-0.016434806675823452,0.11313074424501451,-1.1656301983373112
1.4311721471197814,-2.2988480965428693,-0.01585722915694905,0.10113276669963628,-1.087746298176561
1.4279127863267376,-2.3188505340804326,-0.015184302205371918,0.0893666384200133,-1.0013343323585473
1.4248063555822057,-2.336407724557205,-0.014400752504456889,0.07784469945399046,-0.9062970684085556
1.421878164232789,-2.3515717943762766,-0.01348678415665565,0.06657501310858499,-0.8027659747908552
1.4191583901425282,-2.3643958656699624,-0.01241582622677941,0.05555899921220152,-0.6911948171734972
1.4166838819642622,-2.3749324368862474,-0.01115091832813496,0.04478929808574229,-0.5724574982432578
1.4145009734054357,-2.38323150652694,-0.009638686994021924,0.03424946039703085,-0.44791783285521264
1.4126700973190611,-2.389339180257622,-0.0077982281143056074,0.02391886084755579,-0.31941324683448413
1.411274265072,-2.3932986597468613,-0.005495412333894708,0.013790467621392643,-0.18907813230309609
1.410439663961852,-2.395159405883973,-0.0024531696675164777,0.0039309241606251474,-0.058955786969618534
