x,y,v_x,v_y,omega
2.375,32.48,0.0,2.8205128205128203,-5.918367346938775
2.3733573548426583,31.83933246274382,-0.014283870933406322,2.7505092425843785,-5.519621888031576
2.3686835151313663,31.21441108114002,-0.026358213512612038,2.6835897278834224,-5.161154957763353
2.3614488809912806,30.604552361751676,-0.03655164857508982,2.6195295711456894,-4.837682757751732
2.35205440442255,30.009121768495255,-0.045139452022568076,2.5581277615188056,-4.544745106694085
2.34084275077854,29.427528668800772,-0.052353188360124016,2.4992035401723784,-4.2785581482223725
2.328107467952549,28.859221997270804,-0.05838840143110474,2.44259360356646,-4.03589677362773
2.3141005597602464,28.303686505108207,-0.0634108002410892,2.3881498065430855,-3.8140000645263883
2.299038771953019,27.76043949280734,-0.06756126764784337,2.3357372569427235,-3.6104947322300047
2.283108833038656,27.229027945417435,-0.0709599403031399,2.2852327203607823,-3.4233327431857346
2.2664718416372938,26.709026006159554,-0.07370955014348878,2.2365232731860094,-3.2507402108641736
2.2492669532853977,26.200032736758217,-0.07589817465561007,2.1895051563908443,-3.0911752968938466
2.2316144894555214,25.701670122558554,-0.07760151082157296,2.1440827931714317,-2.9432933619849315
2.213618567950903,25.213581288071364,-0.07888476313162945,2.1001679414997914,-2.8059179848361016
2.1953693352042754,24.735428894550758,-0.07980421727382862,2.0576789586793973,-2.6780167563030455
2.176944866208932,24.266893695948312,-0.08040855659872587,2.0165401596027106,-2.558680979200973
2.1584127859772155,23.807673233388275,-0.08073996715532929,1.9766812539628404,-2.4471085775713255
2.139831656908178,23.357480651382296,-0.08083506822760521,1.9380368504369836,-2.3425896550411185
2.1212521687576498,22.916043621508596,-0.08072569829872824,1.9005460180299736,-2.244494248898871
2.102718161660458,22.483103361339467,-0.08043958080728524,1.864151896484216,-2.1522619113142945
2.0842675075618353,22.05841373810501,-0.08000088961552083,1.8288013490327768,-2.065392816715483
2.0659328712438074,21.641740448000725,-0.07943073054124344,1.7944446518740478,-1.9834401484819133
2.0477423687025667,21.232860263236784,-0.07874755242606833,1.761035215638485,-1.9060035616987328
2.029720137802396,20.83156033993115,-0.07796749887976478,1.7285293348452926,-1.8327235539669278
2.011886833787866,20.437637580800377,-0.07710470994223295,1.6968859619440155,-1.7632766048934905
1.9942600602887888,20.05089804732846,-0.07617158135409104,1.666066503029217,-1.697370968234077
1.9768547448296632,19.67115641671657,-0.07517898785569814,1.6360346327263118,-1.6347430197762274
1.9596834664990532,19.298235479452785,-0.07413647588873487,1.606756126089213,-1.575154079759363
1.942756742297536,18.931965673804118,-0.07305243021141432,1.5781987056383324,-1.5183876415815472
1.9260832777274772,18.572184653935984,-0.07193421822388003,1.550331901910634,-1.464246949261498
1.9096701863829204,18.218736888714787,-0.07078831520704894,1.523126926099809,-1.4125528750220422
1.8935231826179368,17.87147328855614,-0.06962041318411394,1.4965565535405945,-1.3631420557703804
1.877676429570748,17.53025584770785,-0.06817743940013689,1.470551627748891,-1.308785197749686
1.8621602478610941,17.194951976050966,-0.06674587981424247,1.4451342127457227,-1.2572202960010272
1.8469717181247702,16.86542923583268,-0.06532829180596707,1.420280919587217,-1.2082676705501412
1.8321073798334457,16.541560429638935,-0.063926823770767,1.3959695690540157,-1.161761399656564
1.817563319385719,16.223223331207688,-0.06254326707902932,1.3721791129568492,-1.1175481005280934
1.803335246997574,15.91030043363578,-0.061179101513536345,1.3488895615814913,-1.0754858324150147
1.7894185637945381,15.602678713632027,-0.05983553503460257,1.3260819167120157,-1.035443108391394
1.7758084203259128,15.300249410591167,-0.05851353860561887,1.3037381097302554,-0.9972980038177146
1.7624997675643677,15.00290781937294,-0.05721387671216297,1.2818409443412964,-0.9609373509394519
1.7494874013183737,14.710553095768812,-0.055937134122568254,1.2603740435206907,-0.9262560103427757
1.736766000867337,14.423088073727175,-0.054683739364707724,1.2393218003196218,-0.893156211089277
1.7243301625273397,14.140419093487395,-0.053453985330921265,1.218669332200204,-0.861546952309927
1.7121744287668537,13.862455839844792,-0.052248047368956115,1.1984024386050285,-0.8313434598743332
1.7002933134148497,13.589111189833464,-0.05106599917020935,1.1785075614934704,-0.8024666924816897
1.6886813234367435,13.320301069172416,-0.049907826726364984,1.1589717486026057,-0.7748428921590321
1.6773329776952717,13.0559443168736,-0.048773440590783285,1.1397826192131995,-0.748403174712814
1.6662428230624728,12.795962557458616,-0.04766268665094354,1.1209283322214585,-0.7230831561719172
1.6554054482045115,12.54028008027458,-0.046575355592199344,1.1023975563353712,-0.6988226116930167
1.6448154953221996,12.288823725439478,-0.045511191210512635,1.0841794422307247,-0.6755651637804567
1.6344676700960867,12.041522775983545,-0.04446989771220817,1.066263596516509,-0.6532579970091147
1.6243567500551845,11.7983088557863,-0.04345114612172349,1.0486400573725787,-0.6318515967358561
1.6144775915622873,11.559115832939007,-0.04245457990346978,1.0312992717343037,-0.6112995095480563
1.604825135585927,11.32387972818995,-0.041479819890966836,1.0142320739096493,-0.5915581234305614
1.595394412408878,11.092538628155104,-0.04052646860511299,0.9974296655237964,-0.5725864658390721
1.5861888285806462,10.86513830583133,-0.039522086422988344,0.9799644416394476,-0.5729436449951484
1.577209889307075,10.641739588975035,-0.03855564639067406,0.9626330962413916,-0.5759282834755388
1.5684488596759607,10.42231215833215,-0.03762721996684079,0.9454315180445706,-0.5813984790928642
1.5598970044121507,10.206826620045884,-0.036736738848898755,0.9283557714012156,-0.5892172271360188
1.5515456185530436,9.995254466260558,-0.03588400775203287,0.9114020876016132,-0.5992520730933998
1.5433860553054664,9.787568037651205,-0.035068716139944396,0.8945668568275409,-0.6113747811420303
1.53540975131577,9.583740487733252,-0.03429044898784758,0.8778466207198762,-0.6254610168995121
1.5276082495672325,9.383745748814981,-0.03354869665161116,0.8612380655259635,-0.6413900430164784
1.519973220102556,9.187558499462938,-0.03284286391079152,0.8447380157961615,-0.6590444262572424
1.5124964787543382,8.995154133357076,-0.032172278247624225,0.8283434286026408,-0.6783097547762653
1.5051700040527023,8.80650872941822,-0.03153619741877498,0.8120513882569788,-0.6990743643483817
1.4979859524667911,8.621599023095424,-0.030933816371756937,0.7958591015064608,-0.7212290723517994
1.490936672125403,8.44040237870507,-0.030364273553356868,0.779763893192266,-0.744666918335023
1.4840147151516558,8.262896762717027,-0.029826656653141506,0.7637632023559389,-0.7692829100222031
1.4772128487371177,8.089060717885964,-0.029320007821101172,0.7478545787837516,-0.7949737736260919
1.470524065072301,7.918873338127927,-0.028843328394697755,0.7320356799817985,-0.8216377073437591
1.4639415902427073,7.7523142440435535,-0.028395583166985774,0.7163042685779559,-0.8491741369074118
1.4574588921927396,7.58936355898981,-0.027975704224037935,0.7006582101502487,-0.8774834720508614
1.4510696878536664,7.430001885601786,-0.02758259437659995,0.6850954714847225,-0.9064668627310966
1.4447679495264727,7.274210282665031,-0.027215130207693335,0.6696141192696851,-0.9360259539136957
1.4385479106057917,7.121970242236738,-0.026872164754749413,0.6542123192372055,-0.9660626376899325
1.432404070727193,6.97326366691124,-0.02655252984176223,0.6388883357671135,-0.9964788014418604
1.4263312004168962,6.828072847121071,-0.026255038073861064,0.6236405319734827,-1.0271760707087156
1.420324345320489,6.686380438359759,-0.025978484503591807,0.6084673702988077,-1.0580555453329237
1.414378830085448,6.548169438206006,-0.025721647975026293,0.5933674136468686,-1.0890175273760028
1.4084902619712365,6.413423163021065,-0.025483292148552664,0.5783393270917363,-1.119961239192856
1.4026545342604861,6.282125224181641,-0.025262166205798502,0.5633818802076157,-1.150784529936417
1.3968678295453052,6.154259503699439,-0.025057005230558604,0.5484939500723912,-1.1813835686324985
1.3911266229641446,6.029810129065311,-0.02486653025779367,0.5336745250069822,-1.2116525218161582
1.3854276854669498,5.90876144714035,-0.02468944797868253,0.5189227091231067,-1.2414832135553622
1.3797680871895928,5.791097996898333,-0.02452445008529089,0.5042377277639929,-1.2707647655048901
1.3741452010229207,5.676804480802815,-0.024370212233598358,0.4896189339361814,-1.2993832144335808
1.368556706467249,5.565865734577855,-0.024225392598329402,0.4750658158460789,-1.327221104452271
1.3630005938699157,5.458266695103205,-0.024088629987178038,0.4605780056726218,-1.354157050940577
1.3574751691517073,5.353992366132182,-0.023958541475504136,0.44615528972756574,-1.3800652729323435
1.3519790591377652,5.25302778149306,-0.0238337195152974,0.4317976201778334,-1.4048150904793117
1.3465112176201437,5.155357965391623,-0.023712728464019527,0.4175051285303062,-1.428270383281606
1.3410709322927679,5.060967889383139,-0.023594100469684104,0.4032781411086771,-1.4502890066691907
1.335657832715382,4.969842425525407,-0.023476330638018177,0.3891171967846477,-1.470722160866193
1.3302718994815255,4.881966295160062,-0.023357871395517427,0.3750230672618344,-1.4894137094078366
1.3249134747869828,4.797324012696208,-0.02323712594833205,0.3609967802499443,-1.5061994426631278
1.3195832746200367,4.715899823688009,-0.023112440720764686,0.3470396459083092,-1.5209062827259197
1.3142824028237647,4.637677636405833,-0.022982096638122305,0.3331532869801766,-1.5333514265892192
1.309012367314354,4.562640945998972,-0.02284429909588336,0.3193396730794906,-1.543341425681082
1.30377509877895,4.490772750237884,-0.022697166429370173,0.3056011596256163,-1.550671201758333
1.2985729722232713,4.422055455707721,-0.0225387166634882,0.291940531941023,-1.5551230021775841
1.2934088317950272,4.35647077320716,-0.022366852277765345,0.2783610550203731,-1.5564653021982033
1.2882860193767824,4.293999600995598,-0.022179342663492974,0.2648665294280128,-1.5544516689511187
1.283208407525394,4.234621894440988,-0.02197380387031998,0.2514613536555489,-1.5488196120894415
1.2781804374405643,4.17831652057243,-0.02174767512819987,0.23815059302757233,-1.539289461454215
1.273207162781825,4.125061096070645,-0.021498191469532038,0.22494005481403195,-1.5255633345586792
1.2682943003360472,4.074831807390662,-0.02122235153723245,0.21183636849018,-1.5073242895218562
1.26344828878964,4.02760321208773,-0.02091687930108907,0.19884706892661935,-1.4842358068817336
1.258676357218231,3.983348021137484,-0.020578177841600615,0.18598067846683203,-1.4559418130885968
1.253986605431957,3.9420368632954457,-0.02020227247382462,0.17324678102914298,-1.4220675587365716
1.2493880991043649,3.9036380346118307,-0.019784739070454242,0.16065607708924,-1.3822218085985862
1.2448909838266884,3.868117239513346,-0.019320611170211457,0.14822040202801343,-1.3360010053498237
1.24050662412739,3.835437334955877,-0.018804255780207644,0.13595268108041697,-1.2829963554755106
1.2362477765037563,3.805558096796876,-0.018229201816608597,0.1238667811717585,-1.2228051760131953
1.232128810316275,3.7784360386360163,-0.01758789546583599,0.11197720283570078,-1.155048346601753
1.2281659981020137,3.75402432876108,-0.0168713411799155,0.10029853520722826,-1.0793963081756175
1.2243779092156362,3.732272870646643,-0.016068562179889695,0.08884457883134093,-0.9956066137751325
1.220785960414566,3.713128634579938,-0.015165775220718963,0.0776270391400018,-0.9035762163932569
1.2174152082349277,3.6965363447967583,-0.014145113297875683,0.06665374158329576,-0.8034106621805097
1.2142955174455201,3.6824396186842066,-0.012982632696971641,0.05592648548238176,-0.6955085619362941
1.2114633203263967,3.670782581556697,-0.011645168338884477,0.04543905475681691,-0.5806506819752195
1.2089643268825465,3.661511768906646,-0.01008520943372553,0.03517670741755266,-0.46006648227652164
1.2068578759928235,3.654577656295789,-0.008231754824734967,0.025119923981212322,-0.3354288782591962
1.2052246410971912,3.6499341533375187,-0.005970287745979699,0.015258362612439163,-0.20871268420155714
1.204183952493161,3.647531407080475,-0.0030791783760222304,0.0056350831009818435,-0.08186604141050743
