x,y,v_x,v_y,omega
2.375,32.48,0.0,2.3076923076923075,-2.0
2.3746648564685287,32.022952841523306,-0.0033514353147142068,2.2627792770746007,-1.90036982192056
2.3736995551199955,31.574752250919726,-0.006301578170616009,2.219226628961206,-1.8079258968484622
2.3721798699644534,31.13513291596208,-0.008895273384807206,2.1769667206152317,-1.7219818245881475
2.370173148098994,30.703842603301474,-0.011171945269785002,2.135936405990847,-1.641929477116499
2.3677393217383407,30.280641297498775,-0.013166318336750542,2.0960766520361473,-1.5672288094798905
2.364931786611995,29.865300412707935,-0.014909032926704643,2.057332195872247,-1.497399151098633
2.3617981660718974,29.45760206936967,-0.01642717247426995,2.0196512375103945,-1.4320117407483157
2.3583809772017585,29.05733842925819,-0.01774471622711906,1.9829851636043867,-1.370683309760644
2.3547182126891015,28.664311083055875,-0.018882928899451815,1.9472882984187745,-1.313070551466137
2.350843850116857,28.278330485338437,-0.019860696822989958,1.9125176787556208,-1.2588653421733607
2.3467882985756874,27.899215432458057,-0.020694818588707434,1.878632850048182,-1.2077906012837094
2.342578791028794,27.526792579331467,-0.02140025688022742,1.8455956812177106,-1.1595966964511022
2.33823972962751,27.16089599158825,-0.021990357132611674,1.8133701962144355,-1.1140583147816248
2.3337929901376437,26.80136672992308,-0.02247703776605142,1.7819224204373119,-1.070971733539709
2.3292581907601306,26.448052463833484,-0.02287095600908068,1.75122024045863,-1.0301524341716937
2.324652929887889,26.10080711221998,-0.02318165271333751,1.72123327567642,-0.991433012064363
2.3199929967115756,25.759490508583767,-0.02341767904979385,1.691932760685721,-0.9546613416387408
2.3152925580518855,25.423968088784793,-0.023586707547110262,1.6632914373040069,-0.9196989623909806
2.3105643243399734,25.094110599523365,-0.023695629572006688,1.6352834553102686,-0.8864196565376209
2.305819697278015,24.769793825885873,-0.02375064104758177,1.6078842810646337,-0.8547081931683908
2.3010689013783767,24.450898336452553,-0.02375731794879657,1.5810706132685601,-0.8244592173921028
2.296321101293796,24.137309244605024,-0.023720682897014966,1.5548203052067469,-0.7955762659912262
2.291584506604984,23.828915984796076,-0.023645263991102814,1.5291122928827219,-0.7679708936698384
2.2868664655202937,23.525612102655593,-0.023535146855798987,1.5039265285221155,-0.7415618961630395
2.2821735487592667,23.22729505790617,-0.02339402075447079,1.4792439189721216,-0.7162746183356999
2.2775159677527763,22.933866771972042,-0.02318178931043429,1.4550389403691604,-0.690622731959195
2.272902599276105,22.64523268329544,-0.02295189545627731,1.431301946396868,-0.6661401583449494
2.268336747737948,22.36130085254762,-0.022706619925294755,1.408016361081347,-0.6427597965704982
2.2638212844060064,22.081982580555874,-0.022448013394120957,1.3851663588361074,-0.6204191231369623
2.2593586911024803,21.807192262497562,-0.022177919641140867,1.3627368217470022,-0.599059830265183
2.2549510995132027,21.536847250347737,-0.021897996251635403,1.340713299751239,-0.578627496572942
2.250600326573359,21.27086772302438,-0.02160973314679902,1.3190819734823156,-0.5590712869005616
2.246307906340649,21.009176563718825,-0.02131446918029974,1.2978296195732406,-0.5403436784075996
2.2420751187209293,20.751699243938617,-0.02101340701689872,1.2769435782288414,-0.5224002103761767
2.237903015371018,20.49836371382628,-0.020707626482215618,1.256411722894554,-0.5051992554322009
2.2337924430677454,20.249100298350417,-0.02039809655051156,1.236222431864053,-0.48870181013914804
2.229744064800901,20.003841598995855,-0.020085686117930594,1.2163645616815795,-0.47287130313422976
2.225758378819946,19.762522400606994,-0.019771173691621957,1.196827422207027,-0.4576734191672591
2.2218357358397594,19.525079583064002,-0.01945525611024082,1.1776007532228838,-0.4430759375713812
2.2179763545889135,19.2914520374945,-0.019138556398220114,1.1586747024721418,-0.42904858384472727
2.214180335864623,19.06158058674475,-0.018821630844685123,1.1400398050253473,-0.41556289315527883
2.2104476752413804,18.835407909853892,-0.018504975387741783,1.1216869638832163,-0.4025920846997964
2.206778274565013,18.6128784702927,-0.018189031375933574,1.103607431728724,-0.3901109459533266
2.2031719523503415,18.393938447744887,-0.017874190770778273,1.0857927937494036,-0.37809572594006396
2.1996284531885304,18.178535673224268,-0.017560800847333188,1.0682349514567948,-0.3665240367405479
2.196147456259439,17.966619567335023,-0.01724916844358127,1.050926107435658,-0.3553747625254782
2.1927285830346825,17.75814108149538,-0.016939563803981754,1.0338587509607355,-0.3446279754738521
2.189371404248514,17.553052641956953,-0.01663222405770122,1.0170256444235763,-0.3342648579935585
2.1860754462059684,17.35130809646297,-0.01632735636775922,1.0004198105162625,-0.3242676307167925
2.18284019649084,17.15286266339906,-0.01602514078352117,0.984034520122838,-0.3146194857913635
2.179667054944979,16.957852691667682,-0.015706274675092117,0.9660651971909301,-0.3408690608589241
2.1765547800542477,16.76642558985953,-0.015416474232217257,0.9482058208906136,-0.368716780215676
2.1734975975467434,16.578559662799787,-0.015155350842829002,0.9304534497067912,-0.39805675714305044
2.170489818376966,16.39423379229481,-0.014922440854945061,0.9128052553429884,-0.42878536959288116
2.1675258530556847,16.213427414888372,-0.014717212357866114,0.8952585187213923,-0.4608010348719607
2.1646002246801546,16.03612050038074,-0.014539071397435986,0.8778106263549421,-0.49400398858923683
2.161707580774058,15.862293531037004,-0.01438736766352961,0.8604590670824006,-0.5282960669684813
2.158842704039264,15.691927481412787,-0.014261399684407705,0.843201429159772,-0.563580491629026
2.1560005221149003,15.52500379872642,-0.014160419559231184,0.8260353977039085,-0.5997616559302752
2.153176116433294,15.36150438370736,-0.014083637256835216,0.8089587524867069,-0.636744911961927
2.1503647302570306,15.201411571850592,-0.014030224505795936,0.7919693660809649,-0.674436357240841
2.1475617759766656,15.044708115006316,-0.013999318297855213,0.775065202361783,-0.7127426201468735
2.1447628417444924,14.891377163233098,-0.013990024023874191,0.7582443153704028,-0.7515706430932655
2.1419636975162413,14.741402246840998,-0.014001418258637294,0.7415048485506088,-0.7908274623817391
2.139160300569578,14.594767258548803,-0.014032551207997344,0.724845034371345,-0.8304199836376409
2.136348800565877,14.451456435676363,-0.014082448829010375,0.7082631943530613,-0.8702547516554926
2.1335255442198937,14.3114543422891,-0.014150114630825019,0.6917577395195825,-0.9102377134092654
2.1306870796406976,14.174745851206936,-0.014234531161133721,0.6753271713020507,-0.9502739728935898
2.127830160406592,14.041316125784046,-0.014334661179926232,0.6589700829268297,-0.990267536360819
2.124951749436692,13.911150601358838,-0.01444944851907206,0.6426851613252725,-1.0301210464031598
2.122049022722499,13.784234966265306,-0.01457781862285601,0.6264711896100534,-1.069735503197641
2.1191193729841182,13.66055514228725,-0.01471867876095381,0.6103270501705027,-1.1090099710830967
2.1161604133178815,13.54009726442538,-0.014870917901411974,0.5942517284481994,-1.14784126847115
2.1131699809050475,13.422847659834144,-0.01503340622693066,0.5782443174641607,-1.1861236389059557
2.1101461408550466,13.308792825769675,-0.0152049942730763,0.5623040231805276,-1.2237484008788533
2.107087190261549,13.197919406372332,-0.015384511661900373,0.5464301707929173,-1.2606035737730124
2.1039916625554858,13.090214168086554,-0.015570765398730046,0.530622212064872,-1.2965734770589354
2.1008583322462595,12.985663973496727,-0.01576253769353311,0.5148797338333881,-1.3315382995844283
2.0976862201507926,12.884255753329917,-0.01595858326113734,0.4992024678347001,-1.365373635503576
2.0944745992200207,12.785976476344175,-0.016157626046581497,0.4835903020227105,-1.3979499830714461
2.0912230010840775,12.690813116783993,-0.016358355312850337,0.46804329357909685,-1.4291322022004378
2.087931223450989,12.598752619041619,-0.01655942101803394,0.45256168384462336,-1.4587789263401971
2.08459933850945,12.509781859113563,-0.01675942839735708,0.4371459154359469,-1.4867419239215633
2.081227702504483,12.42388760238481,-0.016956931652311442,0.4217966518515904,-1.512865404320451
2.0778169666758517,12.34105645720815,-0.0171504266340032,0.4065147999149952,-1.5369852630869183
2.074368089773408,12.261274823671489,-0.017338342390436558,0.39130153545163404,-1.5589282611031912
2.0708823523916324,12.184528836861265,-0.01751903142731792,0.37615833265061227,-1.5785111324639478
2.067361373398055,12.11080430383442,-0.017690758508453273,0.3610869976178139,-1.5955396163331212
2.063807128767805,12.040086633404133,-0.017851687794047572,0.3460897066850739,-1.6098074090002152
2.0602219731802056,11.97236075772625,-0.01799986808194705,0.33116905009376807,-1.6210950340935126
2.0566086647843864,11.907611044545444,-0.018133215876244686,0.3163280817142881,-1.629168631784216
2.052970393601073,11.845821198825707,-0.018249495956894284,0.3015703754830668,-1.6337786723846353
2.049310814099513,11.786974152355722,-0.01834629905870355,0.2869000892167766,-1.6346586068092017
2.045634082575499,11.731051939797204,-0.018421016181432628,0.2723220363683879,-1.6315234771060125
2.0419449000639873,11.67803555955297,-0.01847080893368595,0.2578417660739471,-1.6240685264022678
2.0382485616562254,11.6279048178028,-0.018492575143933796,0.24346565142774587,-1.611967871665207
2.03455101326954,11.580638154139791,-0.018482908722921514,0.22920098520236237,-1.5948733383614089
2.0308589171588243,11.536212447517165,-0.018438052384236334,0.21505608102388507,-1.5724136088116318
2.02717972779612,11.494602801809059,-0.018353841242804533,0.20104037605717887,-1.5441939136564848
2.0235217802339593,11.455782311387555,-0.018225634378801293,0.18716452815785045,-1.5097966097115025
2.0198943938012026,11.419721809008404,-0.018048229948768073,0.1734404956336681,-1.4687831536583222
2.0163079951100307,11.386389601402652,-0.01781575696295011,0.15988158042386844,-1.4206982215293023
2.0127742661353922,11.35575120290127,-0.01752153278343506,0.14650240458995234,-1.365077067310833
2.009306325991626,11.32776908501313,-0.017157868654224282,0.13331877429146016,-1.3014576928332928
2.005918959689329,11.30240247119174,-0.01671579436874412,0.12034736392245715,-1.2294000417163118
2.0026289147916754,11.279607222167702,-0.016184654607796153,0.10760512631794027,-1.148515222145663
1.9994552994398034,11.259335878740117,-0.015551498910924584,0.09510830795791643,-1.0585085848397067
1.9964201358049805,11.2415379542124,-0.01480013743730392,0.08287093731926086,-0.9592409356941648
1.993549156648802,11.226160590360216,-0.013909654124480945,0.07090270120259856,-0.8508112565425094
1.990872987590879,11.213149688608649,-0.012852036454748177,0.05920631631307109,-0.7336599827126307
1.9884289497085403,11.20245155670105,-0.011588342368638874,0.04777500276291483,-0.6086807129032182
1.9862638871557121,11.194014884671763,-0.010062283159642176,0.03659171752996516,-0.4773066336936273
1.9844388173276966,11.187792333709087,-0.0081884151205153,0.025633792096786918,-0.34150766626839413
1.9830374578518306,11.183739840815601,-0.005825179638142967,0.014891136838064421,-0.20361185897496029
1.9821866901652834,11.18180790287662,-0.0026824972273299936,0.0044282425517289115,-0.06588444597318904
