x,y,v_x,v_y,omega
2.375,32.48,0.0,3.0256410256410255,-5.183673469387755
2.373435083534181,31.79317559922437,-0.013607969267990823,2.9467450680600806,-4.811650106959102
2.3689976555238714,31.12407472993893,-0.024978361256442465,2.8715233605089647,-4.479810937866265
2.3621616369424987,30.471884043132917,-0.03446527858158079,2.799700003021571,-4.182555212759327
2.353326501989284,29.83585028061868,-0.04236198188115618,2.731028366667455,-3.9152042220187866
2.3428299454065504,29.215274026678753,-0.04891242318609241,2.66528688498409,-3.6738283293129927
2.330958174860579,28.609504337756405,-0.05432036417017886,2.6022756273841408,-3.4551103184935146
2.3179543196641146,28.01793409071062,-0.0587566375382065,2.5418134773618126,-3.256236611711908
2.3040253350804263,27.439995925575595,-0.06236496753734319,2.4837357846819064,-3.074810074092782
2.289347697548205,26.87515868506899,-0.06526666317762303,2.427892393636397,-2.908779675395772
2.274072122638415,26.322924272891893,-0.06756442299446853,2.374145973120971,-2.756383414428079
2.2583274889779688,25.782824867956936,-0.06934543492245522,2.3223705915308166,-2.6161017504367456
2.242224113905648,25.254420443327923,-0.07068391353250807,2.272450492199734,-2.4866194114239715
2.2258564974958324,24.737296547745114,-0.07164318568327668,2.2242790346072945,-2.3667939207165776
2.2093056287781287,24.231062314783593,-0.07227741186197346,2.1777577737537466,-2.255629541328825
2.1926409300080723,23.735348670410154,-0.0726330122254729,2.1327956555805376,-2.1522556120274094
2.175921900597078,23.249806714306168,-0.07274985221795544,2.0893083105410746,-2.0559084607019082
2.159199510954638,22.774106254061106,-0.07266223162935177,2.0472174307203255,-1.965916245088633
2.142517387399706,22.307934474401517,-0.07239971232658075,2.0064502184934994,-1.88168619944227
2.1259128219774532,21.850994726146023,-0.07198781308431056,1.9669388967716548,-1.8026938668259245
2.109417635099651,21.40300542167636,-0.07144859454875038,1.9286202725297703,-1.7284739766048207
2.09305891412317,20.96369902547149,-0.07080115307282281,1.8914353466429852,-1.658612690240133
2.0768596470664566,20.532821129731587,-0.0700620387246879,1.855328964138791,-1.592740989201268
2.0608392674619207,20.11012960637178,-0.0692456100104077,1.8202494998595582,-1.5305290195105095
2.045014123713982,19.695393827732897,-0.06836433562384271,1.7861485752611437,-1.4716812402288157
2.0293978841679854,19.288393949269615,-0.06742905173264764,1.7529808026804345,-1.4159322497302627
2.0140018873068293,18.88892024826152,-0.0664491818426225,1.720703553911675,-1.36304318517443
1.9988354450099992,18.49677251327061,-0.06543292508633523,1.6892767503571222,-1.3127986081712322
1.9839061055777485,18.1117594796562,-0.06438741780280041,1.6586626723768958,-1.265003804027186
1.9692198821962528,17.73369830696958,-0.06331887247107704,1.6288257857676434,-1.219482433786264
1.954781451661244,17.36241409449698,-0.06223269739856254,1.5997325835592866,-1.1760744880240663
1.9405943274583535,16.997739431610416,-0.061133600017878556,1.5713514415412717,-1.1346344994126223
1.9266610106940747,16.639513979929305,-0.06002567619324162,1.543652486120581,-1.0950299777576202
1.9129831218623428,16.287584084598432,-0.05891248756094803,1.516607473278296,-1.0571400367713772
1.8995615160020796,15.941802412255033,-0.05779712861525335,1.4901896775338674,-1.0208541864856018
1.8864199732526332,15.602030727030165,-0.0564771561625408,1.4643467157258623,-0.9803063430515448
1.8735795534866395,15.268136236735376,-0.05517866788957864,1.4390836346636027,-0.9418307237229014
1.8610351939047016,14.939988203721814,-0.053902719779446544,1.414377521976081,-0.9052946358652548
1.8487816163972153,14.617461025385655,-0.05265012811173888,1.3902066374687803,-0.8705754946179523
1.8368133788747079,14.300433973209568,-0.05142150251876097,1.366550337975467,-0.8375599319290097
1.825124919491059,13.988790948427106,-0.05021727473035917,1.3433890079589899,-0.8061429945066063
1.813710594685148,13.682420253046686,-0.049037723581910636,1.3207039953489892,-0.7762274208005456
1.8025647118435337,13.381214375083552,-0.04788299677995353,1.2984775521565157,-0.7477229883365569
1.7916815572809006,13.085069786948608,-0.04675312985163842,1.2766927794516827,-0.720545923774617
1.781055420143694,12.793886756033555,-0.04564806264580925,1.2553335763313926,-0.6946183689728087
1.770680612763517,12.507569166613283,-0.044567653703555296,1.2343845925405454,-0.669867897130222
1.7605514879186859,12.226024352260232,-0.043511692773238755,1.2138311844425052,-0.6462270737726669
1.7506624534033175,11.949162938032043,-0.04247991170822449,1.1936593740634818,-0.6236330579476337
1.7410079842521713,11.676898691754197,-0.04147199395391633,1.1738558109612716,-0.6020272395220143
1.731582632925071,11.409148383774085,-0.04048758280347854,1.154407736691881,-0.581354908937834
1.722381037716184,11.145831654612671,-0.03952628857814805,1.1353029516682385,-0.5615649561864002
1.713397929619902,10.88687088998509,-0.03858769486777986,1.1165297842237571,-0.5426095961173361
1.7046281378558858,10.632191102702684,-0.03767136394975355,1.0980770617101947,-0.5244441175123722
1.6960665942304047,10.38171982100647,-0.036776841489211495,1.0799340834742666,-0.5070266536300428
1.6877083364889418,10.135386982916266,-0.03590366061046671,1.0620905955710014,-0.49031797217132317
1.679548510795665,9.893124836210937,-0.03505134541802693,1.044536767084035,-0.4742812828318658
1.671582373458476,9.654867843683853,-0.03421941403578923,1.0272631679340745,-0.4588820607973843
1.6638052920035589,9.42055259334376,-0.033407381224360364,1.01026074806674,-0.44408788470795696
1.6562127456904254,9.19011771325528,-0.03261476062897486,0.9935208179200395,-0.429868287767248
1.648807041062907,8.96360787302757,-0.031782670914662706,0.9761299666687258,-0.4344813497095547
1.6415886895434126,8.741082910438625,-0.03098560316789609,0.9588697080177604,-0.44157566777120255
1.6345496231169991,8.52251324424213,-0.030223670105266325,0.9417360849952456,-0.45101620986674024
1.6276817635203393,8.307870184225497,-0.029496848126558162,0.9247253064537452,-0.46267247010752416
1.620977052171824,8.097125893996733,-0.028804989686615733,0.9078337390137714,-0.47641814492332374
1.6144274773725542,7.8902533555549965,-0.02814783465486215,0.8910578996100309,-0.492130823205451
1.6080250990021514,7.687226335510147,-0.027525020739945977,0.8743944486060535,-0.5096916891028636
1.6017620709162426,7.4880193528241,-0.02693609305056506,0.857840183446535,-0.5289852361703014
1.5956306612368052,7.292607647953421,-0.02638051285758659,0.8413920328202327,-0.5498989916255665
1.589623270712217,7.100967153278489,-0.0258576656170908,0.8250470513095962,-0.5723232495220063
1.5837324493107319,6.913074464709634,-0.02536686830886856,0.8088024145065328,-0.5961508116824493
1.577950911199094,6.728906814365047,-0.02490737614015772,0.792655414576826,-0.6212767352725532
1.572271548247079,6.548442044218952,-0.02447838865997004,0.7766034562587922,-0.6475980859148971
1.5666874421887842,6.371658580621439,-0.02407905532520327,0.7606440532847935,-0.6750136952602745
1.561191875562467,6.198535409593703,-0.02370848055581663,0.7447748252172699,-0.7034239219395
1.5557783415425943,6.029052052803902,-0.023365728312639552,0.728993494694054,-0.7327304148175154
1.550440552770438,5.86318854412978,-0.023049826227851306,0.7132978850809035,-0.7628358774614863
1.5451724492830352,5.700925406714237,-0.022759769314782054,0.697685918532507,-0.7936438327156032
1.5399682056345876,5.542243630419328,-0.022494523280413275,0.6821556144666973,-0.8250583862470725
1.5348222372993519,5.38712464958272,-0.022253027460766926,0.6667050884603295,-0.8569839878897938
1.5297292064407966,5.235550320978163,-0.02203419739623718,0.6513325515792813,-0.8893251895638916
1.5246840271282367,5.087502901878217,-0.021836927060804406,0.636036310159386,-0.9219863984898968
1.5196818700793104,4.942965028113001,-0.02166009075594529,0.6208147660598922,-0.9548716243451586
1.5147181670045353,4.801919692013236,-0.02150254467688104,0.6056664174163298,-0.9878842189261117
1.5097886146288058,4.664350220118919,-0.02136312815555068,0.5905898599255606,-1.0209266067823224
1.5048891784640657,4.5302402505267025,-0.02124066458131892,0.5755837887024017,-1.0539000051757224
1.5000160964075722,4.3995737097391405,-0.021133961996885182,0.5606470007546611,-1.0867041315899646
1.4951658822411735,4.272334788867191,-0.02104181336310506,0.5457783981318711,-1.119236896869273
1.4903353291089385,4.148507919023576,-0.02096299648241602,0.5309769918125937,-1.1513940819023776
1.4855215130533455,4.0280777457284245,-0.02089627356621817,0.5162419064061172,-1.1830689955841913
1.4807217966941446,3.9110291021296817,-0.02084039042683382,0.5015723857568606,-1.2141521115851022
1.475933833139068,3.7973469808189186,-0.020794075269484482,0.4869677995541132,-1.2445306812349384
1.4711555702218675,3.68701650399759,-0.020756037053998453,0.47242765106612744,-1.274088319586424
1.4663852551708532,3.5800228917193024,-0.020724963389602988,0.4579515861363628,-1.302704561463112
1.4616214398203575,3.476351427899484,-0.020699517919054743,0.4435394036011796,-1.3302543840230556
1.4568629864885208,3.3759874237443697,-0.0206783371403952,0.4291910673128497,-1.356607692088352
1.4521090746577272,3.278916178205723,-0.02066002660563732,0.4149067199797394,-1.3816287622126946
1.4473592086091442,3.1851229350153183,-0.020643156425519157,0.4006866990672553,-1.4051756412007224
1.4426132261804527,3.094592835793115,-0.020626255997885076,0.38653155503887193,-1.427099494579423
1.437871308836335,3.0073108686541588,-0.020607807864006723,0.37244207225638687,-1.4472439003907782
1.433133993265057,2.923261811660911,-0.02058624058189008,0.35841929290229574,-1.4654440836820397
1.4284021847420338,2.8424301703787123,-0.020559920487875756,0.34446454433421003,-1.481526087297412
1.4236771725332726,2.764800108692313,-0.02052714219700493,0.3305794703301432,-1.4953058751422514
1.4189606476488184,2.6903553719302096,-0.020486117667815953,0.3167660667316347,-1.506588365172719
1.4142547232998934,2.6190792012221067,-0.020434963627182567,0.30302672203448827,-1.5151663912140672
1.409561958464703,2.550954237884863,-0.020371687113603976,0.2893642635067603,-1.5208195956987773
1.4048853850288758,2.4859624164984844,-0.020294168850110227,0.275782009418255,-1.5233132600789894
1.4002285390400568,2.4240848452039394,-0.02020014409614177,0.26228382792562543,-1.5223970867886125
1.3955954967064095,2.365301671642701,-0.020087180544269608,0.2488742030416546,-1.5178039573498388
1.3909909158820506,2.3095919328868355,-0.01995265271102445,0.23555830787890544,-1.5092487072005196
1.3864200839284464,2.256933387714543,-0.019793712102926464,0.22234208492362525,-1.4964269814911595
1.3818889730348864,2.207302329727618,-0.019607252188900033,0.20923233235398925,-1.4790142710029541
1.3774043043478204,2.1606733801740674,-0.01938986682906545,0.19623679419861545,-1.4566652786166878
1.372973622637693,2.1170192600700553,-0.01913780021552121,0.18336425018409097,-1.4290138418488059
1.3686053837876229,2.076310542520602,-0.018846885437261995,0.17062459807201816,-1.3956737464771365
1.3643090582271171,2.0385153883329927,-0.018512467262787786,0.15802891660284124,-1.356240925042303
1.3600952547314995,2.0035992715609545,-0.018129302264321284,0.14558949011053163,-1.3102977620151852
1.3559758710542948,1.9715247071643205,-0.017691425363545232,0.1333197655123802,-1.2574205497234872
1.3519642811355344,1.942251001394773,-0.01719196523437155,0.12123419770108684,-1.1971915825635717
1.3480755739236616,1.9157340578866489,-0.016622880086260252,0.10934791976087126,-1.1292179583607047
1.3443268674493496,1.8919262897512574,-0.015974567516452404,0.09767615098166067,-1.05315984965363
1.3407377357623338,1.8707767104512492,-0.015235273240207507,0.08623323423579224,-0.9687716709698189
1.3373308089475313,1.8522313014094536,-0.01439017732329155,0.07503119221458952,-0.8759597796150649
1.3341326427831992,1.836233772993662,-0.013419963236118031,0.06407775053142045,-0.7748591158389475
1.3311750130859799,1.8227268240770904,-0.012298555870136367,0.05337397917790662,-0.6659265559054279
1.3284968870358829,1.8116539136105096,-0.010989496739402497,0.04291219879236649,-0.550037686957927
1.3261475057071281,1.8029612941905313,-0.009439906119334162,0.03267579616396478,-0.4285536279763683
1.324191448141459,1.7965994667208705,-0.007569290103875723,0.022644442702658543,-0.30329860529486546
1.322718003772881,1.79252190115011,-0.005243269622889335,0.01281264921699425,-0.17637366277620573
1.321864480771924,1.7906742745831572,-0.002178669515866429,0.003253668756495234,-0.04975831534659411
