x,y,v_x,v_y,omega
2.375,32.48,0.0,2.2564102564102564,-6.8979591836734695
2.3735380757574243,31.966613081184658,-0.012712384718048246,2.2078238202448617,-6.5152197326570915
2.3693417221505486,31.46419530141671,-0.023777646646089952,2.1610264386068776,-6.163772371601455
2.3627663556384215,30.97234865896542,-0.03339945345936278,2.1159008870565006,-5.840217103208259
2.354123764241842,30.490700780507076,-0.04175351520654229,2.0723415343204086,-5.541601653247708
2.343688033824214,30.018902438502774,-0.04899196668587801,2.030252743977852,-5.2653524478762534
2.331700557296825,29.556625404110413,-0.05524695963924727,1.9895475550861488,-5.009217851057562
2.3183742896797437,29.103560578047627,-0.06063362833537168,1.9501465845902732,-4.771221181980554
2.303897378750632,28.659416353458262,-0.0652525536569026,1.9119771074911676,-4.549621596953542
2.288436275498875,28.22391717383008,-0.06919182244533195,1.8749722805799716,-4.342881342120713
2.272138408783576,27.796802256021433,-0.07252875768770298,1.8390704829734834,-4.149638202008761
2.255134493047682,27.37782445395991,-0.07533137914615531,1.804214752344093,-3.968682212051339
2.237540525634813,26.96674924293108,-0.07765964183531693,1.7703523000805264,-3.7989358904998496
2.21945952043316,26.5633538078448,-0.07956649035296787,1.7374340919740836,-3.6394373906140145
2.200983016670484,26.16742622164917,-0.08109875975726043,1.7054144836400957,-3.489326087973755
2.1821923952846225,25.778764702308123,-0.08229794794588191,1.674250901934196,-3.3478302076772617
2.1631600300762055,25.39717693858308,-0.08320087995339598,1.643903565240131,-3.2142561676546664
2.1439502965705852,25.022479476349677,-0.0838402809650427,1.6143352367894488,-3.0879793714951966
2.124620457986351,24.65449715840608,-0.08424527194134256,1.5855110061983273,-2.9684362301986233
2.1052214447818836,24.29306261174184,-0.08444179940185013,1.5573980952298838,-2.8551172295085245
2.0857985418145555,23.93801577707808,-0.08445300900970035,1.5299656844549616,-2.7475608897971844
2.066391995108812,23.589203476193,-0.08429957104024174,1.503184758024017,-2.645348490264879
2.0470375485174532,23.246479013136877,-0.08399996453679218,1.4770279642031368,-2.54809944959041
2.0278068108669243,22.90971314373543,-0.08322384111997938,1.4513709001572406,-2.447047754954248
2.008763429817459,22.578781715426082,-0.08237077670145661,1.426293693837104,-2.3511648224094173
1.989923869782575,22.253554057466438,-0.08145148447145059,1.4017728971163026,-2.260118901637015
1.9713022655497017,21.933904748094292,-0.08047550885788243,1.3777863148154375,-2.1736036191569172
1.952910676442213,21.61971333625004,-0.07945135294636495,1.3543129186128189,-2.0913357252220783
1.9347593128598135,21.310864082262754,-0.07838659124841442,1.3313327682331417,-2.0130530682492087
1.9168567383593902,21.007245715910805,-0.07728796962483128,1.308826939175118,-1.938512771013431
1.8992100500505267,20.708751210428055,-0.07616149393050427,1.2867774563270518,-1.867489586075043
1.8818250397433078,20.41527757116748,-0.07501250874096468,1.2651672328953458,-1.799774410698235
1.864706337993491,20.12672563775879,-0.07384576734440018,1.2439800141367476,-1.735172943932551
1.8478575429353197,19.8429998987072,-0.07266549403100026,1.223200325442321,-1.673504470614889
1.8312813355699764,19.564008317478674,-0.07147543958068238,1.2028134243709299,-1.6146007588604616
1.8149795829834092,19.28966216920456,-0.07027893073729181,1.182805256273525,-1.5583050591853973
1.7989534307972617,19.01987588721653,-0.06907891435964364,1.1631624131876235,-1.5044711947752398
1.7832033860075698,18.754566918692746,-0.06787799685506869,1.143872095714825,-1.452962733610987
1.7677293912350667,18.49365558875882,-0.06667847942756777,1.1249220776236493,-1.4036522342116298
1.7525308912958966,18.237064972443314,-0.06548238960869344,1.1063006729459632,-1.3564205576699135
1.737606892900291,17.984720773938335,-0.06429150948352812,1.0879967053582342,-1.3111562394637208
1.7229560181975059,17.736551212661325,-0.06310740097547429,1.069999479659209,-1.2677549152339742
1.7085765528065555,17.492486915655544,-0.06193142851105017,1.0522987551736964,-1.2261187953440458
1.6944664889026884,17.252460815903824,-0.06076477934866462,1.0348847209282301,-1.1861561835862848
1.6806235638679787,17.016408056164323,-0.059608481822723054,1.0177479724587284,-1.147781035887845
1.6670452949599004,16.784265897967412,-0.0584634217257833,1.0008794901230995,-1.1109125552986212
1.6537290104034088,16.555973635440886,-0.05733035702631846,0.9842706188032069,-1.075474819925772
1.6406831734520133,16.331606213622813,-0.05611170342059918,0.9667504404843871,-1.0645381456811842
1.6279136128155578,16.111252397368784,-0.05492795428771042,0.9493697008549979,-1.0565176315025195
1.615412260437758,15.894880620342335,-0.05377945769315484,0.9321240124184662,-1.0512562232773586
1.603170986965485,15.68246030279883,-0.05266639858748045,0.9150091836120109,-1.0486024211463847
1.591181637628345,15.473961807652401,-0.051588813039826285,0.8980212089656213,-1.0484098848247285
1.5794360649757788,15.269356398719598,-0.050546601330312545,0.881156260015275,-1.0505370576843232
1.5679261587241733,15.06861620097147,-0.04953953998799629,0.8644106769249859,-1.0548468078251514
1.5566438729473449,14.871714162635726,-0.0485672928539897,0.8477809607771432,-1.0612060844668798
1.5455812508262166,14.678624018999411,-0.04762942124278013,0.8312637664951679,-1.0694855880829268
1.5347304471573917,14.48932025777028,-0.04672539326874003,0.8148558963668225,-1.079559452777381
1.5240837488055765,14.303778085861925,-0.045854592399217416,0.7985542941406165,-1.091304939472103
1.51363359327127,14.12197339747351,-0.04501632529040412,0.7823560396716844,-1.1046021385274174
1.5033725855327786,13.943882743340072,-0.04420982895734672,0.7662583440973361,-1.119333680465511
1.4932935133103142,13.769483301033365,-0.043434277324952565,0.7502585455262132,-1.1353844535013777
1.4833893608896442,13.59875284619655,-0.04268878720261294,0.7343541052286944,-1.152641326612157
1.473653321633419,13.43166972459846,-0.041972423721082765,0.7185426043198989,-1.1709928768921705
1.4640788092998487,13.268212824894675,-0.04128420526648717,0.7028217409304026,-1.1903291199479658
1.4546594682807876,13.10836155198336,-0.04062310794273912,0.6871893278636446,-1.2105412420851926
1.4453891828644976,12.952095800843594,-0.039988069590217654,0.6716432907430111,-1.2315213330271155
1.4362620856223196,12.79939593074273,-0.039377993385243996,0.6561816666558022,-1.253162117882815
1.427272565013224,12.650242739697148,-0.03879175104167296,0.6408026033057616,-1.2753566870514503
1.4184152722956642,12.504617439067559,-0.038228185632760175,0.6255043586906546,-1.2979982227070552
1.4096851278323375,12.362501628165578,-0.037686114048342004,0.6102853013265833,-1.3209797204559186
1.4010773268703651,12.223877268742683,-0.03716432909924357,0.5951439110464031,-1.344193704695341
1.3925873448770192,12.088726659225674,-0.036661601277678854,0.5800787804058509,-1.3675319361281555
1.3842109425094788,11.957032408554142,-0.036176680179192205,0.5650886167379028,-1.3908851098016368
1.3759441702962085,11.828777409465374,-0.035708295588375884,0.5501722449035523,-1.4141425419422082
1.3677833731074236,11.703944811059952,-0.035255158227145665,0.5353286107957758,-1.4371918437488425
1.3597251944928188,11.582517990467188,-0.034815960160722366,0.5205567856630402,-1.4599185801887486
1.351766580966286,11.464480523413048,-0.0343893748526056,0.5058559713294751,-1.482205911709919
1.3439047863198328,11.349816153474055,-0.033974056855683665,0.49122550640091084,-1.503934216648239
1.336137376052383,11.2385087597786,-0.033568641122140946,0.47666487355955384,-1.52498069196521
1.3284622320036945,11.130542322891745,-0.033171741909932474,0.4621737080652799,-1.5452189298105932
1.3208775572893576,11.025900888590407,-0.032781951258213496,0.44775180759852895,-1.5645184672695491
1.3133818816398766,10.924568529202723,-0.03239783699814331,0.43339914359870946,-1.582744306536556
1.305974067255327,10.826529302147485,-0.03201794025880885,0.41911587427293306,-1.5997564026736277
1.2986533152972082,10.731767205266728,-0.03164077242048619,0.40490235947277997,-1.6154091160798354
1.2914191731510802,10.64026612849629,-0.03126481145888694,0.39075917766146806,-1.6295506268537632
1.2842715426076787,10.552009801364939,-0.03088849761416984,0.37668714521983726,-1.6420223084141186
1.2772106891267447,10.466981735752547,-0.03051022830699605,0.36268733836616157,-1.652658058118225
1.270237252367256,10.385165163271523,-0.030128352210297457,0.34876111799056664,-1.6612835832708914
1.2633522581906318,10.30654296656395,-0.029741162369043037,0.33491015772748184,-1.6677156419702894
1.2565571323705733,10.23109760373066,-0.029346888240160997,0.32113647560547,-1.6717612398663642
1.2498537162755143,10.158811025030037,-0.028943686499482073,0.30744246961735827,-1.6732167863552925
1.2432442848286251,10.089664580907368,-0.02852963042998828,0.2938309575362789,-1.6718672173450775
1.2367315670979806,10.023638920346702,-0.02810269766257271,0.2803052212521174,-1.667485096988567
1.23031876992885,9.960713878485866,-0.027660755982041218,0.2668690557986412,-1.6598297183772113
1.224009605105503,9.900868352417632,-0.02720154682967284,0.2535268230555586,-1.648646234090699
1.217808320628066,9.844080164139289,-0.0267226660176033,0.24028350979959762,-1.6336648630716486
1.2117197368208865,9.790325909744862,-0.026221541001350518,0.22714478928236934,-1.6146002424668862
1.205749288168002,9.739580794232271,-0.02569540380634058,0.21411708474015548,-1.5911510245497391
1.199903072022637,9.691818451799985,-0.02514125832727026,0.20120763206231854,-1.5629998633749445
1.1941879056983844,9.64701075234889,-0.02455584014448992,0.18842453707763548,-1.5298139985971164
1.188611393978303,9.60512759624946,-0.023935566117088622,0.17577682030871078,-1.4912467318814846
1.1831820098661194,9.566136701514264,-0.02327646964102972,0.16327443825819976,-1.446940213621092
1.1779091925950824,9.530003390649803,-0.02257411532450957,0.15092826491102582,-1.3965301252955868
1.1728034687304527,9.496690389067691,-0.021823483498357076,0.13875000971603982,-1.339653067517391
1.1678766050034513,9.466157653519577,-0.021018809779915645,0.12675203852841838,-1.275957754009182
1.1631418058423977,9.438362258101066,-0.020153356837941516,0.11494705206733244,-1.2051214622717707
1.1586139752513385,9.413258377247683,-0.0192190830843116,0.1033475640490285,-1.1268735609995089
1.154310072970982,9.390797419348953,-0.018206154136178328,0.09196511333123956,-1.0410281980622658
1.1502496105688527,9.370928378708722,-0.017102214577990837,0.08080915310556279,-0.947528098830204
1.1464553569354363,9.353598480941084,-0.01589129527780275,0.06988561009129124,-0.8465003005867496
1.1429543588744067,9.338754182867724,-0.014552166122455731,0.05919524272051973,-0.7383215069799333
1.1397794394908554,9.326342524700873,-0.013055828517120192,0.04873221959992054,-0.6236841936196663
1.1369714376605693,9.316312673220231,-0.011361578702758604,0.038483880231739764,-0.5036436926113834
1.1345826731009963,9.308617166878843,-0.009410287032658667,0.028433566215103956,-0.37961302340724107
1.1326827630381637,9.303211722429864,-0.007110670035449636,0.018570298558632445,-0.2532636839688751
1.131370409098972,9.300050767493033,-0.0043011033488259175,0.008916266109470225,-0.12629884887961385
