x,y,v_x,v_y,omega
2.375,32.48,0.0,3.7435897435897436,-3.959183673469388
2.37385813104152,31.74151403096512,-0.0114186895848011,3.6412699467590106,-3.65609600852314
2.3706329796462917,31.022988961646437,-0.020832824367480157,3.5439807464278217,-3.388123617954678
2.365691519555213,30.32345717861863,-0.028581776543305057,3.4513370838502704,-3.150055292444037
2.359339054696404,29.642024086751036,-0.03494287204478731,3.362993834825658,-2.937586969886796
2.351830388401067,28.977860659288528,-0.040143790908583145,3.27864043979944,-2.7471432949133443
2.3433787827603116,28.330196970779973,-0.04437226549897084,3.1979964452860807,-2.575738055837315
2.3341631846409503,27.69831654956851,-0.04778371569464323,3.1208077668285714,-2.420864233169685
2.32433408340043,27.081551419834106,-0.05050729671055762,3.046843530515457,-2.2804067893546645
2.3140182820444424,26.479277728411205,-0.05265071684932076,2.975893383713573,-2.152573057191222
2.303322800779988,25.890911871016147,-0.05430409579521758,2.90776519023698,-2.03583684420015
2.2923380842035295,25.31590704765444,-0.05554306996937117,2.8422830433801045,-1.9288932978590214
2.2811406468414286,24.753750188923206,-0.05643130365163879,2.7792855439322395,-1.8306222659213316
2.269795263614232,24.203959204458016,-0.05702252862032652,2.718624300719644,-1.7400584024956725
2.2583567899698247,23.6660805124595,-0.05736220782374571,2.6601626192654892,-1.6563666605216936
2.2468716794050962,23.139686815489597,-0.05748889782354077,2.603774350433592,-1.5788221078513893
2.2353792527422973,22.624375092859225,-0.05743536880444935,2.549342875870105,-1.5067932312158705
2.2239127629984865,22.119764784172503,-0.05722952863365859,2.4967602109971123,-1.4397280673201114
2.2125002913457092,21.625496142125066,-0.05689518789411059,2.445926209477251,-1.3771426359268661
2.2011655030207486,21.1412287356141,-0.05645269535549766,2.3967478556324187,-1.3186112555090488
2.189928286735727,20.666640086711624,-0.0559194674947203,2.3491386333923603,-1.2637584049031498
2.178805296879685,20.201424427165485,-0.05531043106569698,2.303017962069027,-1.2122518596624383
2.1678104143663695,19.745291561891037,-0.05463839406745979,2.2583106906754744,-1.163796883472109
2.156955139203944,19.29796582845428,-0.05391435755679558,2.214946643692089,-1.118131296075231
2.1462489256048203,18.859185142867716,-0.05314777843444123,2.1728602121735543,-1.0750212719797656
2.135699468613711,18.428700123158062,-0.05234679147664835,2.1319899849229595,-1.0342577505482422
2.1253129497270637,18.006273283149447,-0.051518397389826165,2.0922784151631757,-0.9956533592833142
2.115094247742122,17.59167828975986,-0.05066862245959354,2.0536715187327252,-0.9590397692775754
2.1050471200573524,17.18469927785238,-0.04980265438810194,2.0161186003420233,-0.9242654157234445
2.0951743588066596,16.785130217332096,-0.0489249581188246,1.9795720048608407,-0.8911935277275566
2.0854779255147915,16.392774327747905,-0.048039374799854054,1.9439868909810771,-0.8597004209543252
2.0759590673841624,16.00744353615777,-0.04714920650643883,1.909321024920293,-0.829674014238197
2.0666184178426903,15.628957974454842,-0.046257288908279515,1.875534592108977,-0.8010125375732492
2.0574560835809734,15.257145512739452,-0.04536605370889378,1.8425900250449159,-0.7736234040665878
2.048471719971215,14.891841325664277,-0.04447758238869029,1.8104518457068306,-0.7474222227317924
2.0396645964784783,14.532887488983466,-0.04359365253867461,1.7790865211012754,-0.7223319325634581
2.031033653437748,14.180132603805784,-0.04271577786862746,1.7484623306755414,-0.6982820413048983
2.0225775513704223,13.833431446291407,-0.041845242804630776,1.7185492444682287,-0.6752079548042458
2.0142947138449703,13.492644640745485,-0.04098313244988762,1.6893188109909976,-0.6530503849353584
2.0061833647434866,13.157638354252175,-0.040130358564952534,1.6607440539421128,-0.631754825808853
1.998241560674517,12.82828401116329,-0.03928768212474262,1.6327993769467337,-0.6112710894721397
1.9904672191693669,12.504458025908399,-0.03845573292675733,1.6054604756021706,-0.5915528935420108
1.9828581432111798,12.186041552730188,-0.03763502665511421,1.5787042561799476,-0.5725574942672975
1.9754120425710577,11.87292025107202,-0.03682597974610705,1.5525087604017433,-0.5542453594137146
1.968126552361327,11.56498406545543,-0.03602892235120059,1.5268530957641682,-0.5365798761241355
1.960999249161087,11.262127018785133,-0.035244109651199076,1.5017173709387894,-0.5195270895565767
1.954027665022014,10.96424701810929,-0.03447173173953006,1.4770826358196496,-0.5030554686568541
1.9472166048472546,10.671246430142958,-0.033638870008063856,1.4529232438436923,-0.48510573817565716
1.94057007861915,10.383031102799471,-0.032826392272981196,1.4292300295911786,-0.4679677382500207
1.934084043739757,10.099509448572128,-0.032033956520950084,1.4059865126822502,-0.45159522651570816
1.9277545286260087,9.820593101655252,-0.03126119461653214,1.3831769564865128,-0.4359450939898514
1.9215776373903861,9.546196773408298,-0.030507717739693553,1.3607863259830442,-0.42097711902609924
1.9155495535091205,9.276238115964546,-0.029773121072962785,1.3388002484544848,-0.40665374316502745
1.9096665426182153,9.010637593439665,-0.029056987836088132,1.3172049767943186,-0.3929398667069943
1.9039249545592973,8.749318360237634,-0.028358892753093203,1.2959873552259786,-0.3798026620720307
1.8983212247814425,8.492206145990036,-0.02767840502545408,1.275134787250012,-0.36721140322048584
1.89285187519135,8.239229146699891,-0.027015090875472818,1.2546352056514154,-0.3551373095926574
1.8875135145322446,7.990317921693389,-0.026368515715579934,1.234477044413604,-0.3435534031886409
1.8823028383614786,7.7454052960121835,-0.025738245992078714,1.2146492123984474,-0.33243437755386024
1.8772166286877119,7.504426267905984,-0.025123850745589,1.1951410686635628,-0.32175647756351045
1.8722517533206506,7.267317921109758,-0.024524902925022997,1.175942399298706,-0.31149738901250423
1.8674051649794268,7.034019341612609,-0.023940980487215973,1.1570433956727675,-0.3016361371182056
1.862673900199681,6.804471538646165,-0.0233716673102421,1.1384346339916755,-0.29215299313279963
1.8580550780741683,6.578617369639449,-0.022816553944886277,1.1201070560754833,-0.28302938834191194
1.8535458988571152,6.356401468904881,-0.02227523822564412,1.1020519512702067,-0.2742478347972138
1.8491436424585586,6.137770179836199,-0.02174732575992294,1.0842609394165972,-0.26579185219424506
1.84484566685139,5.922671490414132,-0.02123243031176258,1.0667259548040908,-0.257645900363439
1.8406494064107795,5.711054971829352,-0.020730174094341424,1.0494392310436917,-0.2497953168931177
1.8365523702029714,5.502871720045125,-0.020240187983739354,1.0323932867985974,-0.24222625944872056
1.832552140238111,5.298074300133667,-0.019762111664862664,1.0155809123159933,-0.23492565239333113
1.8286463696997184,5.096616693231301,-0.019295593719065793,0.9989951567076697,-0.22788113735119953
1.824836693113361,4.898622067767224,-0.01880117214450782,0.9809510979330853,-0.25446335128675174
1.8211222418068989,4.70422510621033,-0.018343340920115688,0.9630185176358479,-0.28269882687688536
1.817495765843879,4.513403813137266,-0.01792141871008095,0.9451944130947809,-0.31248055619704934
1.8139501577949373,4.326136782158148,-0.017534661779335166,0.9274758966963992,-0.3437039756357016
1.8104784645911014,4.142403173321096,-0.01718227025902531,0.9098601916741376,-0.3762667355155444
1.8070738981781687,3.962182691330991,-0.016863393870302622,0.8923446282269085,-0.41006847486546705
1.8037298450767218,3.7854555645077177,-0.01657713714416599,0.8749266400058373,-0.44501060042460966
1.8004398749451416,3.6122025244110887,-0.016322564171636515,0.8576037609604532,-0.4809960689665608
1.7971977482364516,3.4424047860612355,-0.01609870291526189,0.8403736225380669,-0.5179291720316058
1.7939974230339424,3.276044028684172,-0.015904549109831047,0.8232339512325683,-0.555715322147986
1.7908330611452397,3.113102376912771,-0.015739069777195188,0.8061825664814599,-0.594260839609047
1.7876990335297989,2.9535623823733594,-0.015601206377215305,0.7892173789126452,-0.6334727388516305
1.784589925130671,2.797407005587562,-0.01548987761406303,0.7723363889453418,-0.6732585134516683
1.781500539177828,2.6446195981177745,-0.0154039819143655,0.755537685752539,-0.7135259187151684
1.7784259010272936,2.495183884882948,-0.015342399590979407,0.7388194465957092,-0.7541827507960392
1.775361261597848,2.349083946568772,-0.015303994703477384,0.7221799365460673,-0.7951366212157646
1.77230210046513,2.2063042020531043,-0.01528761662370264,0.7056175086106117,-0.8362947255930104
1.7692441286715632,2.0668293907634876,-0.015292101311965147,0.6891306042855431,-0.8775636053128839
1.7661832913097086,1.93064455487848,-0.01531627230658202,0.6727177545645234,-0.9188489007747228
1.763115769936403,1.7977350212785588,-0.015358941426471172,0.6563775814346969,-0.9600550947528103
1.7600379848754208,1.668086383145134,-0.015418909183352175,0.6401087998995523,-1.0010852442849898
1.7569465974674108,1.541684481097711,-0.015494964896749695,0.6239102205746868,-1.04184069936842
1.7538385123275972,1.4185153837491953,-0.0155858865013859,0.6077807529104715,-1.0822208065881647
1.7507108796741948,1.2985653675476811,-0.015690440032637126,0.5917194091046837,-1.1221225956314438
1.7475610977937852,1.1818208957593583,-0.015807378771458384,0.575725308778551,-1.1614404464466341
1.7443868157140912,1.0682685964313485,-0.015935442025481722,0.5597976845015611,-1.2000657345901011
1.7411859361597632,0.9578952391547837,-0.01607335351779698,0.5439358882640776,-1.2378864520644484
1.7379566188730693,0.8506877104271204,-0.016219819349142274,0.5281393990125587,-1.2747868006880718
1.734697284388878,0.7466329873878337,-0.01637352549277115,0.5124078313803155,-1.3106467547479936
1.7314066183621994,0.6457181096730373,-0.016533134774014562,0.49674094576763755,-1.345341589377061
1.7280835765569587,0.547930149101358,-0.0166972832783926,0.48113865994915656,-1.3787413707657952
1.7247273906168286,0.4532561768650467,-0.016864576122907805,0.4656010624139414,-1.410710403974375
1.721337574753068,0.36168322785610485,-0.01703358251469776,0.450128427675466,-1.4411066337615308
1.7179139335006646,0.2731982617060851,-0.017202830009337363,0.4347212338247105,-1.46978099351077
1.7144565707129793,0.18778812005955103,-0.017370797867516524,0.4193801826406179,-1.4965766970357182
1.7109658999869,0.10543947953367194,-0.017535909393277142,0.4041062226181879,-1.521328467823969
1.7074426567356626,0.026138799739293006,-0.01769652311909543,0.3889005753256317,-1.5438617001905026
1.7038879121555182,-0.05012773434904716,-0.017850922682350067,0.3737647655577641,-1.5639915469432368
1.7003030893659368,-0.12337427648601818,-0.017997305213463013,0.3587006558119302,-1.5815219286410964
1.6966899820418584,-0.19361539063448419,-0.01813376802732108,0.34371048567273393,-1.596244460534897
1.6930507759016096,-0.26086613087657184,-0.018258293375165463,0.32879691674811046,-1.6079372950955246
1.689388073466891,-0.32514213093579514,-0.018368730972023378,0.31396308384410937,-1.6163638810508631
1.6857049225734901,-0.38645970462884094,-0.01846277796198307,0.299212653086329,-1.621271644656162
1.6820048491857358,-0.4448359587046369,-0.018537955915560057,0.2845498876716486,-1.6223906063669251
1.6782918951579058,-0.5002889196549987,-0.0185915843627384,0.2699797218320033,-1.6194319574228826
1.6745706616976135,-0.5528376761743061,-0.018620750240185852,0.25550784336105,-1.6120866379271792
1.6708463594283574,-0.6025025389718834,-0.01862227245237531,0.24114078461475696,-1.6000239835212628
1.6671248661349032,-0.6493052195458446,-0.01859266048216755,0.22688602112487963,-1.582890545684844
1.6634127935282734,-0.693269029225462,-0.018528065584130296,0.21275207567129437,-1.5603092468517328
1.6597175647233189,-0.7344190991485604,-0.018424222465414652,0.198748623559706,-1.5318791144109125
1.656047504641132,-0.7727826206564856,-0.018276378356451527,0.18488659151956227,-1.4971759595038572
1.6524119463307074,-0.808389103553715,-0.018079204747795456,0.17117823745272537,-1.4557545446889497
1.648821357415965,-0.8412706463345927,-0.01782668439962921,0.1576371903560761,-1.407153042819017
1.6452874927951415,-0.8714622071671414,-0.01751196180860451,0.14427841796941937,-1.3509009585267002
1.6418235828185952,-0.8990018562405666,-0.017127137956857656,0.13111807276483217,-1.2865321981095896
1.638444571232402,-0.9239309779001985,-0.01666297790507352,0.11817314383151874,-1.2136056595205023
1.6351674254994677,-0.9462943736662055,-0.016108479424270104,0.10546081382857173,-1.131736553986912
1.632011555827773,-0.9661401943102774,-0.015450217292678346,0.09299739261216668,-1.0406425162239292
1.6289994017830565,-0.9835196027443516,-0.014671323154487517,0.08079669172858904,-0.9402089423457389
1.626157282246211,-0.9984860483776288,-0.013749872213966355,0.0688677646041921,-0.8305767640006092
1.6235166648842316,-1.0110940415543013,-0.012656301405826026,0.05721216716254911,-0.7122506750713148
1.6211161134148186,-1.0213974056663062,-0.011349213288302462,0.04582147395750489,-0.5862128929314828
1.6190043643157026,-1.029447251625804,-0.009768277702858647,0.03467698563747947,-0.45400336348378145
1.6172454525665994,-1.035290533817502,-0.007820839788173018,0.023755836279501806,-0.31769530535762386
1.615928397035699,-1.0389714485607442,-0.005349715520831022,0.013053311152914129,-0.1796752729561943
1.6151923031178153,-1.0405431131045475,-0.002011223658006968,0.0026633342850906887,-0.042172078885355124
