x,y,v_x,v_y,omega
2.375,32.48,0.0,2.1025641025641026,-3.591836734693878
2.374284300691424,32.001325979948895,-0.006223472248487275,2.059818680488933,-3.4047264293167605
2.372225776774783,31.532324232729817,-0.011676735722305563,2.018457382285677,-3.231773139069916
2.368991310578817,31.07268508921896,-0.016449057286090675,1.9784047352000442,-3.071558223323518
2.3647285462768877,30.622115574751486,-0.020618458382860902,1.9395910427779866,-2.9228333294617643
2.359568295599866,30.180338149593435,-0.02425328663472023,1.9019517846833365,-2.7844969010951752
2.3536266101473515,29.74708957813269,-0.027413543387142976,1.8654270975839937,-2.6555743393196245
2.3470065715891306,29.322119909695555,-0.030152009293041973,1.8299613236084793,-2.5352011837948814
2.339799842293429,28.905191556697957,-0.0325152019739273,1.7955026155010954,-2.4226088018762924
2.332088011820205,28.496078458104737,-0.034544193445411556,1.7620025896573392,-2.3171121698682975
2.323943768929317,28.09456531801277,-0.03627530995361522,1.7294160198380162,-2.218099406588547
2.31543192400801,27.700446910682544,-0.03774073284036047,1.697700565642222,-2.1250227802667627
2.3066103029126466,27.313527444586832,-0.038969015814970684,1.6668165308422223,-2.0373909587027286
2.297530529984128,26.93361997907693,-0.03998553138953553,1.6367266475047677,-1.9547623121258495
2.2882387153074872,26.56054588812784,-0.0408128571029952,1.6073958824873102,-1.876739110295328
2.2787760590426487,26.1941343663465,-0.04147111041733999,1.5787912634373897,-1.8029624815717071
2.269179383774681,25.834221973036733,-0.041978239738901156,1.5508817218649373,-1.7331080231582687
2.2594816042533017,25.480652210631924,-0.042350277838312814,1.523637951220331,-1.6668819693798118
2.2497121425607656,25.133275134247285,-0.04260156296634709,1.4970322782113208,-1.604017839466023
2.239919971037109,24.791950590623124,-0.042547754630667324,1.4710072315640126,-1.5398691960553563
2.2301486722637467,24.45654408755194,-0.042420060789874224,1.4455710560114605,-1.4790313114517888
2.2204142402713685,24.126922889045325,-0.04222717392645919,1.420700235350404,-1.4212901826704631
2.210730775023193,23.802959527010387,-0.04197687170984708,1.396372477996896,-1.366448264191602
2.201110681434078,23.484531528868096,-0.041676116021589396,1.372566636283878,-1.3143230023897972
2.1915648469255387,23.171521162992967,-0.04133114057440459,1.3492626321955226,-1.2647455179571547
2.182102799977908,22.86381520056353,-0.04094752853542842,1.3264413889300273,-1.2175594196260626
2.1727328518380364,22.561304692545388,-0.040530281376498035,1.3040847677494618,-1.172619734577273
2.163462223278179,22.263884760646317,-0.04008388001356274,1.2821755096337635,-1.1297919427151852
2.154297158073303,21.971454401188105,-0.03961233915927576,1.260697181307208,-1.088951103546754
2.145243024665172,21.683916300933944,-0.039119255694036084,1.2396341252507044,-1.0499810657486848
2.136304407308149,21.40117666399453,-0.03860785175833859,1.2189714133528968,-1.0127737506792602
2.127485187840144,21.12314504901182,-0.038081013180836495,1.1986948038880545,-0.9772285021113977
2.118788619089649,20.84973421588763,-0.03754132377998555,1.1787907015396841,-0.9432514953535981
2.110217390813708,20.5808599813857,-0.03699109601080739,1.1592461202162525,-0.9107551997033817
2.101773688959832,20.316441082991403,-0.03643239837072536,1.1400486484297994,-0.8796578888589168
2.0934592489554373,20.056399050463533,-0.03586707992835807,1.1211864170299315,-0.8498831945119365
2.085275403649687,19.80065808455801,-0.03529679229555636,1.1026480691050649,-0.8213596988698536
2.077223126463329,19.549144942444716,-0.03472300932494662,1.0844227318800908,-0.7940205623168028
2.069303070241026,19.301788829376164,-0.03414704478203692,1.066499990455143,-0.7678031828303507
2.061515602246723,19.05852129620076,-0.03357006821190197,1.0488698632440419,-0.7426488841298824
2.053860835694926,18.819276142344595,-0.0329931191950314,1.031522778983476,-0.7185026298502669
2.046338658168565,18.583989323914047,-0.032417120164626445,1.0144495551952257,-0.695312761315556
2.0389487572367573,18.352598866597305,-0.0318428879380511,0.997641377993842,-0.673030756736732
2.031695486971924,18.12515389700841,-0.031229027408322518,0.9801409662574024,-0.6707312399248525
2.0245811316934206,17.90171842327593,-0.030634931535188693,0.9627761966337054,-0.6711067743829099
2.0176010320717266,17.682261727745693,-0.030061586914320867,0.9455428949335926,-0.6740149383503643
2.0107503234674367,17.466754032376926,-0.029509792253421617,0.9284370647948184,-0.6793181445779989
2.0040239773662267,17.255166458843654,-0.028980173844055334,0.9114548789727647,-0.6868833019423795
1.9974168393944545,17.04747099056505,-0.028473199823528177,0.8945926712759763,-0.696581491907118
1.9909236641831762,16.843640436520744,-0.02798919331802223,0.8778469291093114,-0.7082876584220513
1.9845391473282756,16.643648396715157,-0.027528344550678627,0.8612142865914247,-0.721880309922648
1.9782579546759347,16.447469229162188,-0.02709072199141575,0.8446915182169987,-0.737241232153516
1.9720747491457487,16.255078018267902,-0.0266762826188971,0.8282755330376576,-0.7542552105922827
1.965984215288271,16.0664505444946,-0.026284881359172032,0.8119633693388705,-0.7728097612937426
1.9599810817595604,15.881563255194386,-0.025916279760048767,0.7957521897934103,-0.7927948690093195
1.9540601418823096,15.700393236504507,-0.02557015395517599,0.7796392770751185,-0.8141027314637573
1.9482162724512522,15.522918186200084,-0.025246101967062992,0.7636220299198686,-0.8366275086896638
1.9424444509297507,15.349116387402567,-0.0249436503938185,0.7476979596237602,-0.8602650763311134
1.936739771174639,15.178966683044084,-0.02466226052019696,0.7318646869717407,-0.8849127818299056
1.9310974578175155,15.01244845098913,-0.024401333889572652,0.716119939593095,-0.910469202402144
1.9255128794227012,14.84954157971541,-0.02416021736968194,0.7004615497435923,-0.9368339036983114
1.9199815605349326,14.690226444455373,-0.023938207741349273,0.6848874525175923,-0.9639071980166668
1.9144991927235477,14.53448388369868,-0.02373455583591065,0.6693956844971283,-0.9915899009071653
1.9090616447243998,14.382295175953878,-0.02354847024363667,0.6539843828489698,-1.0197830849607334
1.9036649717759897,14.233642016664476,-0.023379120612103555,0.6386517848849711,-1.0483878295260265
1.8983054242423325,14.088506495170545,-0.023225640550131408,0.6233962281057149,-1.0773049650321063
1.8929794556118669,13.946871071601834,-0.023087130149569746,0.6082161507526344,-1.1064348105200752
1.8876837299592766,13.808718553581834,-0.022962658133825593,0.5931100928995342,-1.1356769028987723
1.882415128955452,13.67403207261449,-0.0228512636385603,0.5780766981208325,-1.1649297163383547
1.8771707585099833,13.542795060015777,-0.022751957626387327,0.5631147157810251,-1.1940903701000805
1.87194795513058,13.414991222241191,-0.02266372393364023,0.5482230039979678,-1.2230543229700654
1.866744292084732,13.290604515447125,-0.022585519943299315,0.533400533341724,-1.251715052318479
1.8615575854507522,13.1696191191086,-0.022516276873914217,0.518646391341113,-1.2799637156430697
1.8563859001482277,13.052019408497952,-0.02245489966977839,0.5039597878818985,-1.3076887922769262
1.8512275560418503,12.937789925808222,-0.022400266472634132,0.4893400615940049,-1.3347757027454163
1.8460811342177774,12.826915349680757,-0.022351227649738615,0.47478668734046436,-1.3611064030476407
1.840945483538139,12.719380462868706,-0.022306604347116902,0.46029928493824623,-1.3865589509161804
1.8358197275872512,12.615170117735797,-0.02226518653016909,0.4458776292609656,-1.411007040880062
1.830703272132649,12.514269199252748,-0.022225730466370865,0.43152166189599284,-1.4343195047272972
1.825595813235422,12.416662585111006,-0.022186955596474003,0.41723150455394176,-1.4563597737468277
1.820497346157738,12.322335102524733,-0.022147540731212115,0.40300747445712076,-1.476985298943023
1.8154081752311664,12.231271481236142,-0.022106119499845173,0.38885010196540215,-1.4960469252854922
1.810328924867746,12.14345630217582,-0.022061274964678954,0.37476015073303814,-1.5133882160217242
1.8052605519171192,12.058873941157817,-0.022011533301640625,0.36073864072786566,-1.5288447231965372
1.8002043595979076,11.977508506908425,-0.021955356430634964,0.34678687448423784,-1.5422432008724507
1.795162013260469,11.899343772637593,-0.021891133460134257,0.3329064670012519,-1.553400758247174
1.7901355582720029,11.824363100262861,-0.021817170787398282,0.3190993797355331,-1.5621239510888654
1.7851274403546769,11.752549356288934,-0.021731680667609984,0.30536795916819137,-1.5682078119019922
1.780140528754434,11.683884818233892,-0.02163276803015476,0.29171498044087146,-1.571434822349708
1.7751781426742967,11.618351070380648,-0.021518415275386144,0.278143696543868,-1.5715738362014182
1.7702440814741314,11.555928887527777,-0.021386464726052674,0.264657893481102,-1.5683789681800873
1.7653426592230161,11.496598105331593,-0.021234598327123377,0.2512619517031125,-1.561588474611231
1.760478744296776,11.440337475793505,-0.02106031407496453,0.23796091384547927,-1.5509236672523652
1.7556578048513498,11.387124506488885,-0.020860898493959383,0.22476055836860967,-1.5360879243134224
1.7508859611872736,11.336935282310652,-0.020633394237138003,0.211667477963852,-1.51676589564335
1.7461700462751089,11.289744268896644,-0.0203745615208152,0.1986891604188235,-1.4926230469177546
1.741517676073574,11.24552409765166,-0.02008083153600843,0.18583406779842082,-1.4633057569161125
1.7369373318018302,11.204245333552791,-0.01974824908785085,0.17311170697434375,-1.4284422817590918
1.732438457122719,11.165876229019585,-0.019372400295725536,0.16053268027092443,-1.387645042824716
1.7280315744140866,11.13038247044037,-0.018948318909772804,0.14810869867876864,-1.340514897473726
1.7237284262103256,11.09772692903087,-0.018470361122933373,0.13585253096907648,-1.2866483337057586
1.7195421509083948,11.067869435293098,-0.017932032806897605,0.12377784935938294,-1.2256489116113236
1.7154875066355149,11.040766607300732,-0.01732574347901511,0.11189891579162867,-1.157144765648882
1.7115811648647905,11.01637177812502,-0.016642445831633285,0.10023003356239799,-1.0808145543008627
1.7078421076697021,10.994635086960425,-0.015871094995221595,0.08878467221668043,-0.9964247700172373
1.7042921821147414,10.975503819671125,-0.014997822874002075,0.07757417377722722,-0.9038814496778251
1.7009568963389512,10.958923099818776,-0.01400466213286874,0.06660599885191189,-0.8032982541274061
1.6978665911384194,10.944837021538877,-0.012867557002189743,0.05588163836460176,-0.6950790775886113
1.6950582013863018,10.933190241030875,-0.011553223451009129,0.04539471387889682,-0.5800044617998774
1.6925779682944082,10.92392983240185,-0.010014020826325036,0.03513057854740187,-0.45929507850931695
1.690485798682694,10.91700674710669,-0.008178758405974613,0.025070163149636997,-0.3346044851283228
1.6888630089495569,10.912375221102781,-0.005932456664782404,0.015203976014797664,-0.2078791541658322
1.6878298190543832,10.90998546681978,-0.0030518032932484664,0.0055764960112940475,-0.0810380883327447
