x,y,v_x,v_y,omega
2.375,32.48,0.0,3.3846153846153846,-3.1020408163265305
2.3741956385350305,31.8116130513793,-0.008043614649695045,3.299254101591591,-2.885732128871919
2.371912285322948,31.15991966330227,-0.014789917471130738,3.217679779178717,-2.692125172535094
2.3683892969721243,30.524188715876043,-0.0204399660371032,3.1396296950835185,-2.518150584871719
2.3638291861883345,29.903739181983344,-0.025161141800798908,3.064865643843502,-2.3612271744265994
2.3584037398304227,29.297935517825817,-0.02909332177831727,2.9931709977317515,-2.2191740498660657
2.352259025996155,28.706183597186293,-0.03235381656435858,2.924348208663497,-2.0901402826054607
2.345519510114464,28.127927109310164,-0.03504134225255172,2.858216670097799,-1.9725482747194807
2.3382914527741705,27.56264435473656,-0.03723923115038238,2.7946108756382433,-1.8650479104486821
2.330665725728908,27.00984538474398,-0.03901803930224655,2.7333788242875623,-1.7664792448030848
2.3227201544502796,26.469069439079618,-0.040437673484035874,2.6743806323560517,-1.6758419899249468
2.3145214737547537,25.939882643870774,-0.041549133471224346,2.617487319732378,-1.5922704438112654
2.3061269659248067,25.421875937476553,-0.042395944828245,2.5625797442098315,-1.5150127987667688
2.2975858372782643,24.914663196829853,-0.04301534163717939,2.509547662257178,-1.443413991723329
2.2889403784826348,24.41787954076959,-0.04343924631911418,2.458288898345449,-1.3769014322145463
2.280226945436168,23.931179790143066,-0.04369508414555276,2.408708607919785,-1.3149730787593177
2.271476790766371,23.45423706720026,-0.04380646255241836,2.3607186215082785,-1.2571874398959644
2.262716770563396,22.986741519108016,-0.04379373947733159,2.3142368594141325,-1.203155158996974
2.253969946587557,22.52839915236273,-0.04367450028105905,2.2691868080387585,-1.1525319074551896
2.2452561006482368,22.07893076653841,-0.04346395911214358,2.225497050204428,-1.1050123627789397
2.2365921749749953,21.638070977223805,-0.04317529762026824,2.1831008429416205,-1.0603250895457774
2.2279926500571734,21.20556731921747,-0.04281995155795243,2.1419357371217473,-1.018228174323789
2.2194698695106316,20.78117942209685,-0.042407853907467104,2.101943234084419,-0.9785054923324212
2.2110343199564886,20.36467825118274,-0.0419476416339611,2.063068475056679,-0.9409635051408872
2.2026948726009383,19.955845407705972,-0.04144683192154094,2.0252599597110064,-0.9054285061486544
2.194458992135026,19.55447248266723,-0.04091197273757999,1.9884692906764279,-0.871744244785359
2.186332917686712,19.16036045947793,-0.04034877174556308,1.9526509412165889,-0.8397698719551199
2.1783218198209804,18.773319160993147,-0.03976220691175452,1.917762043631263,-0.8093781587437372
2.1704299369701103,18.39316673700675,-0.03915662159694561,1.8837621962326507,-0.780453948211205
2.162660694163571,18.019729188683243,-0.03853580646844745,1.8506132870024254,-0.7528928065278757
2.1550168064976316,17.6528399267574,-0.03790307019094708,1.818279332256,-0.7265998450369471
2.1475003694242267,17.292339360648597,-0.037261300543098265,1.7867263288320177,-0.7014886892440866
2.140112937635125,16.938074515916206,-0.03661301734792243,1.7559221184918965,-0.6774805744119926
2.1328555940613634,16.589898677731025,-0.03596041838969308,1.725836263359929,-0.6545035505065809
2.12572901029137,16.247671058258835,-0.03530541931023696,1.6964399313619576,-0.6324917818099582
2.118733499527623,15.911256486049385,-0.03464968832723409,1.6677057907325366,-0.6113849286707701
2.1118690630457966,15.580525115700244,-0.03399467649102967,1.6396079127588807,-0.5911276006760516
2.1051354309876418,15.255352156222695,-0.03334164409051819,1.6121216820166122,-0.5716688720584691
2.098532098205649,14.935617616678147,-0.03269168372941239,1.5852237134288814,-0.5529618514464129
2.0920583557808206,14.621206067780442,-0.03204574051886954,1.5588917755481837,-0.5349632991608854
2.0857133187520627,14.312006418273597,-0.031404629768711965,1.5331047195202436,-0.5176332861947274
2.0794959505246466,14.007911704997309,-0.030769052505449493,1.5078424132426607,-0.5009348898030422
2.07340508436416,13.708818895645198,-0.030139609099418,1.4830856802784527,-0.4848339213107335
2.067445872664622,13.414629340272857,-0.02945250789595994,1.4588098734449637,-0.4674837299314467
2.061622671246727,13.125247919671352,-0.028779506282989926,1.4350043325700867,-0.4509214386064595
2.05593265971201,12.840582246946315,-0.02812060906418181,1.411652394680284,-0.4351019900597449
2.050373021614069,12.560543192403237,-0.02747577191522448,1.3887381507504784,-0.4199833914688936
2.044940953561673,12.285044737039275,-0.026844908608734796,1.3662464028891614,-0.40552647297660727
2.0396336729677915,12.014003834309428,-0.026227897330080997,1.344162624409324,-0.3916946677653934
2.0344484246150025,11.747340279612512,-0.02562458619780853,1.3224729225598133,-0.378453811548536
2.0293824861864564,11.484976586985361,-0.025034798087654242,1.3011640037116843,-0.3657719595657462
2.024433172893049,11.226837872532982,-0.02445833484642187,1.2802231408121072,-0.35361921937910956
2.019597841311308,10.972851744158309,-0.023894980970987974,1.2596381429346184,-0.3419675979476878
2.0148738925323917,10.722948197187929,-0.023344506818170956,1.2393973267691663,-0.330790861620512
2.010258774710283,10.477059515520146,-0.02280667140292128,1.2194894899086588,-0.3200644078304343
2.00574998508648,10.23512017794921,-0.022281224835102927,1.1999038858007218,-0.3097651473976998
2.0013450715590815,9.997066769344713,-0.021767910438884725,1.180630200244258,-0.2998713964641994
1.9970416338558614,9.762837896388259,-0.02126646659331775,1.1616585293202657,-0.2903627771788979
1.9928373243637365,9.532374107590698,-0.020776628327931396,1.14297935865535,-0.28122012634343413
1.988729848660639,9.305617817332713,-0.02029812870304233,1.1245835439245053,-0.27242541130568115
1.9847169657902493,9.082513233689546,-0.01983070000085639,1.106462292507179,-0.2639616524592832
1.9807964883151352,8.86300628981709,-0.01937407475028413,1.088607146217386,-0.2558128517698636
1.9769662821795442,8.647044578691869,-0.018927986605626463,1.0710099650348153,-0.2479639268045978
1.9732242664092947,8.434577291011436,-0.018492171096865975,1.0536629117694998,-0.24040064979194284
1.9695684126728905,8.225555156074709,-0.018066366267177652,1.0365584375977717,-0.23310959128317693
1.9659967447250315,8.019930385473739,-0.017650313211411393,1.01968926841193,-0.22607806802762576
1.962507337751124,7.817656619439511,-0.017243756527664494,1.0030483919303608,-0.2192940947095534
1.9590983176290948,7.618688875694595,-0.016846444692626503,0.9866290455187958,-0.21274633922713315
1.9557711647725575,7.423158933737145,-0.01642508387274655,0.9686703740556997,-0.2412436394490531
1.952524769688885,7.231209827690044,-0.016038866963980245,0.9508206864153101,-0.27130049977939796
1.9493521725344947,7.042820051467626,-0.015687104579922135,0.9330770758088776,-0.3028126292975316
1.9462465572330183,6.857968669247292,-0.015369048434840977,0.915436746394461,-0.33567797955270806
1.9432012626638198,6.676635293674128,-0.015083897257144263,0.8978970093371935,-0.3697965206954836
1.9402097927193689,6.498800064816862,-0.014830802187366137,0.8804552792354675,-0.4050700219510495
1.9372658253310395,6.3244436298029285,-0.014608871695927391,0.8631090709038717,-0.4414018355343495
1.934363220556188,6.15354712306193,-0.01441717605258616,0.845855996506115,-0.47869668310764485
1.931496027813296,5.986092147107957,-0.014254751376334564,0.828693763033624,-0.5168604438752576
1.928658492346515,5.822060753791792,-0.014120603291473773,0.8116201701280248,-0.5557999433973152
1.9258450609960986,5.661435425954153,-0.014013710212691925,0.7946331082483512,-0.5954227421841214
1.9230503873469145,5.504199059410659,-0.013933026279150515,0.7777305571865937,-0.6356369231048773
1.9202693363235164,5.350334945198185,-0.013877483954829363,0.7609105849381639,-0.676350876608383
1.9174969882970672,5.199826752010665,-0.013845996309661998,0.7441713469370325,-0.7174730827084698
1.9147286427667725,5.052658508750085,-0.01383745899328474,0.727511085668763,-0.7589118886325559
1.9119598216763944,4.908814587115362,-0.01385075191049589,0.7109281306784659,-0.8005752809670782
1.9091862724248703,4.768279684148027,-0.013884740604745906,0.6944208989949021,-0.842370651057712
1.9064039706290834,4.63103880464887,-0.013938277353123175,0.6779878959966454,-0.8842045523342111
1.9036091226964382,4.497077243374058,-0.014010201973328367,0.6616277167514674,-0.9259824481282147
1.900798168265105,4.366380566912309,-0.0140993423400053,0.6453390478660205,-0.9676084484361875
1.8979677825706567,4.238934595136747,-0.014204514604476366,0.6291206698896026,-1.008985033947372
1.8951148787993721,4.114725382115445,-0.014324523108369671,0.6129714603234047,-1.0500127655067282
1.892236610490758,3.9937391963535696,-0.014458159977772037,0.5968903972953483,-1.090589977013714
1.8893303740549467,3.8759625002269757,-0.014604204380339431,0.5808765639705782,-1.1306124495678056
1.8863938114745948,3.761381928452007,-0.014761421423180002,0.5649291537791089,-1.169973064459278
1.8834248132658546,3.6499842654185706,-0.014928560664221718,0.5490474765552711,-1.2085614323675515
1.8804215217790219,3.5417564211931705,-0.01510435420410446,0.5332309656987406,-1.2462634958682801
1.8773823349266814,3.4366854059748597,-0.015287514319301317,0.5174791864843834,-1.282961102063828
1.8743059104357445,3.334758302759596,-0.015476730590068807,0.5017918456682648,-1.3185315418403751
1.8711911707298547,3.2359622379367323,-0.015670666468827553,0.4861688025603603,-1.3528470519206888
1.8680373085604178,3.140284349504576,-0.015867955225541453,0.4706100817611929,-1.3857742755290818
1.864843793518221,3.0477117525494286,-0.01606719519642879,0.4551158877902862,-1.4171736771223122
1.8616103795735073,2.958231501583459,-0.0162669442507078,0.43968662186942137,-1.4468989062806
1.8583371138107547,2.8718305492801512,-0.01646571337681857,0.42432290116366767,-1.4747961055178418
1.8550243465456338,2.7884957010809472,-0.01666195927438896,0.4090255808283645,-1.50070315649231
1.8516727430361177,2.708213565072029,-0.016854075820771003,0.3937957792608097,-1.524448858928303
1.8482832970279595,2.630970496444835,-0.01704038426081335,0.37863490701114016,-1.5458520365696087
1.8448573464073723,2.556752535757031,-0.017219121945056995,0.36354469986691046,-1.5647205647872076
1.8413965912714738,2.4855453401015133,-0.01738842941392871,0.34852725668827644,-1.5808503152186226
1.8379031147708207,2.417334106169502,-0.017546335592602994,0.3335850826318357,-1.594024014263057
1.8343794071294286,2.352103484060848,-0.017690740821318926,0.3187211384547082,-1.60401001474488
1.830828393307644,2.2898374805528086,-0.0178193973965274,0.30393889662567236,-1.610560984101423
1.8272534648444538,2.2305193503932728,-0.017929887235374555,0.2892424049696869,-1.6134125188030128
1.8236585165015669,2.174131474045506,-0.018019596193494702,0.2746363585079925,-1.6122817044807605
1.8200479884368241,2.1206552201963014,-0.018085684453931383,0.2601261799840677,-1.606865656049386
1.8164269147667291,2.0700707912762084,-0.01812505224701979,0.2457181092168691,-1.5968400943656176
1.8128009795489701,2.0223570502755486,-0.01813429993056936,0.2314193007897177,-1.5818580491873209
1.8091765814446759,1.9774913273465131,-0.018109681112375292,0.2172379285006546,-1.561548827585127
1.8055609086375544,1.9354492051748338,-0.018047046958837253,0.203183293216128,-1.5355174601118673
1.801962026043715,1.8962042830627013,-0.0179417789795577,0.18926592790518973,-1.503344945012607
1.7983889775260054,1.8597279213595925,-0.017788706197538615,0.17549768912588543,-1.4645897694070742
1.7948519068711222,1.8259889707182886,-0.01758200035129368,0.16189181728714566,-1.4187914178283885
1.7913622029334764,1.7949534952366655,-0.017315039025164007,0.14846293752909068,-1.3654769122168258
1.7879326769960076,1.7665845057119007,-0.01698022034952415,0.13522695771857313,-1.3041718990521076
1.7845777847159043,1.7408417300817938,-0.0165687024515076,0.12220079858247912,-1.2344184425638383
1.7813139121343342,1.7176814638999431,-0.01607002336419215,0.10940186323601994,-1.1558025044433538
1.778159756989013,1.6970565652816099,-0.015471528089020045,0.09684712294730938,-1.06799500328856
1.775136855999763,1.6789166853237383,-0.014757481803482311,0.08455167663139776,-0.9708110185819735
1.7722703407668332,1.6632088506558667,-0.013907670525811903,0.07252667004730914,-0.8642912480361021
1.7695900573973875,1.6498785216912992,-0.012895163168645724,0.06077661959835105,-0.748806295911838
1.7671322725722893,1.6388711963978935,-0.011682685082337184,0.0492966333356939,-0.6251742797495641
1.7649423468978191,1.630134432014117,-0.0102165716623637,0.03807101050207556,-0.4947613339624929
1.763079105034017,1.623619670612257,-0.008415846975657242,0.027076603516532335,-0.3595027006211725
1.7616226903999772,1.619282173117849,-0.006148299364742307,0.016298371427535763,-0.22175353863801286
1.7606924444483587,1.617074177905657,-0.003154160151441073,0.00578158069437041,-0.08388727731790374
