x,y,v_x,v_y,omega
2.375,32.48,0.0,2.41025641025641,-7.63265306122449
2.373706655164706,32.00286149408969,-0.012933448352939955,2.3611286488466026,-7.236416894796786
2.369984341842131,31.535379597951486,-0.02428968487281034,2.3136903125354746,-6.870348977228956
2.3641302044872474,31.077226885867805,-0.03425168867602445,2.2678368083013614,-6.53138130661393
2.3564071542894163,30.62809587043308,-0.04297881330228663,2.2234733460459064,-6.216825478429282
2.347048244546724,30.187697170145814,-0.05061028412463989,2.180513656826717,-5.924317513788194
2.336260406362159,29.755757912163084,-0.05726809772101047,2.1388789230006084,-5.6517719574703555
2.324227652489624,29.332020331945788,-0.06305944100433412,2.0984968791723246,-5.397343466769817
2.311113836238837,28.916240538849962,-0.06807872150353919,2.0593010517859582,-5.159394497268442
2.2970650360487888,28.50818742247042,-0.07240928039694075,2.021230112009466,-4.936467984008648
2.2822116235184207,28.10764167909005,-0.0761248449067433,1.9842273217942052,-4.727264140670104
2.2666700625087506,27.714394941206834,-0.07929076518995451,1.9482400570379756,-4.530620672732929
2.250544478790067,27.32824899600987,-0.08196507199688677,1.9132193949316811,-4.345495835862002
2.233928033144535,26.949015081012647,-0.08419938445843322,1.87911975504052,-4.1709538770917
2.2169041255055935,26.576513246946625,-0.0860396919309764,1.8458985856196801,-4.006152480624514
2.1995474533601844,26.210571779563537,-0.08752702952311543,1.8135160882112367,-3.850331907239714
2.1819249440586908,25.851026673262073,-0.08869806349182047,1.781934974803378,-3.7028055702384233
2.164096577716221,25.497721150499366,-0.08958559993288107,1.7511202528236873,-3.562951834406465
2.1461161149274375,25.150505221813262,-0.0902190279549496,1.721039034037369,-3.4302068598523343
2.1280317414612995,24.809235282002597,-0.09062470670642993,1.6916603640693058,-3.304058341464142
2.1098866403772334,24.473773738615975,-0.09082630413423189,1.66295506979689,-3.1840400184351614
2.0917195005511378,24.143988669406994,-0.09084509412672605,1.634895622292934,-3.0697268478536626
2.0735649693706195,23.819753505842336,-0.09070021767845705,1.6074560133536506,-2.9607307525404267
2.055454056315694,23.50094674011291,-0.09040891287079801,1.580611643940613,-2.8566968667798927
2.0374144932527383,23.18745165340789,-0.0899867177587599,1.5543392231095723,-2.7573002148311745
2.019471056510444,22.879156063476692,-0.08944764966418009,1.5286166762023776,-2.6622427665250665
2.001645855156109,22.575952089731608,-0.08880436387917214,1.5034230612484891,-2.5712508221752466
1.9839585893317242,22.277735934340193,-0.08806829436467459,1.4787384926656648,-2.4840726857166477
1.9664448140659263,21.98441719888767,-0.08706945829330537,1.4544488618595484,-2.3949612852588937
1.9491354566102337,21.695908663651768,-0.08602411626362078,1.4306364904994917,-2.30992350700835
1.932039141495976,21.412116617285832,-0.08493903487895377,1.4072839731598619,-2.228724504285275
1.9151632089966568,21.132950746657286,-0.08382029011423911,1.384374733125615,-2.151145561809259
1.898513846354425,20.858323976189084,-0.08267333630807942,1.3618929715564052,-2.076982808326908
1.882096205929887,20.588152316985926,-0.08150306793730124,1.339823620475147,-2.0060460461296397
1.8659145116381093,20.322354725014833,-0.08031387498047342,1.3181522992357633,-1.9381576855569906
1.849972154882078,20.060852967675117,-0.0791096925798411,1.296865274161411,-1.8731517739264365
1.834271781061421,19.803571498151314,-0.07789404562672865,1.2759494210766023,-1.8108731095088473
1.8188153676165577,19.550437336995167,-0.07667008882190461,1.2553921904849108,-1.7511764322021701
1.80360429446455,19.301379960429784,-0.07544064269817284,1.2351815751689152,-1.6939256834641492
1.7886394075911047,19.05633119491178,-0.07420822603627776,1.2153060800110957,-1.6389933288644751
1.7739210764818774,18.815225117525273,-0.07297508505599778,1.1957546938539694,-1.58625973732188
1.7594492460041655,18.577997961816365,-0.07174321972111947,1.1765168632351275,-1.5356126117145656
1.7452234832861495,18.34458802870802,-0.07051440745903974,1.1575824678483075,-1.4869464661034186
1.7312430200840105,18.114935602163648,-0.06929022456235266,1.1389417975954261,-1.4401621452957882
1.7175067910767399,17.88898286929342,-0.06807206551035236,1.120585531106828,-1.3951663829109429
1.7040134684834625,17.666673844620934,-0.06686116042242152,1.1025047156180428,-1.3518713944934462
1.6907614933579866,17.44795429824901,-0.06565859083233708,1.0846907481012327,-1.3101945025634474
1.6777491038795294,17.23277168768304,-0.06446530395223536,1.0671353575584115,-1.270057790798332
1.664974360926605,17.02107509308805,-0.06328212557701063,1.049830588391508,-1.2313877848127581
1.6524351711925047,16.812815155771744,-0.06210977176399044,1.0327687847715623,-1.194115157247665
1.6401293080752466,16.607944019701,-0.0609488594085913,1.0159425759358498,-1.1581744550967243
1.628054430551978,16.406415275872657,-0.0597999158240948,0.999344862347612,-1.1235038473938965
1.6162081002273174,16.208183909372057,-0.05866338742251009,0.9829688026584014,-1.0900448915607754
1.6045980166543536,16.01340645156347,-0.057437448307128,0.9648057754274748,-1.0972781361828383
1.5932287485397276,15.822249528433854,-0.056255232839131974,0.9467634558686661,-1.106613263162236
1.5820916320196332,15.63468933562407,-0.05511593236181361,0.9288384722291612,-1.1179194368180891
1.5711781723801503,15.450702728725393,-0.054018664033015515,0.9110275967576041,-1.131069181945186
1.5604800581670997,15.270267195038148,-0.05296247809749005,0.8933277401148602,-1.1459380877459198
1.5499891739031992,15.093360826397042,-0.051946364541514224,0.8757359462961877,-1.1624045206104603
1.5396976115317171,14.919962292962726,-0.0509692591733055,0.8582493880469781,-1.1803493445174535
1.5295976806974867,14.750050817882272,-0.05003004916900017,0.8408653627575451,-1.1996556478598603
1.519681917968547,14.583606152723945,-0.04912757812039699,0.82358128882574,-1.2202084755242852
1.5099430950947768,14.420608553593425,-0.04826065061730708,0.8063947024794723,-1.241894565067467
1.50037422639363,14.261038757840023,-0.04742803639416036,0.7893032550545551,-1.2646020858405607
1.4909685753474666,14.104877961261895,-0.04662847406747365,0.7723047107267272,-1.2882203799104497
1.481719660491933,13.952107795719197,-0.04586067448786175,0.7553969447002582,-1.312639703617506
1.4726212606704023,13.802710307063244,-0.045123323727445874,0.7385779418592687,-1.3377509685908222
1.4636674197255815,13.656667933288134,-0.04441508572076044,0.7218457958918472,-1.363445481014803
1.45485245069605,13.513963482808823,-0.043734604574554595,0.7051987089012677,-1.3896146779048406
1.446170939582674,13.374580112766377,-0.04308050655920525,0.6886349915231721,-1.4161498591043822
1.4376177487475759,13.238501307256808,-0.042451401791777914,0.6721530635725375,-1.4429419136606674
1.4291880200065914,13.105710855374586,-0.04184588561806459,0.6557514552496857,-1.4698810391715333
1.4208771774749684,12.976192828955558,-0.04126253969816642,0.6394288089405786,-1.4968564526206394
1.4126809302254175,12.84993155989617,-0.04069993279734333,0.6231838816532799,-1.5237560911331243
1.404595274817594,12.726911616916858,-0.04015662128089193,0.6070155481398458,-1.5504663009880113
1.3966164977586346,12.607117781626759,-0.03963114930870195,0.590922804761149,-1.576871513117861
1.38874117795558,12.490535023734509,-0.03912204872184256,0.5749047741613587,-1.6028539032108016
1.3809661892223957,12.377148475235462,-0.038627838610000985,0.5589607108291316,-1.6282930344062718
1.3732887029069165,12.266943403389135,-0.03814702454478948,0.5430900076341518,-1.6530654804454987
1.3657061907064576,12.159905182281655,-0.03767809745979877,0.5272922034406317,-1.6770444270039264
1.3582164277451032,12.0560192627462,-0.037219532153744454,0.5115669919139022,-1.7000992488001294
1.3508174959909234,11.95527114038957,-0.0367697853880534,0.4959142316524102,-1.722095059951015
1.3435077880976498,11.85764632144479,-0.0363272935446823,0.4803339577953969,-1.7428922349362974
1.3362860117628073,11.763130286137617,-0.03589046980374227,0.46482639527633046,-1.7623458974605897
1.3291511947030845,11.67170844921861,-0.035457700793486216,0.4493919739137542,-1.7803053744793342
1.3221026903580133,11.58336611727179,-0.03502734265722683,0.43403134555442485,-1.7966136127138916
1.3151401844450343,11.498088442365543,-0.0345977164725636,0.418745403508051,-1.811106555161833
1.308263702503018,11.415860371560953,-0.034167102947599975,0.40353530453784575,-1.8236124754674998
1.3014736185776377,11.336666591737647,-0.03373373630620181,0.3884024936952158,-1.8339512686345099
1.2947706652210988,11.26049146913731,-0.03329579725918687,0.37334873230815263,-1.8419336975470662
1.288155945001202,11.187318982961692,-0.032851404939782954,0.3583761294480428,-1.8473605962757422
1.2816309437413742,11.117132652296515,-0.0323986076584941,0.3434871772037068,-1.8500220333928459
1.2751975457452436,11.049915455568446,-0.03193537230281305,0.3286847900770002,-1.8496964418160606
1.2688580512981391,10.985649741683744,-0.031459572168232273,0.3139723487700219,-1.8461497264619304
1.262615196785863,10.924317131952424,-0.03096897295452931,0.2993537485431912,-1.8391343678184813
1.256472177831518,10.865898411881947,-0.030461216588920675,0.28483345216158057,-1.8283885492735399
1.2504326759290716,10.810373411947996,-0.029933802435544225,0.27041654717791613,-1.813635349831216
1.2445008891551539,10.757720876542987,-0.029384065303632072,0.25610880687219195,-1.7945820633484053
1.2386815676796834,10.707918320505339,-0.028809149451072144,0.24191675350426903,-1.7709197329041746
1.2329800549886698,10.660941873002002,-0.02820597745906352,0.22784772152910623,-1.7423230275319581
1.2274023360057789,10.61676610915687,-0.0275712123698449,0.21390991692219982,-1.708450642618698
1.221955093694466,10.575363870809102,-0.02690121074328316,0.2001124665554964,-1.6689464806203753
1.2166457763042098,10.536706079316406,-0.02619196315927925,0.1864654483714577,-1.6234419729500338
1.2114826782929606,10.500761545622069,-0.025439016953211966,0.17297988857190277,-1.571560046359214
1.206475039269311,10.467496786188029,-0.024637373283282894,0.15966770576849804,-1.5129214283434411
1.2016331672935086,10.43687585824269,-0.023781346474741727,0.14654157368488718,-1.4471542350939757
1.1969685959271976,10.408860234522031,-0.022864367188367374,0.13361466352169263,-1.37390809330109
1.1924942890908763,10.383408746632412,-0.021878701174846516,0.12090021537449952,-1.2928743917738854
1.1882249149165618,10.360477637276947,-0.020815040568299192,0.10841087818016701,-1.2038145647356664
1.1841772206034995,10.340020773740871,-0.01966190256232308,0.09615775718057545,-1.1065983882579447
1.1803705565827796,10.321990084706545,-0.018404737644876157,0.0841491331626889,-1.0012537286155685
1.176827622739093,10.30633628141566,-0.017024600791988878,0.07238889974617053,-0.8880272872291735
1.1735755466034263,10.293009895913727,-0.015496160564677052,0.0608749552731757,-0.7674515212996086
1.1706474637051583,10.281962584686532,-0.013784668418003021,0.04959815699878301,-0.6404048863294194
1.168084884695732,10.27314846019647,-0.011841121676261581,0.03854308790182671,-0.508140849692084
1.1659414113854911,10.266524851852814,-0.00959361142614658,0.027692995534746623,-0.37224948364166743
1.1642892414094188,10.262051153925125,-0.006928088334577405,0.01704398374215078,-0.23451286196118795
1.1632336815070055,10.259682063290466,-0.003627510689557158,0.006646922604433416,-0.09663370212303596
