x,y,v_x,v_y,omega
2.375,32.48,0.0,2.6153846153846154,-3.1020408163265305
2.374522726763466,32.013843450574626,-0.005303035961487424,2.5641326004528535,-2.9452512618594553
2.3731484325981755,31.556768850632913,-0.00996689920840655,2.514474065566163,-2.799995229275441
2.3709856695839315,31.108496720850756,-0.014063800949863,2.466327376457805,-2.6651516141417098
2.3681307873001214,30.668761763627803,-0.017657113314692302,2.419616592686135,-2.5397294083846167
2.364669416504813,30.237311885172968,-0.020802562188732835,2.374270945700923,-2.4228504366236185
2.360677754050006,29.81390730603478,-0.023549242864681883,2.3302243780567173,-2.313734657153864
2.3562236783286457,29.398319749870076,-0.025940487372653677,2.287415134884438,-2.2116876064507025
2.351367719815725,28.990331701705706,-0.028014607215352372,2.2457854002751914,-2.116089641874955
2.3461639073683953,28.58973572815902,-0.029805531088309734,2.205280972465781,-2.0263866981912577
2.340660507727482,28.19633385309306,-0.031343353810726754,2.1658509727115756,-1.9420823227386192
2.334900672987862,27.809936983030333,-0.03265480996283231,2.127447583540908,-1.8627307940500575
2.328923008576678,27.430364377364555,-0.033763683494766536,2.0900258127455618,-1.7879311612965494
2.322762072415457,27.057443159017037,-0.03469116274102165,2.053543280004623,-1.7173220686037678
2.316448814379841,26.691007861702737,-0.03545614876582139,2.0179600234876096,-1.6505772502150635
2.3100109638563726,26.33090001041483,-0.0360755237171625,1.9832383241557752,-1.5874016005637508
2.3034733720869625,25.97696773211951,-0.036564384831841504,1.9493425457922442,-1.5275277382960482
2.2968583150536417,25.62906539398338,-0.03693624887171966,1.9162389890535958,-1.47071299573013
2.2901857618605526,25.287053266743456,-0.03720323105149343,1.883895758056712,-1.4167367756088132
2.283473612893555,24.950797211080136,-0.03737620191514655,1.8522826382023785,-1.3653982256750967
2.276737911461142,24.620168385073185,-0.03746492511166689,1.8213709840970793,-1.3165141888712506
2.2699930321276374,24.295042971013032,-0.03747817859393715,1.7911336165713345,-1.269917393076769
2.263251848527785,23.975301920009656,-0.0374238614044251,1.7615447279106038,-1.22545484945627
2.2565258830898167,23.660830712991235,-0.03730908790633015,1.7325797945163046,-1.1829864328470863
2.249825440782839,23.35151913681755,-0.03714027106008754,1.7042154963024256,-1.142383621310349
2.2431597287361735,23.047261074351464,-0.03692319612508948,1.6764296422096272,-1.1035283751077725
2.2365369633468095,22.747954307436917,-0.03666308597895312,1.6492011012853547,-1.0663121380389287
2.229964466290918,22.453500331825925,-0.036364659086508454,1.622509738836776,-1.0306349463548756
2.2234487506819063,22.163804183181313,-0.03603218101362086,1.5963363572144913,-0.9964046324151846
2.216995598466971,21.87877427335731,-0.03566951026344099,1.5706626408299604,-0.9635361119279683
2.210610130023207,21.598322236228178,-0.03528013911171262,1.5454711050492893,-0.9319507450491945
2.2042968668003744,21.32236278239604,-0.03486723003087244,1.5207450486411287,-0.901575762854107
2.198059787757998,21.050813562164457,-0.03443364821775193,1.4964685094875758,-0.8723437517599294
2.191904669459975,20.783596173527627,-0.033956555093614074,1.472613586477219,-0.8429688528062221
2.1858361896465754,20.52063484489156,-0.033470998388605455,1.4491789539234992,-0.814837850411556
2.1798557202684714,20.26185518545034,-0.03297866136810496,1.4261505954233888,-0.7878841060016979
2.1739643460533067,20.007185274077017,-0.03248105213372389,1.4035150865024124,-0.7620452231698894
2.1681628944898685,19.75655555562171,-0.03197952079336983,1.3812595630010123,-0.7372627344669689
2.16245196287818,19.50989874271923,-0.031475274892054116,1.3593716914710006,-0.7134818144098536
2.156831942741815,19.267149722757868,-0.030969393289784656,1.3378396414330211,-0.6906510162588805
2.151303041867087,19.028245469686624,-0.03046283865163319,1.3166520593585815,-0.6687220303667455
2.1458653042057647,18.793124960361702,-0.02995646869639473,1.295798044251643,-0.6476494621256748
2.140518627853044,18.561729095154696,-0.029451046333834024,1.2752671247151022,-0.6273906277384597
2.1352627812904545,18.334000622564616,-0.028947248806051328,1.2550492373968825,-0.6079053662160768
2.1300974180636922,18.1098840675942,-0.028445675935748965,1.2351347067188687,-0.5891558661624196
2.1250220900479118,17.889325663667535,-0.027946857572925764,1.215514225799659,-0.5711065060474516
2.120036259437406,17.67227328788154,-0.027451260321582058,1.1961788384891527,-0.5537237067958526
2.1151393095827338,17.458676399397973,-0.02695929361922149,1.1771199224394098,-0.5369757956306882
2.1103305547859303,17.24848598079564,-0.026471315234146787,1.1583291731420655,-0.5208328802123319
2.1056092491533795,17.04165448221474,-0.025987636238642437,1.13979858886793,-0.5052667322031231
2.1009745945960008,16.83813576813619,-0.02550852551001123,1.1215204564492793,-0.4902506794692373
2.0964257480575603,16.63788506664927,-0.025034213805990847,1.1034873378498113,-0.4757595062039991
2.0919618280439596,16.44085892107037,-0.024564897456239836,1.0856920574713302,-0.46176936032229843
2.087581920519243,16.247015143784452,-0.024100741707278214,1.068127690149965,-0.448257667534666
2.083285084227689,16.05631277218912,-0.023641883754434646,1.0507875497981698,-0.4352030515626403
2.0790703554956056,15.868712026628614,-0.02318843549093488,1.0336651786519062,-0.42258526000493263
2.074936752561312,15.684174270212264,-0.022740486001217107,1.0167543370853103,-0.4103850954071237
2.070883279477147,15.502661970418384,-0.022298103822837197,1.00004899395781,-0.39858435112669205
2.0669089296231915,15.32413866239068,-0.0218613389988934,0.9835433174611223,-0.38716575162051825
2.0630156925535013,15.148795723755299,-0.021396850664329756,0.9647115562653272,-0.4259424531387457
2.059202434293474,14.976833380694213,-0.020972685558198093,0.9459811444134151,-0.4658373427611803
2.0554620144277984,14.808233614810973,-0.020587535171529465,0.9273495876225805,-0.5067501168884322
2.051787529852486,14.642978847860306,-0.02024007122083282,0.9088144896070648,-0.548581702674627
2.0481723180695703,14.481051924309547,-0.019928948589338052,0.8903735498458172,-0.5912340393748856
2.044609959982051,14.322436094270415,-0.019652807938656317,0.8720245617000916,-0.6346098597438573
2.0410942822468097,14.167114996737826,-0.019410278008469197,0.8537654108842105,-0.6786124705074599
2.0376193592403085,14.01507264307164,-0.01919997761932227,0.8355940742956454,-0.723145530897046
2.034179514689371,13.866293400655799,-0.019020517391092083,0.8175086192136971,-0.7681128281937072
2.0307693230173256,13.720761976667415,-0.01887050118719392,0.7995072028794615,-0.8134180491797122
2.027383610454191,13.57846340188565,-0.018748527292075094,0.7815880724734765,-0.8589645463334241
2.0240174559584774,13.439383014466998,-0.01865318932696724,0.7637495655115432,-0.9046550975326119
2.02066619199749,13.303506443609422,-0.018583076906222174,0.7459901106837592,-0.9503916579479071
2.0173254052328886,13.170819593022863,-0.01853677603379727,0.7283082291668805,-0.9960751027122023
2.013990937158557,13.041308624117718,-0.01851286923655382,0.7107025364458325,-1.0416049588418383
2.010658884738752,12.914959938815798,-0.01850993542794756,0.6931717446866333,-1.0868791247602143
2.007325601095922,12.791760161880074,-0.01852654949238248,0.6757146657102959,-1.13179357563256
2.003987696299685,12.671696122649845,-0.01856128157692115,0.6583302146255823,-1.1762420525605928
2.000642038311179,12.554754836056624,-0.018612696073144946,0.6410174141879719,-1.2201157335061228
1.997285754140505,12.440923482783031,-0.0186793502676777,0.6237753999630556,-1.2633028836119145
1.9939162312792496,12.330189388411704,-0.018759792635161126,0.6066034263850111,-1.3056884823649328
1.9905311194752846,12.222540001393693,-0.018852560742225775,0.589500873815103,-1.347153824800443
1.9871283329232206,12.117962869645392,-0.018956178725153275,0.5724672567215777,-1.387576093674764
1.9837060529511927,12.01644561555954,-0.019069154297378797,0.5555022331212055,-1.4268278992401249
1.9802627312932222,11.917975909188634,-0.019189975235627196,0.538605615444439,-1.4647767829386658
1.9767970940463488,11.822541439327637,-0.019317105285186358,0.5217773830110983,-1.5012846809978326
1.9733081464232916,11.730129882186748,-0.0194489794154501,0.5050176963320908,-1.5362073435629482
1.9697951784247396,11.640728867303178,-0.019583998346239112,0.48832691348536117,-1.5693937046557769
1.9662577715707785,11.554325940292863,-0.019720522253327606,0.47170560885147256,-1.6006851979182006
1.9626958068486755,11.470908521987965,-0.01985686354781894,0.45515459453628565,-1.6299150128150126
1.9591094740546318,11.390463863442719,-0.019991278608220843,0.43867494485533315,-1.6569072857705451
1.9554992827305624,11.312978996218146,-0.02012195832588391,0.42226802430659566,-1.6814762206617422
1.9518660749239285,11.238440677274212,-0.020247017303381472,0.40593551951489154,-1.7034251332758934
1.948211040029757,11.16683532770572,-0.020364481520745357,0.38967947569059097,-1.7225454148973431
1.9445357320099146,11.098148964455106,-0.020472274255281885,0.37350233820511713,-1.7386154113081151
1.9408420893264342,11.03236712402197,-0.020568200005611735,0.3574069999408375,-1.7513992154555884
1.9371324579744469,10.969474777066917,-0.020649926127581472,0.341396855115287,-1.7606453752686815
1.933409618057751,10.909456232679918,-0.020714961835705502,0.32547586029580683,-1.7660855231939119
1.929676814418675,10.852295030957265,-0.020760634154028446,0.309648603289229,-1.7674329418517252
1.9259377919171663,10.797973822418179,-0.0207840603071773,0.293920380478413,-1.764381092063245
1.9221968360572834,10.746474232711368,-0.020782115913745198,0.27829728293060363,-1.756602147241647
1.9184588197906214,10.697776711044988,-0.020751398160277764,0.26278629114028146,-1.7437456045209225
1.9147292574985562,10.65186036087038,-0.020688182862667673,0.24739537746648926,-1.7254370820134577
1.9110143673890818,10.608702751639164,-0.020588373909269236,0.2321336139914797,-1.7012774690881245
1.9073211438728521,10.568279711055919,-0.020447442937727992,0.2170112813779097,-1.6708426810160528
1.9036574419615135,10.530565098349857,-0.02026035607714459,0.20203997091164924,-1.63368439290849
1.9000320764499197,10.49553056096731,-0.02002148294056462,0.18723266667220506,-1.5893323077191308
1.896454939752509,10.463145280153402,-0.019724480363999045,0.17260378681567032,-1.5372987725845673
1.8929371440132037,10.433375715734844,-0.019362138961615084,0.158169151168319,-1.4770869268850173
1.8894911959145584,10.406185367839562,-0.018926173245554654,0.1439458254459144,-1.4082040777295162
1.8861312171678777,10.381534584295121,-0.018406923939786043,0.12995176949232576,-1.3301826795071383
1.8828732311122893,10.359380458056652,-0.017792921122307168,0.11620518871288235,-1.2426121273340383
1.879735548042854,10.339676879661091,-0.01707022409364125,0.10272346012668204,-1.1451854198994442
1.8767393017972056,10.322374833672942,-0.01622140085800874,0.08952149529720009,-1.0377651649673902
1.8739092224761271,10.307423048004967,-0.015223924931751728,0.07660945656917632,-0.9204723143617299
1.871274782715472,10.294769100964437,-0.014047627964413575,0.06398995499228145,-0.7937962219299917
1.8688719425650047,10.284361019215755,-0.01265059592967201,0.051655397770865044,-0.6587125203379129
1.8667458797400824,10.276149178809565,-0.010972324347239175,0.03958727340901829,-0.5167723265593689
1.8649554664639667,10.270087811043808,-0.008921156498490988,0.027761257321589156,-0.3700946854975037
1.8635814544289109,10.26613428784444,-0.006345643891020238,0.016166778226939193,-0.22117171410613287
1.8627460482693503,10.264240708139411,-0.0029366467707635058,0.00487299627337502,-0.0724183527314925
