x,y,v_x,v_y,omega
2.375,32.48,0.0,3.230769230769231,-8.0
2.3730837186683136,31.841820323717034,-0.019162813316862898,3.1510275320604126,-7.463855181496552
2.367628539951788,31.2192331291672,-0.03538897384839249,3.074844413437899,-6.9817779638061355
2.3591783118458913,30.61155344170389,-0.049113307210574844,3.0019524611952133,-6.546676742238345
2.3481969867645733,30.018146796434856,-0.060699943602607956,2.9321139914951466,-6.152569429354297
2.3350814710374115,29.43842375118358,-0.0704552136690076,2.8651164610175845,-5.794383159037157
2.320172160698234,28.871835226689612,-0.07863788972276453,2.8007687839221016,-5.467795056933847
2.3037616327766126,28.317868514019338,-0.08546738949345402,2.7388983427806326,-5.169104610389613
2.2861018540037277,27.776043826024523,-0.0911303982353938,2.6793485371675265,-4.895130602883779
2.2674101891157754,27.245911296960138,-0.0957862506441301,2.621976753476318,-4.643127320514434
2.2478744308920993,26.727048354786213,-0.09957133159262897,2.566652668262958,-4.410716004568225
2.2276570282931454,26.21905740612518,-0.10260269439691103,2.5132568183473527,-4.195828456698487
2.2068986537924853,25.721563785658493,-0.1049810506096914,2.4616793863195268,-3.996660397949918
2.1857212235536023,25.234213930870137,-0.10679325177913901,2.4118191615640203,-3.8116327060379396
2.1642304625621382,24.756673750160687,-0.1081143581355012,2.363582645530473,-3.639359053166824
2.142518089784962,24.28862715795662,-0.10900936963625883,2.3168832765102088,-3.47861877199415
2.1206636848526337,23.82977475488797,-0.1095346796870231,2.271640754176257,-3.328334013591596
2.0987362868775703,23.37983263467022,-0.1097393000636107,2.227780448001276,-3.187550445436638
2.076795767242105,22.938531302203124,-0.1096658962910453,2.185232876669682,-3.0554208820769695
2.0548940110731952,22.505614689740604,-0.10935166539805125,2.1439332479555344,-2.9311913553816216
2.033075936321234,22.08083925990503,-0.10882908212156218,2.1038210504001884,-2.814189222137836
2.0113803746136565,21.663973185904247,-0.10812653495421376,2.0648396896076435,-2.70381297937879
1.9898408341524714,21.254795600626828,-0.10726886965763556,2.0269361631665337,-2.5995235161922277
1.968486161705374,20.853095907393147,-0.10627785481333983,1.9900607691703016,-2.5008365778943364
1.9473411180737625,20.458673146067078,-0.10517258150277269,1.9541668440904059,-2.4073162566932607
1.9264268792051482,20.07133540901814,-0.10396980718337097,1.9192105263989365,-2.318569354125424
1.905761473270002,19.69089930209168,-0.10268425216809327,1.8851505428657038,-2.234240486040842
1.8853601624780998,19.31718944631579,-0.1013288557509256,1.8519480148931629,-2.1540078218520504
1.8652357771135903,18.950038016564676,-0.09991499789416952,1.8195662826179557,-2.0775793670224165
1.8453990081781475,18.589284313821466,-0.09845269146025985,1.7879707448141753,-2.004689712049187
1.8258586641125458,18.234774368050893,-0.09695074919575612,1.7571287128915474,-1.9350971830493386
1.8066218962900336,17.88636056901171,-0.09541692902936595,1.7270092775002723,-1.8685813389260988
1.7876943973164665,17.543901322617668,-0.09385806070630483,1.6975831864401556,-1.8049407683379073
1.769080575612907,17.207260730700604,-0.09228015632928999,1.6688227327305032,-1.743991146597708
1.7507837092802951,16.876308292244197,-0.09068850699683065,1.6407016518335253,-1.6855635184323268
1.732806081839628,16.550918624346707,-0.08908776740983922,1.61319502714139,-1.6295027774191508
1.7151491020938612,16.23097120133871,-0.08748203004783096,1.586279202938556,-1.5756663170453542
1.697813410060298,15.916350110630948,-0.08587489028780015,1.5599317041390914,-1.5239228318303661
1.680798970666975,15.606943823999504,-0.08426950364542767,1.5341311621753455,-1.474151249919389
1.6641051566870373,15.302644983133838,-0.08266863615394979,1.508857246481314,-1.4262397810803709
1.647730822196029,15.003350198378438,-0.08107470875613505,1.4840906010726904,-1.3800850661898985
1.6316918065002701,14.708964720580603,-0.07931544820145317,1.459764176905664,-1.3306116570165527
1.6160016203341774,14.419397099917337,-0.07758641345947392,1.4359120297270045,-1.2833916215059553
1.6006541589397116,14.134554179290674,-0.07588820048518252,1.4125171765396118,-1.2382956270463708
1.585643216130526,13.854346120007538,-0.07422122760667504,1.3895634162917425,-1.1952031754571086
1.5709625175017314,13.5786862499426,-0.07258575868126844,1.3670352843576574,-1.1540019033331046
1.5566057492847325,13.30749092048751,-0.07098192348872244,1.3449180101932467,-1.114586945219999
1.5425665833663555,13.04067937167747,-0.06940973569504853,1.3231974779071474,-1.0768603533229306
1.5288386989290046,12.778173604935532,-0.06786910867845994,1.3018601895122373,-1.0407305681477834
1.5154158011138947,12.519898262919892,-0.06635986947263744,1.2808932306441725,-1.0061119350852952
1.5022916370615436,12.265780516000163,-0.0648817710508769,1.260284238553114,-0.9729242624872173
1.4894600096417372,12.015749954925624,-0.0634345031471851,1.2400213721922715,-0.9410924172589915
1.476914789148375,11.76973848928214,-0.062017701786439096,1.220093284242577,-0.9105459544133055
1.4646499232022472,11.52768025136519,-0.060630957674837414,1.200489094926912,-0.8812187774003795
1.4526594450763997,11.289511505124498,-0.0592738235836375,1.1811983674800273,-0.8530488263599642
1.440937480633712,11.05517055986132,-0.05794582084323806,1.1622110851517482,-0.8259777917320342
1.4294782540443158,10.824597688383005,-0.05664644505072274,1.143517629631424,-0.7999508509225604
1.4182760924310664,10.59773504934077,-0.05537517108177173,1.1251087607909382,-0.7749164259514941
1.407325429574175,10.374526613496467,-0.054131457487143195,1.1069755976520803,-0.7508259602156168
1.3966208087910073,10.154918093682081,-0.052914750344534044,1.0891096004917717,-0.727633712682181
1.3861568850937158,9.938856878232343,-0.051724486628378925,1.0715025540056216,-0.7052965679929147
1.3759284267155887,9.726291967686116,-0.050560097152893904,1.0541465514566335,-0.6837738611042384
1.3659303160865703,9.517173914566285,-0.049421009137289154,1.0370339797416626,-0.6630272152204668
1.3561575503291958,9.31145476606077,-0.0483066484364552,1.0201575053134826,-0.6430203918940668
1.346605241338003,9.109088009439308,-0.04721644147547359,1.003510060901124,-0.6237191522722615
1.3372686154982623,8.910028520051643,-0.0461498169219339,0.9870848329755257,-0.6050911285637545
1.328152635670745,8.714417782419268,-0.04500998135323849,0.9690225433482178,-0.6242634547115072
1.3192594033285339,8.522408079207121,-0.043922342068873264,0.9510744887732412,-0.6452545348841089
1.3105786136914919,8.333976875278907,-0.04288555430154575,0.9332375505089112,-0.6679465534368088
1.3021002347453985,8.149102246567903,-0.041898235159387766,0.9155087366011281,-0.692224556765761
1.293814514353932,7.967762855198018,-0.040958968755277124,0.8978851770977138,-0.7179761878733534
1.2857119863935733,7.789937925517634,-0.04006631084830911,0.8803641197061233,-0.745091428023153
1.2777834760054883,7.615607220958985,-0.03921879303254042,0.8629429258803796,-0.7734623443790073
1.2700201040517494,7.444751021638346,-0.038414926504848075,0.8456190673260106,-0.8029828425434083
1.2624132908572,7.277350102614275,-0.03765320544064443,0.8283901229147008,-0.8335484229227925
1.2549547593128114,7.113385712722472,-0.036932110003241536,0.8112537760033334,-0.8650559398519958
1.2476365374115033,6.952839553906625,-0.03625010900984058,0.7942078121551321,-0.8974033624065362
1.2404509602830782,6.795693760964735,-0.03560566227441057,0.7772501172637606,-0.9304895358195634
1.233390671791128,6.641930881629907,-0.034997222645091766,0.7603786760845235,-0.9642139423999636
1.2264486257515,6.491533856903423,-0.0344232377511901,0.7435915711803089,-0.9984764608188833
1.2196180868291515,6.344486001556028,-0.03388215147229461,0.7268869822936423,-1.0331771225934305
1.2128926311679693,6.200770984710637,-0.03337240513952695,0.7102631861602633,-1.0682158645480162
1.2062661468063773,6.060372810416208,-0.03289243847639357,0.6937185567840374,-1.103492275975142
1.1997328339303248,5.92327579811802,-0.032440690284131796,0.6772515661978596,-1.1389053391477608
1.1932872050145327,5.789464562924177,-0.03201559887379073,0.6608607857405601,-1.1743531617539276
1.1869240849026998,5.6589239955615405,-0.031615602244537355,0.6445448878857939,-1.2097326997305506
1.1806386108777667,5.531639241906404,-0.031239138004793488,0.6283026486655788,-1.2449394688658706
1.1744262327743118,5.407595681965979,-0.030884643029754792,0.6121329507386561,-1.2798672434190626
1.1682827131867783,5.286778908175879,-0.0305505528455791,0.5960347871623334,-1.3144077398693965
1.162204127829519,5.169174702866041,-0.030235300727014018,0.5800072659360667,-1.3484502837561603
1.1561868661076762,5.054769014732841,-0.029937316491414543,0.5640496153959319,-1.3818814574038079
1.1502276319617422,4.9435479341380955,-0.0296550249679255,0.5481611905515077,-1.4145847261447582
1.1443234450533486,4.835497667035867,-0.029386844116009083,0.5323414804707627,-1.446440040455842
1.1384716423655061,4.730604507305337,-0.029131182762414765,0.5165901168345385,-1.4773234112155826
1.132669880297261,4.628854807241844,-0.02888643792003584,0.5009068838003912,-1.5071064550718414
1.1269161373406793,4.530234945928189,-0.028650991645780756,0.48529172933616055,-1.5356559066887066
1.1212087174373515,4.434731295173879,-0.028423207387496582,0.46974477820692273,-1.5628330944269881
1.1155462541224035,4.342330182670668,-0.028201425761984304,0.45426634682517186,-1.5884933758181328
1.1099277155764973,4.253017851967819,-0.027983959697078342,0.43885696020332954,-1.6124855290373692
1.1043524107207472,4.166780418819485,-0.02776908886042263,0.42351737128002453,-1.6346510964985659
1.0988199965061347,4.0836038233988,-0.02755505328570113,0.40824858292684074,-1.6548236767243756
1.093330486568232,4.003473777808129,-0.027340046093326312,0.39305187297986166,-1.6728281608538489
1.087884261440251,3.926375708242219,-0.027122205186484557,0.3779288226792377,-1.6884799106264339
1.08248208054317,3.852294691080477,-0.026899603784324405,0.3628813489381818,-1.7015838755559423
1.077125096201637,3.7812153820969705,-0.02667023963100744,0.34791174089688925,-1.7119336484663608
1.071814869969443,3.713121937883141,-0.02643202269093368,0.33302270124142125,-1.7193104608688898
1.0665533915898873,3.6479979284816046,-0.026182761104622785,0.31821739277392774,-1.7234821231961805
1.0613431009660943,3.5858262401346863,-0.025920145133307922,0.3034994906952533,-1.7242019202192207
1.0561869135769255,3.5265889669668375,-0.0256417287583802,0.2888732409832466,-1.7212074798337524
1.0510882498494125,3.4702672903596685,-0.025344908516748907,0.27434352508843945,-1.714219644933473
1.0460510690944504,3.4168413447632773,-0.025026899032872058,0.2599159308754779,-1.702941394888435
1.0410799087378184,3.366290068751507,-0.024684704533447732,0.2455968292422191,-1.6870568875148115
1.0361799297473948,3.318591040323067,-0.02431508537078877,0.23139345504217657,-1.666230727639559
1.031356969391689,3.2737202958525664,-0.023914518186268503,0.21731398966281598,-1.640107619103288
1.0266176027994574,3.231652132821967,-0.02347914773604973,0.2033676406431926,-1.6083126298998542
1.021969215281022,3.1923588976853807,-0.023004727448304597,0.1895647107226664,-1.5704524042833876
1.0174200881087014,3.1558107621886258,-0.02248654427490195,0.17591664424488268,-1.5261178034812863
1.0129795015809544,3.121975494534013,-0.02191932100256764,0.16243603230126108,-1.474888664141342
1.008657860945259,3.090818236436643,-0.0212970853543873,0.1491365486724503,-1.4163416496627552
1.0044668535023127,3.062301303985869,-0.020612989075075822,0.13603277583528822,-1.3500625519325318
1.0004196495555022,3.036384040016845,-0.019859050393028023,0.12313986385496013,-1.2756648851438412
0.9965311667456804,3.0130227590015792,-0.019025777705190056,0.1104729462976795,-1.1928171645391892
0.992818428181726,2.99217084218105,-0.018101607934353343,0.09804622190761084,-1.1012817449651933
0.9893010618645881,2.9737790586551966,-0.01707205523702532,0.0858716133509258,-1.0009681484166078
0.9860020155690059,2.9577962005672873,-0.01591840771879726,0.07395696752817921,-0.8920026484960604
0.9829486029439112,2.9441701108851426,-0.01461571853214985,0.062303929293278076,-0.7748120291220836
0.9801740634061618,2.932849117213756,-0.013129676845344355,0.05090600742058833,-0.6502107093895139
0.977719937684538,2.9237837060540883,-0.011411580370892611,0.03974810417609358,-0.5194649993489591
0.97563982705183,2.916927884457909,-0.009389525956187583,0.02881011178571661,-0.38428818712900326
0.9740059046346088,2.912238875953392,-0.006949698216025644,0.01807997325944822,-0.24670656734164295
0.9729228993806094,2.9096715627551895,-0.0038803543239685698,0.0075931587225686065,-0.1087486226834026
