x,y,v_x,v_y,omega
2.375,32.48,0.0,2.0,-7.63265306122449
2.373615290175454,32.02466112819729,-0.012040954996053085,1.9594684504583506,-7.248803682016721
2.369626319172417,31.578486189986194,-0.022645749378178537,1.9203136209424414,-6.893072380116423
2.363344681580368,31.141168613313337,-0.03197718620485848,1.882447915343277,-6.562674460735309
2.355046919627448,30.71242099080822,-0.0401772655596633,1.8457922803534008,-6.255164728716088
2.3449789515304973,30.29197324739718,-0.04737028310947452,1.8102750536556524,-5.968388308259785
2.3333598493462686,29.879571050631718,-0.05366538805773102,1.7758310051744297,-5.70043978226197
2.3203850780826496,29.474974423643097,-0.059158709886781645,1.7424005338570667,-5.449629032692299
2.3062292855624635,29.077956528330567,-0.06393513811483482,1.7099289905997037,-5.214452519630717
2.2910487153148407,28.68830259243514,-0.06806982056014688,1.6783661041431663,-4.993569005603255
2.2749833013261935,28.305808958931834,-0.07162943151504562,1.6476654915377296,-4.785778937077417
2.258158492891208,27.93028223998078,-0.07467325052830642,1.6177842384714545,-4.59000685296948
2.2406868493876435,27.561538560728152,-0.0772540842852989,1.5886825376383442,-4.405286312708413
2.2226694380567085,27.199402880707577,-0.07941905772283193,1.560323375584043,-4.230746932457796
2.204197062429445,26.843708382586357,-0.08121029555772044,1.5326722602526726,-4.0656031938766635
2.1853513446169837,26.494295919626445,-0.08266551150716203,1.5056969828769775,-3.9091447500135725
2.1662056810642634,26.151013514562077,-0.08381851938605493,1.4793674089870963,-3.7607280010968895
2.1468754979207274,25.813732555747272,-0.08427002968817339,1.4535104937503307,-3.610983620144208
2.1274635224408898,25.482329957116427,-0.0845297570930223,1.4282512334744393,-3.4689513683251167
2.108011516942423,25.1566711492631,-0.08461811680668829,1.403564486989257,-3.3341315430395118
2.088556783369679,24.836627180298663,-0.08455347947804415,1.379426547484112,-3.2060631990059836
2.069132608787018,24.52207439835766,-0.08435238645813702,1.3558150346115811,-3.08432063611177
2.0497686641983,24.212894157748448,-0.08402974040027864,1.3327087967728575,-2.968510252570055
2.030491362005339,23.9089725465409,-0.08359897432112089,1.3100878224231842,-2.858267720285851
2.0113241767510397,23.610200133632354,-0.0830722018032235,1.2879331593902732,-2.7532554450468893
1.9922879332190255,23.316471733549538,-0.08246035064907357,1.266226841329884,-2.6531602790261872
1.973401065466329,23.02768618743282,-0.08177328198306964,1.2449518205546166,-2.5576914572463783
1.954679849937113,22.743746158813764,-0.0810198965318525,1.2240919065676383,-2.466578733225845
1.9361386154334894,22.464557942941244,-0.08020822958661318,1.2036317097151286,-2.379570692096667
1.9177899323959544,22.190031288538194,-0.07934553595716969,1.1835565894418203,-2.2964332221316726
1.8996447836638208,21.920079230982466,-0.07843836606138273,1.1638526066949333,-2.2169481279067065
1.8817127186394518,21.654617936003984,-0.07749263415052131,1.144506480074499,-2.140911870308118
1.864001992564134,21.393566553077427,-0.0765136795478951,1.1255055453738103,-2.0681344203192107
1.8465196924239087,21.136847077767186,-0.07550632167145661,1.1068377181935083,-1.998438215020567
1.8292718508370456,20.884384222349965,-0.07447490951865768,1.088491459347526,-1.9316572055493828
1.8122635491280723,20.636105294101917,-0.07342336621154393,1.0704557428094448,-1.867635987908955
1.7954990106637783,20.391940080691768,-0.07235522913014339,1.052720025974425,-1.8062290085238966
1.7789816854121754,20.151820742170656,-0.07127368610118462,1.035274222035234,-1.7472998373186903
1.7627143265841196,19.915681709093086,-0.07018160805582378,1.0181086742914873,-1.6907205018732605
1.746699060127518,19.683459586343186,-0.06908157852331999,1.00121413222938,-1.6363708768932703
1.7309374477643797,19.455093062275903,-0.06797592028657817,0.984581729225258,-1.5841381238368395
1.7154437041617423,19.230672716238512,-0.0667522849537471,0.9668995406651061,-1.5592423390249381
1.7002288148036981,19.010302162201015,-0.06555110076837459,0.9493661466174785,-1.5376738566350172
1.6852874814309078,18.793947732454143,-0.06437353725589061,0.9319767207466354,-1.5192567344784509
1.670614161719269,18.58157684358102,-0.06322054719314175,0.914726660758776,-1.5038214978023612
1.6562031171124971,18.373157946255258,-0.062092884170091865,0.8976115768565378,-1.4912046874126204
1.6420484567715987,18.168660477592468,-0.06099111879424071,0.8806272810807796,-1.4812484305742732
1.6281441779416173,17.96805481585754,-0.05991565364037995,0.8637697774838061,-1.4738000326003207
1.6144842030133955,17.771312237342233,-0.05886673703980982,0.8470352530840666,-1.4687115871739593
1.6010624135373492,17.578404875238416,-0.057844475795375716,0.8304200695578203,-1.4658396035676988
1.5878726814272008,17.389305680342005,-0.05684884690156751,0.8139207556283798,-1.4650446490264917
1.5749088975741463,17.203988383431128,-0.05587970834238411,0.797534000118367,-1.466191004672192
1.5621649980759038,17.022427459169492,-0.05493680903363737,0.781256645635001,-1.4691463333642087
1.5496349882703941,16.84459809139224,-0.05401979797079524,0.7650856828628373,-1.4737813580168966
1.537312964750349,16.67047613963711,-0.05312823263829322,0.7490182454426276,-1.4799695489286837
1.5251931355228308,16.500038106788004,-0.05226158673142933,0.7330516054191386,-1.487586818721682
1.5132698384664085,16.333261107701645,-0.05141925723745842,0.7171831692448788,-1.4965112235239924
1.5015375582284989,16.170122838690443,-0.05060057091827803,0.7014104743308005,-1.506622669050427
1.4899909416960888,16.010601547736393,-0.04980479023311413,0.6857311861392087,-1.5178026202511754
1.4786248121646595,15.854676005311273,-0.04903111873583621,0.6701430958183696,-1.5299338132022147
1.467434182322577,15.702325475678148,-0.04827870597792639,0.6546441183827285,-1.5428999679061404
1.456414266161479,15.553529688547698,-0.04754665194466382,0.6392322914472622,-1.5565855006576488
1.4455604899172383,15.408268810960383,-0.046834011048734525,0.6239057745293817,-1.570875234604217
1.4348685021408798,15.266523419261748,-0.04613979570220734,0.608662848937011,-1.5856541070996741
1.4243341829943972,15.128274471033276,-0.045462979484598876,0.5935019182670861,-1.600806872406477
1.4139536528626895,14.993503276834907,-0.044802499921553614,0.5784215095448001,-1.6162177982518176
1.4037232803698831,14.862191471607591,-0.04415726088545774,0.5634202750405629,-1.6317703546835876
1.3936396898860595,14.7343209855749,-0.04352613462605373,0.548496994808922,-1.6473468936053555
1.3836997686089472,14.609874014471679,-0.042907963435791244,0.5336505800016997,-1.662828317295882
1.3739006733044432,14.488832988914591,-0.04230156095119972,0.5188800770164399,-1.6780937341398814
1.3642398367899402,14.371180542714335,-0.04170571308795647,0.5041846725510141,-1.6930200997150273
1.3547149742454225,14.256899479911677,-0.04111917860350202,0.4895636996460174,-1.7074818412990107
1.3453240894391687,14.145972740299413,-0.04054068927696649,0.47501664480846106,-1.7213504637846497
1.3360654809577663,14.03838336316926,-0.03996894969175042,0.4605431563233192,-1.7344941349275567
1.3269377485340688,13.9341144489966,-0.0394026366012717,0.4461430538737367,-1.7467772478094536
1.317939799571822,13.833149118746416,-0.0388403978530482,0.431816339606122,-1.7580599583945624
1.3090708559720858,13.735470470450537,-0.03828085084030959,0.4175632107928231,-1.7681976961055847
1.3003304613744409,13.641061532669191,-0.03772258044355989,0.4033840742623427,-1.7770406454760455
1.2917184889355073,13.549905214408792,-0.03716413641673075,0.3892795627846169,-1.7844331971836862
1.2832351497787826,13.461984251022727,-0.03660403016348372,0.3752505536159573,-1.7902133671856522
1.2748810022635617,13.377281145573182,-0.03604073083843661,0.3612981894235583,-1.7942121833300333
1.2666569622372121,13.295778105080053,-0.03547266069503862,0.3474239018210301,-1.796253039806076
1.258564314454928,13.217456971029243,-0.03489818958569405,0.3336294377512396,-1.7961510212497698
1.2506047253751462,13.14229914345902,-0.03431562849936472,0.31991688894636133,-1.7937122004258625
1.2427802575682305,13.070285497893039,-0.03372322199555367,0.30628872467087964,-1.7887329164149979
1.2350933860124849,13.001396294347195,-0.03311913935875567,0.2927478279016814,-1.780999044495873
1.2275470165974345,12.935611077612776,-0.032501464250378045,0.2792975350063168,-1.7702852749115767
1.2201445072130765,12.872908568022094,-0.031868182570126025,0.26594167882569203,-1.7563544261164417
1.2128896918805656,12.81326654195264,-0.031217168147360183,0.2526846348217522,-1.7389568298400007
1.2057869084821389,12.7566617014473,-0.030546165752003713,0.23953136957251664,-1.7178298416524154
1.1988410307873454,12.703069532558825,-0.029852770724460527,0.22648749032726212,-1.6926975534184456
1.1920575056659088,12.65246415241969,-0.029134404244552048,0.2135592934913169,-1.6632708154615885
1.185442396650659,12.604818145670066,-0.028388282844577076,0.20075380867932655,-1.629247719618092
1.1790024354062025,12.560102391853327,-0.027611380150698153,0.18807883320535823,-1.5903147538381452
1.172745083230116,12.518285886857132,-0.02680037790222769,0.1755429493702354,-1.5461489199138263
1.1666786055544447,12.479335563636091,-0.025951601886218652,0.16315551342143803,-1.4964212146282345
1.1608121636644202,12.44321612055312,-0.02506093628790739,0.15092660034352434,-1.4408020177952832
1.1551559297176277,12.409889870026472,-0.024123706727678683,0.13886688249690968,-1.3789691132266915
1.1497212339437153,12.37931662608695,-0.02313451739329901,0.12698741262936783,-1.3106192889267956
1.144520757096002,12.351453657160324,-0.022087020412903096,0.1152992736891408,-1.235484701989821
1.139568787486802,12.326255739769742,-0.02097358488448972,0.10381305144634385,-1.1533553952255062
1.1348815712309195,12.303675358902652,-0.01978481734057392,0.09253808652836049,-1.0641093848132597
1.1304777980065464,12.283663108627824,-0.018508862871367028,0.0814814810788404,-0.9677513349066315
1.1263792847010023,12.26616834571799,-0.01713038326379731,0.0706468920501493,-0.8644595211802488
1.1226119490547193,12.251140126970128,-0.015629057138664363,0.060033270974741454,-0.7546378458144379
1.119207212106876,12.238528396015518,-0.01397735110345161,0.0496339547175228,-0.6389643278810059
1.116204052574541,12.228285244362102,-0.012137079612504308,0.03943692922523862,-0.5184196441974994
1.113652126813598,12.220365802691681,-0.010053579178303414,0.029427780952336134,-0.3942709540937107
1.1116169173747585,12.2147278002383,-0.0076438942029089345,0.019598327337922262,-0.2679827667869289
1.110189919481904,12.211327478879117,-0.004764783126260132,0.009969684481056217,-0.14103490678104938
1.1095187209057904,12.210102446088325,-0.0010717262312500589,0.0006827745693237935,-0.014685250466772132
