x,y,v_x,v_y,omega
2.375,32.48,0.0,2.051282051282051,-3.3469387755102042
2.3744669104868685,32.05327831351928,-0.0050770429822056765,2.012734010439097,-3.1893213907752624
2.372928092244823,31.63453523223256,-0.009578368846798302,1.9752953351486608,-3.042353371961502
2.370498095590393,31.223543499789006,-0.013564456433486752,1.9389116405042635,-2.905074844471785
2.3672794944634665,30.820086890850334,-0.017088887632479163,1.903532254149731,-2.776629965736793
2.363364243156866,30.423959467435097,-0.020199220049432212,1.8691098736144367,-2.656253949002256
2.3588348626647275,30.034964902906793,-0.02293773701855089,1.8356002647503809,-2.543261912804151
2.3537654803975836,29.65291586561568,-0.025342094097107817,1.8029619951649725,-2.4370392697315824
2.3482227433416076,29.277633455374254,-0.02744587786456664,1.7711561976105272,-2.337033417799275
2.3422666216976133,28.90894668691458,-0.02927909017347575,1.7401463591482806,-2.2427465379758127
2.3359511175029457,28.54669201528137,-0.03086856882335982,1.7098981325965625,-2.1537293341249266
2.3293248906222406,28.190712898788597,-0.032238353850019656,1.6803791673345845,-2.0695755783493572
2.32243181271606,27.84085939573431,-0.03341000716122206,1.651558956991987,-1.9899173466735656
2.3153114582995626,27.49698779154742,-0.03440289204351879,1.6234087019307872,-1.9144208480976457
2.307999540738167,27.158960253447304,-0.03523441806501297,1.5959011847369708,-1.8427827650366497
2.3005282999543413,26.826644510044286,-0.035920256066658815,1.5690106571965288,-1.7747270356108658
2.292926847707205,26.49991355360689,-0.03647452723939997,1.542712737445305,-1.7100020186384481
2.285221475528407,26.17864536297816,-0.0369099697015337,1.51698431616166,-1.6483779908746556
2.277435929732209,25.862722645344874,-0.03723808550034979,1.4918034708220023,-1.5896449333415494
2.2696042327654746,25.552035316861637,-0.03734950465902854,1.467123467113597,-1.5305986448582878
2.261756569798678,25.24647743674225,-0.03739014264379313,1.4429515816424732,-1.4743677621515574
2.253907036830073,24.945944278618896,-0.037367314200063735,1.4192689719132823,-1.4207836922651917
2.2460682673748056,24.65033497784071,-0.037287632992961166,1.396057702164671,-1.369689856958405
2.238251572364273,24.359552346873834,-0.037157081393063666,1.3733006879960574,-1.3209407001766338
2.230467066170202,24.07350270189989,-0.036981072836180386,1.3509816450891412,-1.2744007885817077
2.2227237802235735,23.79209569979072,-0.036764507607904076,1.3290850416648208,-1.2299439953845224
2.2150297655308853,23.515244184708855,-0.036511822798649625,1.3075960543529608,-1.1874527588544557
2.207392185243228,23.24286404364738,-0.03622703708380339,1.2865005271848848,-1.1468174078671014
2.199817398304456,22.974874070281018,-0.03591379090450003,1.2657849334471667,-1.1079355477153843
2.1923110350911332,22.711195836552186,-0.035575382555716524,1.2454363401607331,-1.0707115001656622
2.1848780658568017,22.451753571463264,-0.03521480062839148,1.225442374971888,-1.035055792404444
2.177522862704829,22.196474046588705,-0.03483475319992176,1.2057911952619904,-1.0008846901051498
2.1702492557360675,21.945286467859646,-0.03443769412161743,1.1864714593004708,-0.968119770358457
2.1630605839485773,21.6981223732085,-0.03402584671162302,1.1674722992819013,-0.9366875306632493
2.1559597414055554,21.454915535693164,-0.0336012251266777,1.1487832961022104,-0.9065190305758012
2.1489492191334545,21.21560187174952,-0.03316565365523809,1.1303944557420078,-0.8775495629692589
2.142031143164181,20.98011935424727,-0.03272078414736582,1.1122961871365644,-0.8497183521695315
2.1352073090925523,20.74840793004858,-0.03226811177290579,1.094479281422408,-0.8229682765123566
2.1284792134821617,20.52040944179094,-0.03180898927843557,1.0769348924598874,-0.7972456131138963
2.1218480824189623,20.296067553636,-0.03134463989489279,1.059654518539536,-0.7724998028675124
2.1153148974817038,20.075327680744635,-0.030876169031376383,1.0426299851877274,-0.748683233875619
2.108880419371419,19.858136922255547,-0.030404574876099356,1.0258534289940564,-0.725751041700581
2.1025452094181043,19.64444399756031,-0.02993075801261399,1.009317282389173,-0.7036609249749851
2.0963096491612365,19.434199185682157,-0.02945553014803074,0.9930142593075034,-0.6823729750514292
2.0901772928956066,19.22750276468534,-0.028947862857967206,0.9755230835193072,-0.689970705884316
2.0841492993695687,19.02446683785014,-0.028461599294773602,0.9581524101492579,-0.6997239709404952
2.0782211313347654,18.825066459797362,-0.027997143893830127,0.9408988094010448,-0.711511862817863
2.0723881802363926,18.629277390882997,-0.027554771328766953,0.9237589897833839,-0.7252168738522727
2.066645792362161,18.437076068771205,-0.027134636997249648,0.9067297922336961,-0.740724635994465
2.060989292873783,18.248439581193274,-0.026736786701586968,0.8898081846989383,-0.7579236693753941
2.055414007884097,18.063345639798783,-0.026361165581141575,0.8729912571533958,-0.7767051385628709
2.0499152847314446,17.881772555008904,-0.02600762634887779,0.8562762170359046,-0.7969626155433125
2.044488510592407,17.70369921178552,-0.025675936880054543,0.8396603850915664,-0.8185918484867709
2.0391291295643126,17.52910504623232,-0.025365787197031305,0.8231411916055635,-0.8414905353714056
2.0338326583401356,17.35797002294672,-0.025076795890367508,0.806716173019211,-0.8655581015552211
2.0285947005903,17.19027461304301,-0.02480851601283163,0.7903829689209143,-0.8906954803881945
2.023410960158598,17.025999772768547,-0.0245604404795663,0.7741393194072794,-0.9168048959567915
2.018277253172776,16.865126922635497,-0.024332007004453184,0.7579830628122566,-0.9437896470451673
2.013189519164344,16.70763792699069,-0.024122602599660332,0.741912133804942,-0.9715538913828761
2.008143831286827,16.553515073945917,-0.023931567662409167,0.7259245618595358,-1.0000024292273881
2.0031364057169085,16.402741055589747,-0.023758199670143948,0.7100184701040028,-1.0290404853008182
1.9981636103187812,16.255298948400316,-0.02360175650249792,0.6941920745572495,-1.0585734880635835
1.9932219726484202,16.11117219377615,-0.023461459405702493,0.6784436837681627,-1.0885068452627906
1.9883081873715245,15.970344578598752,-0.02333649561235283,0.662771698873702,-1.1187457146394486
1.9834191231664242,15.832800215736778,-0.02322602062669845,0.6471746140974747,-1.1491947686155581
1.9785518291814221,15.698523524396478,-0.023129160182842765,0.6316510177148942,-1.179757951709066
1.9737035411147836,15.56749921021721,-0.023045011880381494,0.6161995935162365,-1.2103382293409586
1.968871686984943,15.43971224500351,-0.022972646499054554,0.6008191228047263,-1.2408373266036847
1.964053892658498,15.315147845976814,-0.022911108990895376,0.5855084869733271,-1.271155455452982
1.9592479872042188,15.19379145441993,-0.02285941914509802,0.5702666707112832,-1.3011910286654296
1.9544520081426624,15.075628713575767,-0.022816571917345263,0.555092765899789,-1.3308403587711823
1.9496642066631227,14.9606454456484,-0.022781537411604304,0.5399859762656081,-1.3599973400251302
1.9448830528825773,14.848827627738931,-0.022753260498350567,0.5249456228721704,-1.388553111320319
1.94010724122513,14.740161366530671,-0.02273066004876746,0.5099711505398401,-1.4163956977756054
1.9353356960052486,14.634632871517397,-0.022712627759626375,0.49506213530085724,-1.4434096285468254
1.9305675773039765,14.532228426544744,-0.02269802653820352,0.4802182930101242,-1.4694755282201475
1.9258022872343465,14.432934359407351,-0.022685688410653326,0.46543948925075607,-1.494469678952574
1.9210394767006114,14.33673700921322,-0.022674411910633213,0.45072575069335274,-1.5182635503352317
1.916279052765753,14.243622691190918,-0.022662958897543457,0.4360772780904756,-1.5407232937815283
1.9115211867532473,14.153577658574555,-0.022650050745366582,0.42149446111296446,-1.561709198101263
1.9067663232224572,14.066588061155127,-0.02263436383358694,0.4069778952625593,-1.581075102837988
1.9020151899725444,13.982639900034364,-0.022614524260819863,0.39252840112566445,-1.598667765955912
1.897268809247783,13.90171897805828,-0.02258910168929088,0.3781470462656176,-1.6143261826156272
1.8925285103379594,13.823810845341502,-0.022556602213790015,0.3638351700846404,-1.6278808521481813
1.8877959437916882,13.748900739220492,-0.022515460131648686,0.3495944120202144,-1.6391529910290994
1.8830730974885268,13.676973517893881,-0.02246402846989007,0.33542674347131846,-1.6479536908169172
1.8783623148485948,13.608013586922674,-0.02240056810088923,0.3213345038735184,-1.6540830218669462
1.8736663154970643,13.542004817674037,-0.022323235247021355,0.30732044135157777,-1.6573290864627972
1.8689882187469078,13.478930456703946,-0.022230067135421642,0.2933877583635742,-1.6574670292568239
1.8643315703188894,13.418773024992756,-0.022118965512373558,0.2795401626953852,-1.6542580191912215
1.8597003727860884,13.361514205885076,-0.021987677657158207,0.2657819240444205,-1.6474482262622647
1.8550991203160643,13.30713472055838,-0.021833774438309625,0.2521179362098134,-1.636767829845483
1.850532838394288,13.255614189880927,-0.02165462481670277,0.23855378452782744,-1.62193011461041
1.8460071293588713,13.206930981660221,-0.021447365996788998,0.22509581757413546,-1.6026307378726374
1.8415282247763123,13.161062042591215,-0.021208868122821987,0.21175122117829545,-1.578547292182738
1.837103045968461,13.117982714782602,-0.02093569195195283,0.19852809128467383,-1.5493393441449923
1.8327392744059088,13.07766653770853,-0.020624037215210923,0.18543549989694597,-1.5146492120035016
1.8284454342824343,13.040085038003848,-0.020269678246451768,0.17248354490954249,-1.4741038601083563
1.8242309904912786,13.00520751198139,-0.019867881669316568,0.15968336959008425,-1.4273184506608159
1.8201064666173736,12.9730008094981,-0.0194132980821579,0.14704713025077562,-1.3739023175978526
1.8160835897301415,12.943429133356503,-0.018899815129578404,0.13458788062158739,-1.3134684302557913
1.81217547217279,12.916453876426097,-0.018320352083290036,0.12231932823942371,-1.2456478056216276
1.808396845931512,12.892033529713874,-0.01766656450031107,0.11025540235317746,-1.1701107943664404
1.8047643736832522,12.870123708930507,-0.016928409292640306,0.09840955748841686,-1.086597632276936
1.801297074039975,12.85067736366138,-0.016093492071902787,0.08679373078899233,-0.9949608986479064
1.7980169195436038,12.83364524791827,-0.01514607456020498,0.07541689533584575,-0.895222055152672
1.794949698860929,12.818976732845421,-0.014065550989077798,0.06428324821509405,-0.7876420568879141
1.792126286844403,12.806621008560782,-0.012824087263549631,0.05339031640050603,-0.6728004881875225
1.7895845546686147,12.796528609637242,-0.011382885839198683,0.042727768585583525,-0.5516668667869322
1.7873723290759493,12.788652936739325,-0.009685929329041495,0.03227863996599912,-0.42563144249900287
1.785552268747407,12.782950909367297,-0.007647978561836258,0.022026382624742106,-0.29644655970246214
1.784211137521864,12.779380649402054,-0.0051246997766679,0.011976093234722795,-0.16602741222973053
1.7834844807025068,12.7778889940654,-0.0017958413600701515,0.0022301480667491977,-0.036102202846568704
