x,y,v_x,v_y,omega
2.375,32.48,0.0,3.3846153846153846,-4.938775510204081
2.373983213170654,31.877865733944297,-0.011297631437180121,3.3057653493368298,-4.62603993821425
2.3710819211584035,31.289637155815722,-0.020938946476711913,3.2301077409806846,-4.342932654676957
2.3665733260718786,30.71475835430221,-0.029156554484675107,3.15743449805835,-4.085811215462675
2.3606959507407486,30.152709171624377,-0.03614761586121319,3.087556420584215,-3.8515632544636262
2.3536554837185384,29.603002014507048,-0.04207979549668022,3.020300880719462,-3.6375185555735055
2.3456296518223874,29.065179044936077,-0.04709611446055071,2.9555098922913303,-3.4413774351895055
2.3367722983435004,28.53880969234589,-0.05131892419375152,2.8930384698218403,-3.261152089675888
2.3272168092057655,28.02348843995412,-0.054853177336637415,2.832753223420018,-3.0951183154262103
2.3170790014124996,27.5188328465617,-0.05778913147742578,2.7745311476069223,-2.9417755772934515
2.306459566186577,27.024481771890063,-0.060204593255049364,2.7182585709668237,-2.7998138335926632
2.295446141868011,26.54009377888211,-0.06216678806234648,2.6638302402326346,-2.6680858577684594
2.284115077836882,26.065345690679514,-0.06373392339464407,2.611148517573996,-2.5455840534843466
2.2725329396902336,25.599931283450463,-0.06495650045700742,2.5601226738599054,-2.4314209597796954
2.2607577970214363,25.14356009906087,-0.06587841808518197,2.510668263802246,-2.3248127996266796
2.2488403279720934,24.695956363896066,-0.0665379046852933,2.4627065713622365,-2.225065548784623
2.2368247688973004,24.256858002053846,-0.06696830725685264,2.4161641157735647,-2.131563099844361
2.2247497327312136,23.826015732723512,-0.06719876125522271,2.3709722101190374,-2.043757174482327
2.2126489157475233,23.403192242901753,-0.06725476078578302,2.32706656567828,-1.9611586995402706
2.2005517092104494,22.988161427723014,-0.0671586451817041,2.2843869363076768,-1.8833304129336566
2.1884837297734197,22.58070769163801,-0.06693001522973775,2.2428767979701103,-1.809880506130366
2.1764672802990592,22.180625304489162,-0.06658609004093319,2.202483059239325,-1.7404571430168465
2.1645217509613137,21.78771780723039,-0.06614201371179533,2.1631557991914905,-1.674743721929655
2.1526639689808564,21.401797462640253,-0.06561111940439686,2.124848029587825,-1.6124547696901608
2.1409085040840523,21.022684746897497,-0.06500515722676056,2.0875154786650274,-1.553332374595289
2.129267935719689,20.650207878339728,-0.0643344912661654,2.0511163941990773,-1.497143080244503
2.1177530871808035,20.28420238011944,-0.06360827027700719,2.0156113638040907,-1.4436751744245737
2.106373231032188,19.924510673815835,-0.06283457581871953,1.980963150680414,-1.3927363175096064
2.095136269613849,19.570981701362776,-0.06202055105171222,1.9471365432424381,-1.3441514633495018
2.084048893857378,19.223470572919126,-0.06117251290907708,1.9140982172425722,-1.2977610327255926
2.0731167231999033,18.881838238542144,-0.06029604995175257,1.881816609168358,-1.2534193053979912
2.0623444289958592,18.545951181732402,-0.05939610787096229,1.8502617998287634,-1.21099300175825
2.0517358434993325,18.215681133102823,-0.05847706431266727,1.8194054071665662,-1.1703600292983454
2.0412940562102246,17.89090480258831,-0.057542794455194564,1.7892204874391227,-1.1314083726474782
2.0310214991383626,17.571503628758613,-0.05659672856549892,1.7596814440019848,-1.0940351089220177
2.0209200223347805,17.257363543927475,-0.055641902585409166,1.7307639430106583,-1.0581455326716342
2.0109909608634555,16.948374753868094,-0.05468100265153914,1.7024448354268642,-1.023652376860812
2.001235194235384,16.64443153104963,-0.05371640432703121,1.674702084778325,-0.9904751181610791
1.9916531991964743,16.3454320204037,-0.05275020721641016,1.6475147001764596,-0.9585393563963889
1.982245096648072,16.051278056714732,-0.051784265543615676,1.620862674145408,-0.9277762593244472
1.9730106933815692,15.761874992804305,-0.050820215195305316,1.5947269248593203,-0.8981220650856383
1.9639495192241656,15.477131537748846,-0.0498594976647337,1.5690892424235625,-0.8695176356379073
1.9550608601196608,15.196959604432429,-0.04890338127420947,1.5439322388699694,-0.8419080553451097
1.946343787604543,14.921274165793093,-0.047952980004877147,1.51923930156708,-0.8152422696185249
1.9377971850842894,14.64999311917241,-0.04700927022016382,1.4949945497738244,-0.789472759143763
1.92942488880538,14.38303856324276,-0.04601624398993996,1.471167182777853,-0.7629263814895099
1.921229783197094,14.120335192235157,-0.04504048499101655,1.4477591617510865,-0.7374992837036404
1.9132087467768237,13.861808781508138,-0.044082141900875275,1.4247565129935473,-0.7131317375949758
1.9053586375489906,13.607387568647802,-0.04314129396393762,1.4021458521213135,-0.6897678037308755
1.8976763047014085,13.357002150217312,-0.04221795989808491,1.3799143526619249,-0.6673550526344055
1.890158598790145,13.110585383980244,-0.04131210578262044,1.358049716638834,-0.6458443092453815
1.8828023805856862,12.868072296252898,-0.040423652044700165,1.3365401469983396,-0.6251894184789418
1.8756045287334073,12.62939999406602,-0.03955247964728792,1.3153743217447345,-0.6053470299375939
1.8685619463638987,12.394507581839544,-0.0386984355694727,1.2945413696605406,-0.5862764000300807
1.8616715667733104,12.163336082295203,-0.037861337659287335,1.2740308474988038,-0.5679392099259591
1.8549303582802934,11.935828361351387,-0.037040978929790906,1.253832718543593,-0.5502993979310746
1.8483353283541266,11.711929056762578,-0.03623713136094974,1.233937332443181,-0.5333230050084504
1.841883527098005,11.491584510282173,-0.03544954926262516,1.214335406227975,-0.5169780322934698
1.8355720501620825,11.27474270314276,-0.034677972247622854,1.1950180064321645,-0.5012343095633637
1.8293980411525614,11.061353194661873,-0.0339221278581674,1.1759765322443674,-0.4860633737204371
1.8233586935957447,10.851367063794232,-0.03318173388424041,1.1572026996182918,-0.47143835643752385
1.817451252509454,10.644736853463414,-0.03245650040787843,1.1386885262796982,-0.45733388019400445
1.8116730156284124,10.441416517516874,-0.03174613160369501,1.120426317570741,-0.44372596200240644
1.8060213343250542,10.241361370158561,-0.03105032732250689,1.1024086530771782,-0.4305919241900131
1.8004936142626529,10.0445280377227,-0.03036878448195306,1.0846283739879585,-0.4179103116578512
1.7950873158135958,9.850874412661145,-0.029701198285348767,1.0670785711404014,-0.40566081509160545
1.7897999542720235,9.660359609624827,-0.0290472632876737,1.049752573707571,-0.39382419964603727
1.7846290998868364,9.472943923527264,-0.028406674325517578,1.032643938487568,-0.3823822386669234
1.7795723777382029,9.288588789485225,-0.0277791273259656,1.0157464397573257,-0.37131765205285777
1.7746274674781666,9.107256744538013,-0.027164320007773055,0.9990540596561357,-0.36061404889390886
1.7697972499125796,8.929129528308394,-0.026504764054302368,0.9801372317840907,-0.3984744064773902
1.7650815251574548,8.754398034550182,-0.025892177669306723,0.9613238099738258,-0.4375396865124396
1.7604719778203575,8.583043881822562,-0.025325014965109246,0.9426112203330639,-0.4777077046902173
1.7559605717434779,8.415049142938816,-0.0248017192224423,0.92399698948634,-0.5188777289017735
1.7515395517154273,8.250396327102344,-0.02432072553367572,0.9054787420300267,-0.560950256140737
1.7472014447355455,8.08906836246889,-0.02388046313167659,0.8870541983416774,-0.6038267904985231
1.7429390608856759,7.931048579071149,-0.023479357422431565,0.8687211727443458,-0.6474096212738114
1.7387454938613183,7.776320692041516,-0.023115831737094417,0.8504775720293563,-0.6916016001937817
1.734614121211477,7.624868785067914,-0.022788308816698626,0.8323213943440058,-0.7363059167120698
1.7305386043343405,7.476677294016103,-0.02249521204037345,0.8142507284538885,-0.781425870307091
1.726512888274212,7.331730990649881,-0.022234966405498297,0.7962637533930261,-0.8268646386536495
1.7225312013637955,7.190014966377817,-0.022005999265798614,0.7783587385187976,-0.872525040479883
1.7185880547550925,7.051514615951767,-0.021806740830900218,0.7605340439928616,-0.9183092918497587
1.7146782418817654,6.916215621038155,-0.021635624428288695,0.7427881217139342,-0.964118754527579
1.7107968378958853,6.784103933577889,-0.02149108652593554,0.7251195167334877,-1.009853674984233
1.7069391991225593,6.655165758844657,-0.021371566511018434,0.7075268691912968,-1.055412912494063
1.7031009625770248,6.529387538104146,-0.021275506217142446,0.6900089168143586,-1.100693654644934
1.6992780455904521,6.406755930768135,-0.021201349189220463,0.6725644980302082,-1.1455911184410503
1.6954666455929739,6.287257795927541,-0.021147539671648837,0.655192555754169,-1.1899982350168135
1.6916632401053846,6.170880173136883,-0.021112521301566815,0.6378921419197982,-1.2338053157991602
1.6878645869946154,6.05761026230914,-0.021094735484758122,0.6206624228329098,-1.2768996977539668
1.6840677250525502,5.94743540256437,-0.021092619427075184,0.6035026854423,-1.3191653651280644
1.6802699749630974,5.84034304985742,-0.021104603789067616,0.586412344634923,-1.3604825448513465
1.676468940728769,5.736320753189069,-0.021129109925693314,0.569390951680068,-1.4007272724930784
1.6726625116354725,5.635356129180888,-0.021164546666487913,0.552438203966385,-1.4397709253735627
1.6688488648429054,5.537436834766112,-0.021209306584257355,0.5355539561977759,-1.4774797191189224
1.665026468698032,5.442550537716748,-0.021261761692113197,0.5187382332395973,-1.513714163617373
1.6611940868808008,5.350684884689969,-0.021320258499344512,0.501991244835728,-1.5483284739976821
1.6573507835047163,5.26182746643423,-0.021383112346041306,0.48531340245026494,-1.5811699319172123
1.6534959293103815,5.175965779746427,-0.021448600924345942,0.46870533852530843,-1.6120781921377758
1.6496292091079487,5.093087185715159,-0.02151495688046012,0.4521679284887854,-1.6408845291126632
1.6457506306448888,5.013178863720739,-0.02158035937576226,0.4357023158936587,-1.667411018152821
1.6418605350990227,4.9362277605893325,-0.021642924467192782,0.4193099411219725,-1.69146964575119
1.6379596094238433,4.862220534215464,-0.02170069414591327,0.4029925741432181,-1.7128613439200282
1.6340489008043537,4.791143490873843,-0.02175162384841712,0.38675235187478585,-1.731374944080493
1.630129833517769,4.722982515337645,-0.021793568224745603,0.3705918207496231,-1.7467860473465744
1.6262042285353933,4.657722992806935,-0.021824264912763732,0.3545139851471397,-1.758855810271997
1.6222743262511419,4.595349721529608,-0.021841316023361975,0.3385223623787313,-1.7673296487233021
1.6183428127803365,4.535846814872343,-0.021842166985587212,0.3226210449241958,-1.7719358681518524
1.6144128503421329,4.479197591478204,-0.021824082327783916,0.3068147705662459,-1.772384237104577
1.6104881123241108,4.425384452043513,-0.021784117872462018,0.29110900093032077,-1.7683645337125964
1.6065728237339096,4.374388741181409,-0.02171908868532931,0.2755100086486067,-1.7595451141353615
1.6026718078793531,4.326190592847233,-0.021625531920852915,0.26002497284222836,-1.7455715804458412
1.5987905402993965,4.280768757936727,-0.02149966341200072,0.24466208171896775,-1.726065667494093
1.594935211216197,4.238100413017019,-0.021337326401324495,0.22943063961113855,-1.7006245300987983
1.591112798130521,4.1981609498439205,-0.021133930106185247,0.21434117342327594,-1.66882070247244
1.587331150698927,4.160923746556406,-0.02088437468930768,0.19940552977133155,-1.6302031339137195
1.5835990908114066,4.126359923518539,-0.020582957394250243,0.18463694842720052,-1.5842998964315356
1.5799265319975597,4.094438090137007,-0.020223251648491966,0.17005008914537745,-1.5306234352167343
1.5763246242022788,4.065124094236786,-0.01979794607685434,0.15566097641261645,-1.468679621888946
1.5728059330436368,4.038380793556875,-0.019298622352499212,0.1414868089197388,-1.3979824051658127
1.5693846676480927,4.014167880631529,-0.01871543759799207,0.12754555691742722,-1.3180765529426188
1.5660769792815512,3.9924418086808764,-0.018036655363581035,0.11385524253425439,-1.2285718096053135
1.56290136624366,3.97315588727815,-0.017247933946319086,0.10043277305157998,-1.1291925712951407
1.5598792420156493,3.956260639998579,-0.01633122414269042,0.0872921967214269,-1.0198473826358916
1.5570357584225172,3.9417045329251543,-0.015263038003221445,0.07444232631660853,-0.9007209493579563
1.55440103186249,3.9294351697094427,-0.014011701552635755,0.06188393163572774,-0.7723855308560075
1.5520120151435983,3.9194009572078023,-0.012532928657271174,0.04960731838251167,-0.6359148550964746
1.5499154368427828,3.911552987518604,-0.010762385796234564,0.03759234483080752,-0.4929591635061888
1.5481726682703196,3.9058463065136806,-0.008601709453355363,0.02581522189056068,-0.3457091673880923
1.5468688723609416,3.9022384416972216,-0.005884911761955568,0.014272164958992166,-0.1966602750929665
1.546136552480553,3.90067826714888,-0.0022519757979185978,0.0030631078003389555,-0.04812709983331334
