x,y,v_x,v_y,omega
2.375,32.48,0.0,3.7948717948717947,-5.428571428571429
2.3734226261751283,31.731539738379258,-0.015773738248716255,3.689730821335591,-5.007485506159603
2.368969629926217,31.00357867577238,-0.02875622424039878,3.5898798047331786,-4.635872833511677
2.3621515678575644,30.2951008083091,-0.03942439644612725,3.4948988698996155,-4.306287101625626
2.3533924264619417,29.605169484688272,-0.04816701751009857,3.4044143663086865,-4.012598701008927
2.34304546904578,28.932918838895066,-0.055302556651517745,3.318092091623375,-3.7497308674979344
2.3314059037544457,28.277546450653553,-0.061093096261826615,3.235631790791774,-3.513454636877033
2.3187210711848976,27.638307007941815,-0.06575522943365515,3.1567626363255723,-3.300228193006466
2.305198682381354,27.014506796844255,-0.06946865860178199,3.081239474650038,-3.107070050878637
2.2910135142128722,26.40549888150089,-0.07238302308303368,3.0088396787836116,-2.931458253029334
2.276312876726001,25.810678864930885,-0.07462335178567579,2.939360486916431,-2.771249725965821
2.2612210974134492,25.229481142759294,-0.07629444133984213,2.872616734799489,-2.6246153755618273
2.245843214377386,24.661375578220152,-0.07748438902079548,2.808438910591932,-2.489987553869519
2.230268029775553,24.105864539541173,-0.07826745699753082,2.7466714761978843,-2.3660173122601216
2.2145706436058794,23.56248025085241,-0.07870640469920348,2.687171410689711,-2.251539442147919
2.1988145635395915,23.03078241576152,-0.07885439596367613,2.629806940219198,-2.14554374753714
2.183053467480814,22.510356079179545,-0.07875656462409769,2.5744564256005646,-2.047151330845219
2.1673326805683857,22.000809698216266,-0.07845130450018722,2.5210073840322447,-1.9555949319610755
2.1516904165107076,21.501773397254794,-0.07797133607659597,2.4693556255824456,-1.8702025599669823
2.136158823752702,21.012897385859745,-0.07734459150345672,2.4194044883680528,-1.7903838118171942
2.1207648694798333,20.533850521122297,-0.07659495122523159,2.3710641590064476,-1.7156183931973858
2.1055310884577683,20.06431899851537,-0.07574285899541977,2.32425106706281,-1.6454464517385508
2.090476218872091,19.604005157412892,-0.0748058368613518,2.2788873439619426,-1.5794604076959464
2.0756157434261695,19.152626389189976,-0.07379891759786143,2.234900338267244,-1.5172980266375427
2.06096235078672,18.709914137321846,-0.07273500879663353,2.1922221804140567,-1.4586365260458496
2.046526329887098,18.27561298018349,-0.07162520019958969,2.1507893909695075,-1.403187545644194
2.032315907491034,17.849479788355087,-0.07047902376105168,2.110542527314489,-1.3506928417301585
2.018337537692222,17.43128294919007,-0.06930467422706671,2.0714258643356724,-1.3009205903942203
2.004596150604772,17.020801652226485,-0.06810919664743162,2.0333871053001746,-1.253662204432251
1.9910953663279203,16.617825229738298,-0.06689864612108748,1.9963771195816908,-1.2087295849724828
1.9778376792990922,16.222152547347157,-0.06567822416719288,1.9603497043297,-1.1659527420728901
1.964824617345202,15.833591440160678,-0.06445239537171024,1.9252613675350818,-1.1251777293882796
1.9520568790729715,15.451958190381564,-0.06322498735059273,1.8910711302560697,-1.086264846920289
1.939534452680905,15.07707704275235,-0.061999276570072266,1.857740346036082,-1.0490870732153628
1.9272567188087253,14.708779754571111,-0.060778062151724425,1.8252325357763053,-1.0135286944586424
1.9152225396486935,14.346905177340833,-0.05956372944859392,1.7935132365264834,-0.9794841029600944
1.9034303362142753,13.991298867405007,-0.05835830489558825,1.7625498628317748,-0.9468567417315576
1.8918781553845148,13.641812723179267,-0.057163503402016876,1.7323115794256168,-0.9155581753616036
1.8805637281085106,13.29830464681756,-0.05598076935802486,1.7027691841914665,-0.8855072703320616
1.8694845199564267,12.960638228355133,-0.05481131216281498,1.6738950004327793,-0.8566294703854832
1.8586377750356113,12.628682450552567,-0.05365613704533822,1.6456627775928978,-0.828856154627888
1.848020554147781,12.302311412827617,-0.05251607183296446,1.6180475996565902,-0.802124067802154
1.8376297679418079,11.981404072807514,-0.051391790226767625,1.591025800544423,-0.7763748136486927
1.827462205713092,11.665844004164935,-0.05028383206039168,1.5645748858813788,-0.7515544035261783
1.8175145604120053,11.355519169518466,-0.049192620950474726,1.538673460583318,-0.7276128535328472
1.8077834503481367,11.050321707284127,-0.048118479688211355,1.5133011617600691,-0.7045038242785794
1.798265438012105,10.750147731459823,-0.04706164367210486,1.4884385964829705,-0.6821842982347738
1.7889673810533895,10.454898537785702,-0.04591892591505121,1.4640533402582403,-0.6577264118458154
1.779895044729611,10.164478942661937,-0.04480443732273537,1.4401426109793962,-0.6343811189745316
1.7710428318054547,9.87879572864469,-0.043717691918825914,1.4166895291930734,-0.6120846780100971
1.7624052457464572,9.597758977394246,-0.04265816867114942,1.393677983311377,-0.5907776917908334
1.7539768969848077,9.321281920490058,-0.0416253189453439,1.371092585730519,-0.570404764449919
1.7457525077979419,9.049280798724006,-0.040618572923314666,1.3489186319300124,-0.5509141889800225
1.7377269159934094,8.781674729299255,-0.039637345122009435,1.3271420623174843,-0.5322576624500893
1.7298950775682047,8.518385580406985,-0.03868103913003956,1.3057494266052039,-0.5143900261446246
1.7222520684887845,8.259337852694127,-0.0377490516641622,1.28472785052336,-0.49726902819253593
1.7147930857189433,8.004458567172573,-0.036840776034247805,1.264065004692174,-0.4808551065141672
1.7075134476061402,7.753677159154325,-0.035955605093784676,1.243749075490318,-0.4651111901460648
1.7004085937224658,7.506925377828193,-0.03509293374296001,1.2237687377710074,-0.45000251720716195
1.6934740842439011,7.264137191122121,-0.03425216104268505,1.2041131292897,-0.43549646795078845
1.6867055989405912,7.025248695521277,-0.03343269199041389,1.1847718267187148,-0.4215624115071311
1.6800989358413418,6.790198030535969,-0.03263393900208115,1.1657348231343891,-0.4081715650629886
1.673650009627252,6.558925297535353,-0.03185532313881634,1.1469925068717606,-0.39529686435207606
1.6673548498021538,6.33137248268315,-0.031096275112165582,1.1285356416502532,-0.3829128444416389
1.6612095986812108,6.107483383729967,-0.030356236097263865,1.1103553478815833,-0.3709955299013838
1.6552105092335176,5.887203540433994,-0.029634658379667188,1.0924430850781375,-0.3595223335301777
1.649353942809721,5.670480168397532,-0.028931005858299844,1.0747906352864904,-0.3484719628958555
1.6436363667814775,5.457262096121227,-0.02824475442413369,1.057390087476578,-0.3378243340149252
1.6380543521158901,5.247499705091329,-0.027575392231739104,1.04023382282239,-0.3275604915629246
1.632604570904848,5.041144872727596,-0.026922419878683747,1.0233145008149218,-0.3176625350635198
1.627283793866393,4.838150918030845,-0.026285350505864457,1.0066250461525994,-0.30811355055587997
1.6220888878327862,4.638472549779738,-0.025663709830204395,0.990158636358475,-0.29889754728607737
1.6170222071621252,4.442241220910077,-0.025003096876404726,0.9721546523381226,-0.325013231283654
1.6120834765358287,4.249599619036577,-0.02438420938656218,0.9542613663968955,-0.3527683579262471
1.6072644456332053,4.0605259020528806,-0.023806099639670942,0.9364758034400518,-0.3820548562446459
1.6025570586396327,3.874998811328094,-0.023267770296054324,0.9187951038077976,-0.4127670973672202
1.5979534636168355,3.692997649040951,-0.02276817993191623,0.9012165190636214,-0.44480165878452815
1.5934460208162244,3.5145022563175914,-0.022306248074195362,0.8837374081699565,-0.4780570938521058
1.5890273100317402,3.3394929920965666,-0.021880859770648166,0.8663552340403015,-0.5124337055743908
1.5846901370819961,3.16795071264659,-0.021490869726794395,0.8490675604594676,-0.5478333237200071
1.580427539505493,2.999856751664023,-0.02113510603823741,0.8318720493661889,-0.5841590843188628
1.5762327915472798,2.83519290087791,-0.020812373543894754,0.8147664584949539,-0.6213152105845159
1.5720994085106084,2.67394139109075,-0.020521456822817984,0.7977486393766392,-0.659206794290804
1.5680211505428745,2.5160848735830506,-0.02026112285451934,0.7808165357003635,-0.6977395766094739
1.5639920259214195,2.361606401808814,-0.020030123360031887,0.7639681820419966,-0.7368197273850822
1.560006293901588,2.2104894133078155,-0.019827196838283944,0.7472017029679814,-0.7763536217842459
1.5560584671867854,2.0627177117583564,-0.019651070309742075,0.7305153125266098,-0.8162476132078127
1.5521433140781469,1.918275449091425,-0.019500460776642758,0.7139073141427004,-0.8564078012959664
1.5482558603598364,1.7771471075835734,-0.019374076406462604,0.6973761009358072,-0.8967397937869018
1.544391390974936,1.6393174818413208,-0.019270617442540813,0.6809201564867339,-0.9371484609085406
1.5405454515463886,1.5047716605844172,-0.01918877684293272,0.6645380560823021,-0.9775376808888122
1.5367138497975348,1.3734950081287742,-0.019127240645605045,0.6482284684741413,-1.0178100750621417
1.53289265692748,1.245473145461979,-0.019084688054943243,0.6319901581938273,-1.057866730926741
1.529078208997867,1.1206919307951821,-0.019059791241187066,0.6158219884741347,-1.0976069113677742
1.5252671083896687,0.999137439464306,-0.019051214840795146,0.5997229248346259,-1.1369277481041153
1.5214562253914081,0.8807959430408978,-0.0190576151418112,0.583692039399455,-1.175723917239875
1.5176426999838264,0.7656538874983205,-0.01907763893400471,0.567728516026308,-1.213887294604882
1.5138239438905439,0.6536978702618832,-0.019109921998821874,0.5518316563380561,-1.2513065883498098
1.5099976429697683,0.544914615951754,-0.01915308720893446,0.5360008867632318,-1.287866946020986
1.5061617600287418,0.4392909506046152,-0.019205742201329784,0.520235766708126,-1.3234495330771057
1.502314538150474,0.33681377413355307,-0.019266476581348786,0.5045359980024794,-1.3579310795261548
1.4984545046315652,0.23747003075502704,-0.019333858607740118,0.4889014357827648,-1.3911833910585274
1.4945804756407384,0.1412466770765235,-0.019406431300528274,0.4733321010023044,-1.423072820736723
1.4906915617202712,0.04813064749765772,-0.019482707904143727,0.4578281947863505,-1.4534596969818996
1.4867871742670913,-0.04189118346929632,-0.019561166627655405,0.44239011488316593,-1.4821977032870435
1.482867033147139,-0.1288320424075522,-0.019640244571868005,0.4270184744994254,-1.509133204807467
1.4789311756160286,-0.2127053022425116,-0.01971833073923694,0.4117141238501629,-1.5341045167649667
1.4749799667414365,-0.2935245321075328,-0.019793758006683416,0.3964781748000263,-1.5569411095018157
1.4710141115484645,-0.3713035524898771,-0.019864793923035327,0.38131202902342376,-1.5774627451081482
1.4670346691390204,-0.4460564964087439,-0.019929630171407527,0.36621741016524323,-1.5954785409288776
1.4630430690707215,-0.5177978774791825,-0.01998637051158148,0.35119640053914825,-1.6107859560915236
1.4590411303208404,-0.586542665828425,-0.020033016987229212,0.33625148295327734,-1.6231696987139457
1.4550310832075173,-0.6523063729534613,-0.020067454146002594,0.32138558829712055,-1.6324005539858104
1.4510155946954577,-0.7151051467379688,-0.02008743097459135,0.30660214954792936,-1.6382341373575982
1.446997797578798,-0.7749558779770993,-0.020090540192006914,0.2919051628433558,-1.6404095833276076
1.4429813241129428,-0.8318763198806778,-0.020074194466544047,0.27729925619240137,-1.638648189829292
1.4389703447647402,-0.885885222121658,-0.0200355990154836,0.2627897662173955,-1.6326520525057369
1.4349696128735845,-0.93700248104048,-0.019971719896074817,0.24838282297085215,-1.6221027444337226
1.430984516176348,-0.9852493075628743,-0.019879247076289963,0.23408544225305652,-1.606660128369808
1.4270211363644676,-1.030648414169903,-0.01975455104251195,0.21990562381721196,-1.585961435068617
1.423086318141264,-1.0732242217675676,-0.01959363118952496,0.20585245215945885,-1.5596208095485231
1.4191877496792324,-1.1130030863744196,-0.01939205343079008,0.19193619390906505,-1.5272296272683594
1.415334057018985,-1.1500135439313013,-0.01914487317168532,0.17816838165976284,-1.4883580281085593
1.4115349159334714,-1.184286568868167,-0.018846537683450154,0.1645618677089118,-1.4425583272726354
1.407801186318792,-1.2158558378038862,-0.018490758463343932,0.15113082164826028,-1.389371264308891
1.4041450766252095,-1.2447579831622733,-0.01807033847247892,0.13789063193557824,-1.328336474800786
1.4005803498047378,-1.2710328115975997,-0.017576929732238507,0.1248576524176873,-1.259009141927672
1.3971225887076246,-1.2947234478593543,-0.017000681238894314,0.11204871019982923,-1.1809855106675031
1.3937895494116028,-1.3158763453246394,-0.016329711721324556,0.09948026445299751,-1.093940749071095
1.390601648186987,-1.3345410806067406,-0.015549300524832383,0.08716708836804073,-0.9976832351764789
1.387582655759259,-1.350769826362395,-0.014640623752449754,0.07512036918847781,-0.8922289922825208
1.384760717755403,-1.3646163885054392,-0.013578756286108138,0.06334525224196019,-0.7778970750006045
1.3821698943198133,-1.3761347361216778,-0.01232947806978941,0.05183822392043838,-0.6554183366476726
1.379852541836903,-1.3853771126910814,-0.010844046759313249,0.040585541773576234,-0.5260325416380531
1.3778631330047753,-1.3923922137353344,-0.00905004156196383,0.02956546866895417,-0.3915214966253584
1.3762748883380382,-1.3972247758342533,-0.006832405105404794,0.01876015232024613,-0.2540993118984492
1.3751937576529807,-1.3999201821026048,-0.003978901745171721,0.008193910363263062,-0.11608174980856611
