x,y,v_x,v_y,omega
2.375,32.48,0.0,2.2051282051282053,-6.775510204081632
2.373602898375374,31.978204161303424,-0.012148709779355359,2.1583138704941596,-6.4068394293757605
2.3695896092178526,31.48698179580241,-0.02274945680779039,2.113184959949447,-6.067645857628579
2.363294565876649,31.00595771788042,-0.0319900505070221,2.0696331089374276,-5.754791308313896
2.355011915072091,30.53478045667847,-0.040032999967395136,2.0275604667317038,-5.4655429598868865
2.34500088811942,30.073120001504943,-0.04701940831669886,1.9868782739076487,-5.197512006686748
2.3334903557965,29.620665846398083,-0.05307217709999559,1.9475056835433124,-4.948603018460341
2.3206827094030635,29.177125283424335,-0.05829866110380181,1.9093687770979824,-4.716971874656319
2.306757181994448,28.74222190430423,-0.0627928815798096,1.8723997369898757,-4.500990621962843
2.291872701713183,28.31569427773353,-0.06663738173554078,1.8365361462335932,-4.299217961430208
2.276170351930779,27.897294775856068,-0.06990479028536102,1.801720391831329,-4.110374343209601
2.259775499356331,27.486788528147553,-0.0726591451446269,1.767899153460079,-3.9333208552143746
2.242799640497903,27.083952484784973,-0.07495701884170106,1.7350229627362879,-3.767041253120719
2.225342008235623,26.688574574627275,-0.07684847909116971,1.7030458212436894,-3.6106266048041067
2.2074909733035675,26.300452945389413,-0.07837791162235343,1.6719248677811824,-3.463262121120039
2.189325269820872,25.919395275580957,-0.07958472735760658,1.6416200870749715,-3.32421582319641
2.1709150693870405,25.545218149401656,-0.08050397206701625,1.6120940536146071,-3.1928287588098505
2.152322924452135,25.177746487114966,-0.08116685345390251,1.5833117054000778,-3.0685065304996773
2.1336045985266447,24.816813024515554,-0.0816011980720988,1.5552401432904477,-2.950711938504412
2.1148097981814806,24.46225783601434,-0.08183184840758861,1.5278484523722815,-2.8389585744292156
2.0959828196058665,24.11392789662064,-0.08188100877166588,1.5011075423555535,-2.7328052283390623
2.0771631206608547,23.771676678734018,-0.08176854727191518,1.474990004484647,-2.631850993939752
2.05842533957023,23.435375192133286,-0.08116867960308387,1.4493707485652156,-2.5275476169547892
2.03983582055163,23.10489956341567,-0.08047931186300268,1.4243303707183954,-2.428576350848994
2.021413807959642,22.780119346121825,-0.0797121019803685,1.3998454318367632,-2.334595094213127
2.003176008264627,22.46090934031656,-0.07887746058497769,1.3758937490785543,-2.2452879104993038
1.9851368614407296,22.147149313626713,-0.07798468570978451,1.3524543090940466,-2.1603627042659013
1.9673087831447038,21.838723741386904,-0.07704208208174523,1.3295071886434333,-2.0795491323159836
1.949702381011981,21.535521564280312,-0.07605706689845318,1.3070334818486693,-2.002596723074747
1.9323266479891792,21.237435962025234,-0.07503626373460467,1.2850152334128875,-1.9292731809127004
1.915189135269002,20.944364141802506,-0.07398558600606658,1.263435377219535,-1.8593628550150745
1.8982961070864017,20.65620714024626,-0.072910311233935,1.2422776797913133,-1.792665354895526
1.8816526793674562,20.372869637933245,-0.07181514719168011,1.2215266881479294,-1.7289942968129972
1.8652629439890664,20.094259785406145,-0.07070429088127407,1.201167681652928,-1.6681761672242947
1.849130080203656,19.820289039855332,-0.06958148116577169,1.1811866274845826,-1.6100492910333082
1.833256454604504,19.55087201166304,-0.06845004578337711,1.1615701394049374,-1.5544628938159044
1.8176437108508021,19.285926320084897,-0.06731294337924851,1.1423054395353855,-1.5012762484370745
1.8022928502340554,19.025372457407435,-0.06617280111420168,1.123380322877318,-1.450357897558986
1.7872043040465444,18.769133660977104,-0.06503194834241428,1.1047831243429473,-1.4015849444865134
1.77237799860611,18.517135792547904,-0.06389244679179862,1.08650268808488,-1.3548424056287387
1.7578134136976364,18.26930722444076,-0.06275611762971088,1.0685283389337836,-1.3100226185863002
1.74350963510873,18.025578732049603,-0.061624565752082874,1.0508498557719317,-1.2670247005185753
1.7294654018638118,17.78588339226685,-0.060499201595032456,1.0334574466867916,-1.2257540520128434
1.7156791486959972,17.550156487435075,-0.0593812607337906,1.0163417257634217,-1.186121902179559
1.702149044238681,17.318335414462723,-0.0582718215037417,0.9994936913874752,-1.1480448911420467
1.6888730253677748,17.0903595987698,-0.05717182085196435,0.9829047059422555,-1.111444686482566
1.6758599074670466,16.86630642652105,-0.0559857261108899,0.965383748394726,-1.09975014842579
1.663115814827612,16.646267003974444,-0.054832470753758036,0.9480025346192223,-1.0909855319820498
1.6506331425613014,16.430209696128358,-0.05371250547503001,0.9307566640424193,-1.0849931655904417
1.6384042015107152,16.218103857478546,-0.052626112356155885,0.9136419329124693,-1.0816209435319737
1.6264212553593915,16.009919787884314,-0.05157341939448311,0.8966543244286769,-1.0807219305139038
1.6146765545335118,15.805628690617802,-0.05055441387403672,0.8797899996279617,-1.0821539850015691
1.6031623671514117,15.605202632427577,-0.04956895466596503,0.8630452889826759,-1.085779399526131
1.5918710072578142,15.40861450545761,-0.0486167835392317,0.8464166846692213,-1.091464556299915
1.58079486056192,15.215837990871428,-0.04769753555549847,0.8299008334714907,-1.099079596561254
1.5699264078821953,15.026847524039145,-0.046810748616021726,0.8134945302874813,-1.1084981021488112
1.5592582464857394,14.841618261151758,-0.04595587222272472,0.7971947122115425,-1.1195967878720077
1.5487831094964348,14.660126047133033,-0.045132275510357645,0.7809984531686749,-1.1322552033000037
1.53849388353354,14.482347384724306,-0.04433925460177316,0.7649029590811297,-1.146355442637155
1.5283836247309506,14.308259404621577,-0.04357603933378561,0.7489055635513118,-1.1617818613883906
1.5184455732769322,14.137839836547574,-0.04284179939680865,0.7330037240487114,-1.178420798543765
1.5086731666046431,13.971066981143856,-0.042135649927443716,0.7171950185923194,-1.196160303027737
1.4990600513552077,13.807919682569509,-0.041456656589386125,0.7014771429237615,-1.2148898631655745
1.4896000942273728,13.648377301693696,-0.040803840174395534,0.6858479081702745,-1.234500137916696
1.480287391820882,13.492419689769036,-0.04017618075161141,0.6703052390006792,-1.2548826886126523
1.4711162795745791,13.340027162471557,-0.03957262139015242,0.6548471722817482,-1.2759297099156615
1.4620813398948922,13.191180474190766,-0.03899207147669131,0.6394718562468704,-1.297533758681946
1.4531774095657233,13.045860792450096,-0.0384334096465144,0.6241775501937475,-1.3195874793723175
1.4443995865268802,12.90404967233351,-0.03789548634342689,0.6089626247330926,-1.3419833246002089
1.435743236105003,12.765729030788364,-0.037377126020720866,0.5938255626160124,-1.3646132693444026
1.4272039967785115,12.63088112066751,-0.03687712899225057,0.5787649601740364,-1.38736851727976
1.4187777855563688,12.499488504365036,-0.03639427293942426,0.563779529412699,-1.4101391975941637
1.4104608030495274,12.371534026889737,-0.03592731407658885,0.5488681008072955,-1.432814050563606
1.4022495383137312,12.247000788208222,-0.035474987973812655,0.5340296268580458,-1.4552801000501328
1.3941407735430142,12.125872114675321,-0.03503601003242101,0.5192631864715258,-1.4774223109697933
1.3861315886947385,12.008131529352802,-0.03460907560476143,0.504567990246025,-1.499123229651071
1.3782193661294562,11.89376272099819,-0.03419285974551758,0.48994338675059734,-1.5202626048705283
1.3704017953523215,11.782749511483239,-0.03378601657739301,0.4753888699011534,-1.5407169872148856
1.3626768779472773,11.675075821376108,-0.03338717824907869,0.4609040875521484,-1.5603593042824955
1.355042932800961,11.57072563339208,-0.032994953458019005,0.4464888514393886,-1.5790584091096842
1.347498601720271,11.469682953384293,-0.032607925504502894,0.4321431486283296,-1.5966785990996681
1.3400428555560087,11.371931768508087,-0.03222464983690804,0.4178671546430134,-1.6130791026595792
1.3326750009551223,11.277456002149695,-0.031843651040365295,0.4036612484734491,-1.6281135307371941
1.3253946878760436,11.186239465161638,-0.031463419212492544,0.3895260296835619,-1.6416292905254688
1.3182019180157172,11.098265802893284,-0.031082405659911435,0.3754623378673496,-1.6534669588154929
1.311097054313497,11.013518437444969,-0.030699017837656023,0.36147127472670737,-1.6634596128912469
1.3040808317165875,10.93198050450846,-0.030311613439818075,0.34755422906902295,-1.6714321175630649
1.2971543694146956,10.8536347840855,-0.02991849353315392,0.3337129050436753,-1.677200368058254
1.2903191847788202,10.778463624301207,-0.02951789460489272,0.31994935395018165,-1.6805704902059941
1.2835772092716904,10.706448857452564,-0.029107979370149497,0.30626600995105285,-1.6813380019214144
1.2769308066367653,10.637571707358134,-0.028686826150938392,0.2926657300005032,-1.6792869437654536
1.270382793721046,10.57181268701018,-0.02825241659444692,0.2791518382425882,-1.6741889918327773
1.2639364643473316,10.509151485485088,-0.027802621437850568,0.2657281750190754,-1.665802574104549
1.2575956167285753,10.44956684305859,-0.027335183942638244,0.2523991504287191,-1.6538720226902373
1.25136458501756,10.393036413523316,-0.02684770050097231,0.23916980205193536,-1.6381268104731908
1.2452482757197345,10.33953661285489,-0.02633759774098953,0.2260458559343718,-1.6182809435370653
1.2392522098818244,10.289042453673968,-0.025802105197359596,0.21303378911712673,-1.5940326131395226
1.2333825722287102,10.24152736548601,-0.025238222221025015,0.2001408907781391,-1.56506425674179
1.2276462687948209,10.196963001565951,-0.024642677204099902,0.1873753172223775,-1.5310432419394975
1.2220509951445868,10.155319034759028,-0.02401187627619615,0.1747461332725943,-1.4916234770936114
1.2166053180943468,10.11656294662852,-0.023341837204151245,0.16226332873183838,-1.4464483770790368
1.2113187750844994,10.080659817617395,-0.02262810201191285,0.14993779310402702,-1.3951557827099612
1.2062019972386873,10.047572130622505,-0.02186561838645395,0.1377812242428457,-1.3373856592463294
1.2012668650489704,10.017259607104297,-0.021048574567605473,0.12580593678504984,-1.2727916899599316
1.1965267101008885,9.989679104062787,-0.020170164111367447,0.11402452444548063,-1.2010582269270766
1.1919965831482429,9.964784612133286,-0.019222244172507303,0.1024493184197466,-1.1219244156521584
1.1876936194284218,9.942527409076053,-0.018194831652024394,0.09109157773011745,-1.0352175378499244
1.1836375482270174,9.922856436346962,-0.01707535270801297,0.07996035904460595,-0.9408974081528249
1.1798514180858513,9.905718972119288,-0.015847518084736233,0.06906106902211971,-0.8391124009800844
1.1763626460947711,9.891061656718065,-0.014489629663786526,0.058393847510254795,-0.7302643320158201
1.1732045583672852,9.878831857210969,-0.012972002749135007,0.04795223516014722,-0.6150726223875875
1.1704186939207142,9.86897918963546,-0.011252905481916502,0.03772313506164928,-0.49461717783419656
1.1680583808679246,9.861456675741351,-0.009271555846689523,0.02769002923494423,-0.37032639992838523
1.1661947954020842,9.856220328581525,-0.006933535160618249,0.017843424328761848,-0.24386950501146243
1.164929508038941,9.853224107268638,-0.004068963649322296,0.008210674044169176,-0.11692250698482043
