x,y,v_x,v_y,omega
2.375,32.48,0.0,3.641025641025641,-4.448979591836735
2.3736259971295977,31.72601714181212,-0.013085741622877707,3.539763484573169,-4.101674467328415
2.369749106754842,30.992763502893606,-0.023837023850988577,3.4436045051269697,-3.7954531904021582
2.363817349715417,30.279209624624784,-0.03265590033400713,3.3521467164808785,-3.524096809880736
2.356202171018213,29.584405915669254,-0.03986961106793752,3.265031464047956,-3.2824906544909
2.3472125511890183,28.907474195931776,-0.04574581587677686,3.1819372953566054,-3.066402593999638
2.337106274348076,28.247600411768673,-0.05050443975123982,3.102574934768196,-2.872310683128695
2.3260989784025097,27.604028316225758,-0.054326950206539756,3.026683118021484,-2.697268134807009
2.3143714631344934,26.97605395271644,-0.057363671393612294,2.9540251058767417,-2.538796768043308
2.3020756211576505,26.363020813789092,-0.05973958552870042,2.884385741050402,-2.3948023568874532
2.289339273826856,25.764315571769643,-0.06155896047886943,2.817568944849121,-2.2635069537092782
2.2762701316277663,25.179364297354866,-0.0629090604648427,2.753395573386872,-2.1433944619228296
2.262959050973498,24.607629097233183,-0.0638631362424765,2.6917015706291387,-2.033166619289607
2.249482722851868,24.04860511362164,-0.06448284586828183,2.632336368528432,-1.9317072120546963
2.235905900612107,23.501817838013103,-0.0648202230818231,2.575161494409988,-1.8380528346346776
2.222283252316674,22.966820698995235,-0.06491928449373034,2.520049353379241,-1.7513688834087002
2.2086609060066142,22.443192890148424,-0.06481734703064695,2.4668821594475125,-1.670929757842018
2.195077742816925,21.930537409064463,-0.06454611191877795,2.415550993733088,-1.5961024604246061
2.1815664822907075,21.428479282683742,-0.06413255975948022,2.3659549717975867,-1.5263329552983582
2.1681545958420654,20.936663957604644,-0.06359969213234798,2.318000505146194,-1.4611347761441578
2.1548650776244505,20.454755836910635,-0.06296714803541406,2.2716006443205825,-1.4000794759162731
2.1417170967037973,19.98243694749521,-0.062251717875567755,2.2266744929691593,-1.3427885910675683
2.12872655012971,19.519405723925594,-0.06146777330621736,2.1831466838843374,-1.2889268560527782
2.115906533023108,19.065375896638876,-0.06062762770904002,2.140946909322484,-1.2381964539436856
2.1032677389839476,18.620075473762476,-0.05974183933058314,2.100009499024202,-1.1903321288404465
2.0908188018341693,18.183245807136203,-0.058819466857782284,2.0602730402736573,-1.145097017636025
2.078566587843964,17.754640734220978,-0.057868285429884425,2.021680035109446,-1.102279084291575
2.066516446061054,17.334025788536948,-0.056894969645453645,1.9841765904526973,-1.0616880604280572
2.0546724231074576,16.92117747210486,-0.05590524896022661,1.9477121374719646,-1.0231528127574698
2.0430374477741493,16.515882584087823,-0.05490403992841976,1.912239176976018,-0.986519071464988
2.031613489889543,16.117937600462326,-0.053895558972597096,1.87771304802872,-0.9516474647375132
2.0204016972296506,15.727148100100091,-0.05288341874066009,1.8440917173259013,-0.9184118137079409
2.009402513649359,15.343328233127838,-0.05187071059545049,1.8113355871717467,-0.8866976495378327
1.9986157811239262,14.966300227859143,-0.05086007536105308,1.7794073201491452,-0.8564009205037254
1.9880408279802246,14.595893932969378,-0.04985376410277007,1.748271678800983,-0.8274268620307427
1.9776765452541771,14.231946391917848,-0.04885369043101635,1.7178953788326246,-0.7996890068288193
1.9675214528228202,13.87430144691644,-0.04786147558190694,1.6882469545141052,-0.7731083157901356
1.9575737567170592,13.522809370006172,-0.04687848733010172,1.6592966351074958,-0.74761241322891
1.9478313988167428,13.177326519036171,-0.04590587362529372,1.6310162312734595,-0.7231349124896514
1.9382920999568827,12.83771501654746,-0.044944591706708135,1.6033790305238105,-0.6996148200010119
1.928953397327466,12.503842449749428,-0.04399543333535514,1.5763597008860173,-0.6769960075775323
1.9198126769250485,12.17558158994294,-0.043059046687668384,1.5499342020329283,-0.6552267442263945
1.910867201708637,11.852810129892632,-0.04213595537339242,1.5240797032080875,-0.634259279946237
1.9021141360223122,11.535410437784538,-0.041226574972559715,1.4987745073451806,-0.6140494750474561
1.8935625763775268,11.223270484406541,-0.0402168502158721,1.4739869533976464,-0.5912819969021947
1.8852204631478864,10.91628239000163,-0.03923184720927467,1.4497091837919696,-0.5695937525224898
1.8770826384018429,10.614341069212589,-0.03827124561018851,1.4259224427703345,-0.5489204911535054
1.8691440166354842,10.317345282210198,-0.03733467597417917,1.4026088620143276,-0.52920251341892
1.8613995941222405,10.025197453851735,-0.036421728913856456,1.379751408066259,-0.5103842979362857
1.853844456472546,9.737803503492248,-0.03553196298799616,1.357333833452678,-0.49241416263342486
1.8464737846523058,9.455072684702884,-0.034664911490482536,1.3353406312079261,-0.475243957171003
1.8392828596758246,9.176917434211077,-0.033820088285526996,1.313756992523562,-0.4588287832862809
1.8322670661601892,8.90325322943227,-0.03299699281576301,1.2925687672745922,-0.44312674023200355
1.8254218949032943,8.633998454012861,-0.032195114392761126,1.2717624271959598,-0.42809869279926416
1.8187429446262464,8.36907427084947,-0.031413935864837074,1.2513250315029885,-0.41370805968983304
1.8122259230022775,8.108404502091048,-0.030652936744391776,1.23124419476771,-0.3999206202468791
1.8058666470781728,7.8519155156681,-0.029911595866128793,1.2115080568794176,-0.38670433776754476
1.7996610431802296,7.599536117927837,-0.02918939363809174,1.1921052549326145,-0.3740291978101741
1.7936051463845994,7.351197451985527,-0.028485813939338765,1.1730248968989099,-0.3618670600763346
1.7876950996213095,7.106832901431229,-0.027800345711042278,1.154256536951533,-0.3501915225958808
1.78192715247207,6.866377999057498,-0.02713248428171563,1.1357901523220992,-0.3389777970745687
1.7762976597139803,6.62977034029786,-0.02648173246199288,1.1176161215792086,-0.32820259438022187
1.770803079654291,6.396949501088159,-0.025847601439810835,1.0997252042274823,-0.3178440192469621
1.7654399722953098,6.1678569598832205,-0.025229611502868163,1.082108521533845,-0.30788147336912053
1.7602049973632714,5.942436023580157,-0.024627292611782373,1.0647575384953205,-0.29829556613849556
1.7550949122303765,5.720631757116863,-0.024040184844361157,1.0476640468693972,-0.28906803235180883
1.7501065697551956,5.502390916530182,-0.023467838728789547,1.0308201491942168,-0.280181656280567
1.7452369160631407,5.287661885272982,-0.0229098154812564,1.0142182437314813,-0.27162020155397143
1.7404829882856454,5.076394613602812,-0.02236568716155815,0.9978510102701339,-0.26336834635782025
1.7358463821002463,4.868673420242743,-0.02179246698509819,0.9804460693495824,-0.2806974496089082
1.731326646018852,4.66459515408296,-0.021252638551992487,0.963156465505498,-0.2999565475472911
1.7269167964478838,4.464135932244023,-0.02074592879056026,0.9459789805796097,-0.3210345493062579
1.7226099164570834,4.267272534530772,-0.02027197588372896,0.928910521451366,-0.3438234165296366
1.718399173561806,4.073982377726676,-0.019830337404627446,0.9119481147781069,-0.36821792389691715
1.7142778358663662,3.884243490949853,-0.019420497790036958,0.8950889021440019,-0.39411542732951105
1.7102392867024592,3.698034491986732,-0.019041875199552444,0.8783301356000047,-0.4214156389548259
1.7062770378870544,3.515334564522888,-0.018693827804304446,0.8616691735794683,-0.4500204079304183
1.7023847417153404,3.336123436193521,-0.01837565954535185,0.8451034771764052,-0.4798335062499234
1.6985562017962517,3.160381357378551,-0.01808662539834965,0.8286306067756821,-0.5107604186657936
1.6947853828307564,2.9880890806692975,-0.017825936177795747,0.8122482190267352,-0.5427081358711016
1.6910664194264287,2.8192278409352447,-0.017592762911040956,0.7959540641547103,-0.5755849500836956
1.6873936240357947,2.6537793359204436,-0.017386240809281667,0.779745983605293,-0.6093002521706993
1.6837614941005286,2.4917257072995866,-0.017205472859921057,0.763621908021926,-0.6437643294395075
1.6801647184787312,2.3330495221238365,-0.01704953306195827,0.7475798555566521,-0.6788881632027667
1.6765981832282661,2.177733754585944,-0.016917469323422352,0.7316179305185014,-0.7145832251989822
1.673056976815392,2.0257617680330497,-0.01680830603728505,0.7157343223661958,-0.7507612719169304
1.6695363948147541,1.8771172971538235,-0.016721046349739734,0.6999273050550223,-0.7873341358304534
1.6660319441641507,1.7317844302641845,-0.016654674132198063,0.6841952367510744,-0.8242135124998673
1.6625393470353604,1.5897475916126993,-0.016608155665805317,0.6685365599297285,-0.8613107424364254
1.6590545443807592,1.4509915236227542,-0.016580441044682648,0.6529498018792788,-0.898536586556253
1.655573699214416,1.3155012689837378,-0.016570465301440428,0.6374335756351688,-0.9358009939690226
1.6520931996859123,1.1832621524976368,-0.01657714925574012,0.6219865813753085,-0.973012860753375
1.6486096620052628,1.0542597625804007,-0.01659940008377868,0.6066076083126538,-1.0100797782646624
1.6451199332780995,0.9284799323091697,-0.016636111603491904,0.5912955371276543,-1.0469077693998234
1.6416210943116998,0.8059087198967667,-0.01668616426698045,0.576049342990474,-1.0834010111079246
1.6381104624546154,0.6865323884634904,-0.016748424848108574,0.5608680992311982,-1.1194615412818973
1.6345855945355812,0.5703373849630147,-0.016821745809360196,0.5457509817257301,-1.1549889479961133
1.6310442899711792,0.45731031810383627,-0.016904964327802533,0.5306972740759381,-1.1898800388646713
1.6274845941164493,0.3474379350899781,-0.016996900955339803,0.5157063736750593,-1.224028488085881
1.6239048019383957,0.24070709698391113,-0.017096357883265682,0.5007777987636418,-1.2573244585092047
1.62030346209924,0.1371047524709681,-0.017202116775360328,0.4859111965976941,-1.289654195812429
1.6166793815444573,0.036617909776914814,-0.017312936127331157,0.47110635286951313,-1.3208995916108701
1.6130316307002561,-0.06076639354142088,-0.017427548103156856,0.45636320254321255,-1.3509377120406647
1.6093595493963977,-0.15506112324907662,-0.017544654790734512,0.44168184229162666,-1.3796402880710708
1.6056627536433203,-0.24627928388838427,-0.01766292381000101,0.4270625447493727,-1.4068731635167309
1.6019411434076667,-0.3344339574440838,-0.01778098319622425,0.41250577482874873,-1.4324956964564715
1.598194911547795,-0.4195383456811186,-0.017897415469221325,0.3980122083810814,-1.4563601095454706
1.5944245540910396,-0.5016058166813835,-0.01801075078559175,0.3835827535262299,-1.4783107845700512
1.5906308820577446,-0.5806499561784264,-0.018119459055312204,0.36921857501703553,-1.498183496594437
1.5868150350639303,-0.6566846243707758,-0.018221940885776753,0.35492112205297,-1.5158045832680258
1.5829784969654515,-0.7297240189870422,-0.018316517194974107,0.34069216000669383,-1.5309900454191097
1.5791231138424169,-0.7997827454782396,-0.0184014173101186,0.3265338065761186,-1.5435445761297792
1.5752511146644208,-0.8668758953251583,-0.0184747653374621,0.31244857291836087,-1.553260517318944
1.5713651350260924,-0.9310191335686753,-0.01853456455137907,0.29843941035321014,-1.5599167458220768
1.567468244400346,-0.9922287967949401,-0.01857867950334906,0.2845097632302949,-1.5632774955796465
1.5635639774260621,-1.050522002928389,-0.01860481548982943,0.27066362851680403,-1.5630911296054684
1.5596563698314159,-1.1059167742905416,-0.018610494935374446,0.25690562255128685,-1.5590888860288987
1.5557499996992619,-1.1584321754520133,-0.018593030132758967,0.24324105517700323,-1.5509836383343134
1.5518500349154776,-1.208088467405183,-0.018549491617566728,0.229676011043652,-1.5384687333536644
1.547962287818402,-1.2549072794643976,-0.018476671211723982,0.21621743713937,-1.5212170050935414
1.5440932783090549,-1.298911799978093,-0.018371038401107515,0.20287323441964383,-1.4988801131676976
1.540250307022481,-1.340126986288368,-0.018228688137691868,0.1896523494877645,-1.47108842878193
1.536441540657246,-1.3785797932096884,-0.018045277245498113,0.1765648592866935,-1.4374517993373
1.5326761123064379,-1.4142994173364443,-0.01781594514314864,0.16362203715861776,-1.3975616794169914
1.5289642407844206,-1.4473175513155212,-0.017535212209398653,0.15083638168972768,-1.350995340968567
1.5253173747559257,-1.477668637245877,-0.0171968452048366,0.13822157955176206,-1.297323193832129
1.5217483703738381,-1.5053901007995734,-0.016793672719807126,0.12579235905488234,-1.236120686566139
1.5182717158226793,-1.5305225365247637,-0.016317323005514046,0.11356417166124261,-1.1669868352318258
1.5149038237986612,-1.5531097991410832,-0.015757839127991266,0.1015526151608461,-1.089572124145965
1.5116634253972774,-1.5731989351780484,-0.0151030980280458,0.08977248995308826,-1.0036192072071266
1.5085721190921282,-1.5908398660060925,-0.014337914401945982,0.0782363750759046,-0.9090201186013348
1.5056551611680702,-1.6060847149288833,-0.013442637255750563,0.06695266228403426,-0.8058926412925251
1.5029426368569676,-1.6189866778877615,-0.012390927611892122,0.05592317541956771,-0.6946742049330522
1.5004712395702753,-1.6295984132888748,-0.011146189404227753,0.04514097125767684,-0.576221207638471
1.4982870489902118,-1.6379701523771786,-0.00965562564399472,0.03458987720235302,-0.4518821776279114
1.4964500799896794,-1.6441482455118503,-0.007839317218218953,0.024249105032611688,-0.32348704363064495
1.4950426016822966,-1.6481759923520514,-0.005565238090187058,0.014110388683620067,-0.1931771333087768
1.4941890769297648,-1.6501023165988045,-0.0025635690767834805,0.004235556523571141,-0.06302113850518423
