x,y,v_x,v_y,omega
2.375,32.48,0.0,2.2564102564102564,-3.3469387755102042
2.374271526848696,31.966520981599402,-0.006334549141775597,2.2086246862036294,-3.161930490187575
2.3721811230216843,31.46384296109831,-0.011842875440935218,2.1624885355449597,-2.9919068221960434
2.368907135154778,30.97159738045385,-0.016626584271291836,2.1179078178851563,-2.8352708118600956
2.3646060999867498,30.489436444135315,-0.02077372153764795,2.0747959761890575,-2.6906284184781755
2.359415633129684,30.017031500851154,-0.024360772871619245,2.0330730958471115,-2.556759008475442
2.353456895478997,29.55407159390324,-0.027454337134356317,1.9926652254390964,-2.432590659556009
2.346836705441915,29.100262157465103,-0.03011253275331536,1.9535037870664638,-2.3171794092000457
2.339649353034254,28.655323839866238,-0.03238618383503896,1.9155250616192974,-2.2096917495091657
2.331978162140929,28.21899143800535,-0.03431982393300238,1.8786697371710366,-2.109389806194149
2.3238968393448673,27.791012929476956,-0.035952548206665706,1.8428825109019482,-2.0156187464129536
2.3154706413115465,27.371148591003884,-0.037318739039602096,1.8081117366900021,-1.9277960448834395
2.3067573874712943,26.95917019341767,-0.038448685658244997,1.7743091118857552,-1.8454023052216952
2.2978083404349863,26.55486026479363,-0.039369114657477576,1.7414293978885351,-1.7679733875791466
2.2886689730279124,26.158011414483386,-0.04010364540403269,1.7094301700266128,-1.6950936372546628
2.2793796378871445,25.768425711739795,-0.04067318190699167,1.678271592961132,-1.6263900442562014
2.269976153125458,25.38591411343118,-0.04109625080332658,1.6479162184181195,-1.5615271924917644
2.2604903155285894,25.01029593602187,-0.041389293517270685,1.6183288025324363,-1.500202880713015
2.250950351049284,24.641398367575057,-0.041566919346256205,1.5894761404832964,-1.4421443165586822
2.2413813109323546,24.279056016030086,-0.041642125148780136,1.5613269164295036,-1.3871048008687799
2.2318054206022104,23.923110490432613,-0.041626486417689665,1.5338515670267838,-1.3348608325133053
2.222242387429289,23.573410012164963,-0.04153032378162685,1.5070221570397138,-1.2852095748161518
2.212709672632979,23.22980905354359,-0.04136284836020073,1.4808122657548284,-1.2379666336683794
2.2032417869725798,22.892170719660044,-0.040966592165008094,1.4551732462760236,-1.1888774364167811
2.193869381325107,22.560363552112523,-0.040532587378236076,1.430106471528494,-1.1422959359367524
2.184600517008011,22.23425852890046,-0.04006623277042101,1.4055893824894237,-1.098061656597025
2.1754420827013914,21.91373168394829,-0.039572326417578775,1.3816005736164518,-1.0560263357005266
2.1663999249425956,21.598663850337957,-0.03905513235455594,1.3581197186473166,-1.016052847861993
2.1574789641845027,21.288940419948794,-0.03851843945495029,1.3351275021279898,-0.9780142366881773
2.1486832980942583,20.984451118246795,-0.03796561350369666,1.3126055561502668,-0.9417928418229459
2.1400162935618257,20.685089793078603,-0.03739964330006336,1.2905364018340135,-0.9072795108830386
2.1314806687076713,20.39075421642693,-0.0368231815186732,1.2689033951370439,-0.8743728870778944
2.123078566022452,20.101345898175126,-0.03623858096149293,1.2476906766177958,-0.8429787644071012
2.114811617635376,19.816769911010546,-0.03564792675221067,1.2268831248133139,-0.813009503285696
2.106681003589151,19.536934725670278,-0.035053064954097685,1.2064663129281614,-0.7843835002809917
2.098687503895785,19.261752055799217,-0.03445562803168956,1.1864264685593127,-0.7570247063720292
2.0908315450568766,18.991136711750944,-0.033857057524037774,1.1667504362082777,-0.7308621887787579
2.083113241652666,18.725006462716156,-0.03325862425170508,1.147425642355088,-0.705829731965076
2.075532433534607,18.463281906613012,-0.03266144634011408,1.1284400628896498,-0.6818654739085336
2.0680887190951354,18.205886347218513,-0.032066505307463786,1.1097821927146734,-0.6589115741588922
2.060781485034696,17.952745678060943,-0.031474660435486426,1.0914410173511457,-0.6369139105856462
2.0536099329988655,17.70378827263044,-0.030886661615213785,1.073405986392367,-0.6158218020477052
2.0465731034168453,17.458944880498713,-0.030303160837135922,1.0556669886661116,-0.5955877545124856
2.0396698968359246,17.218148528969795,-0.029724722475218224,1.0382143289766663,-0.5761672284116016
2.0328990930141413,16.981334429911886,-0.0291518324968115,1.0210387063095003,-0.5575184252504811
2.026259368004758,16.7484398914463,-0.028584906715215356,1.004131193391256,-0.5396020916932395
2.019749309440859,16.519404234193033,-0.02802429818825429,0.987483217506735,-0.5223813395252564
2.0133720362449097,16.29428117948263,-0.027430251341740017,0.9701085625836908,-0.5254931824358785
2.0071286637142665,16.073139261173715,-0.02685994457689589,0.9528646401025304,-0.531089433647459
2.0010136571441492,15.855948866013325,-0.02631402559803525,0.9357474917269623,-0.5390353254617753
1.9950213516460404,15.64268127210687,-0.025792978733347103,0.9187533248509028,-0.5492005124532716
1.9891459881378823,15.433308611712775,-0.025297138728898605,0.9018785046629822,-0.5614587548230956
1.9833817462872898,15.227803835794106,-0.024826703450165813,0.885119546803701,-0.5756876149523973
1.977722774649588,15.0261406801947,-0.0243817455733284,0.8684731105824368,-0.5917681658498672
1.9721632182243511,14.828293633314335,-0.023962223341774388,0.8519359927250963,-0.609584710248651
1.9666972436374925,14.63423790516389,-0.02356799045699612,0.835505121626609,-0.6290245091590158
1.9613190621407026,14.443949397686971,-0.023198805167263508,0.8191775520857271,-0.6499775187258489
1.9560229506060776,14.257404676239297,-0.022854338612084843,0.802950460502747,-0.6723361342745067
1.9508032706810097,14.07458094212124,-0.022534182475462867,0.7868211405238374,-0.6959949404548954
1.9456544862567589,13.89545600606235,-0.02223785599628242,0.7707869991186936,-0.7208504664120619
1.940571179393511,13.720008262559357,-0.021964812379785932,0.7548455530812505,-0.7468009449220138
1.9355480648350893,13.548216664971196,-0.021714444649967645,0.7389944259462354,-0.7737460744339089
1.9305800032377798,13.380060701275873,-0.021486090978811295,0.7232313453174467,-0.8015867829540012
1.9256620132298903,13.215520370394579,-0.021279039524575778,0.7075541406068515,-0.8302249926925593
1.920789282411671,13.05457615898829,-0.02109253280776578,0.6919607411869596,-0.8595633843720534
1.9159571773990305,12.897209018631106,-0.02092577164997785,0.6764491749624739,-0.889505160062813
1.9111612530090758,12.743400343262753,-0.020777918697454625,0.6610175673710239,-0.9199538033705713
1.9063972606808626,12.593131946819991,-0.020648101547878387,0.6456641408268905,-0.9508128357482136
1.901661156220856,12.446386040942894,-0.02053541549565704,0.6303872146261158,-0.9819855676409298
1.8969491069594737,12.303145212647213,-0.020438925907666442,0.6151852053363205,-1.0133748430990197
1.8922574984027132,12.163392401848032,-0.0203576702380767,0.6000566277000238,-1.0448827764049196
1.8875829404612756,12.027110878612596,-0.020290659687468446,0.5850000960863652,-1.0764104791596305
1.8829222733388087,11.894284220011372,-0.020236880507897202,0.5700143265329858,-1.1078577761575974
1.8782725731609382,11.764896286425909,-0.020195294951844918,0.5550981394275641,-1.1391229082471446
1.8736311574276843,11.638931197159703,-0.02016484185905938,0.5402504628872673,-1.1701022202247864
1.8689955903737192,11.516373305183667,-0.020144436871070443,0.5254703369043467,-1.2006898316451524
1.8643636883238042,11.397207170830857,-0.02013297225862739,0.5107569183374703,-1.2307772882431813
1.8597335251346907,11.281417534235292,-0.020129316342357578,0.4961094868413568,-1.2602531914613033
1.855103437819944,11.168989286286692,-0.02013231248152774,0.4815274518421197,-1.289002803351848
1.85047203246059,11.059907437846338,-0.02014077759981047,0.46701036068270124,-1.3169076238851778
1.8458381905124248,10.954157086938373,-0.020153500210322202,0.4525579080821925,-1.3438449374398347
1.8412010756303365,10.851723383595296,-0.02016923789479258,0.4381699470750049,-1.3696873249873573
1.8365601411413426,10.752591491995243,-0.02018671418341681,0.42384650162111576,-1.3943021382197058
1.8319151383114034,10.656746549481479,-0.020204614772576172,0.4095877811072656,-1.417550931614572
1.8272661255667524,10.564173622000144,-0.020221583006998806,0.39539419699130524,-1.4392888482134085
1.8226134788487507,10.47485765543017,-0.020236214540840704,0.3812663818780281,-1.4593639547289798
1.8179579033025495,10.388783422208402,-0.020247051078300916,0.3672052113547326,-1.4776165215484136
1.813300446524533,10.305935462572432,-0.02025257307836246,0.35321182895803477,-1.4938782433198232
1.8086425136222224,10.226298019653012,-0.020251191289556457,0.33928767468910975,-1.507971396201532
1.803985884373688,10.149854967546588,-0.02024123695856854,0.3254345175406562,-1.5197079286522532
1.7993327328124997,10.076589731387077,-0.020220950530024637,0.31165449254203165,-1.5288884840507546
1.7946856496099697,10.006485198315445,-0.020188468622412026,0.29795014286346594,-1.535301355748134
1.790047667680568,9.939523618119427,-0.02014180902455858,0.2843244675366837,-1.5387213788006424
1.7854222915011748,9.875686492189438,-0.020078853404948485,0.2707809753327842,-1.5389087682237748
1.7808135307135522,9.814954449320634,-0.01999732735698629,0.25732374526550383,-1.535607922046468
1.776225938677015,9.757307106802479,-0.019894777308555867,0.24395749402279274,-1.5285462200321713
1.7716646567621694,9.702722915203491,-0.019768543690098436,0.23068765031622632,-1.517432867568809
1.7671354653384452,9.651178985324158,-0.019615729559677317,0.2175204355910086,-1.5019578616713853
1.7626448426262606,9.602650896023711,-0.019433163589754957,0.20446294963025669,-1.4817911962938255
1.7582000328885048,9.557112482132151,-0.019217355868990857,0.19152325812244175,-1.4565824829970957
1.7538091258731194,9.514535602598361,-0.018964444264796206,0.1787104769539933,-1.4259612487583795
1.7494811500666188,9.474889890639805,-0.018670127965644587,0.16603484442474908,-1.389538297023757
1.745226183304871,9.438142490305445,-0.01832958300607534,0.1535077671783713,-1.3469086970495086
1.741055485822327,9.404257788054029,-0.017937351624740982,0.14114181761654418,-1.2976572210829664
1.7369816632502848,9.373197154393505,-0.01748719247997547,0.12895064899670805,-1.2413674037087636
1.7330188709678322,9.344918720237018,-0.016971870845698442,0.11694877845099166,-1.1776358753314877
1.729183077495518,9.319377226423644,-0.016382855000512633,0.10515116775228163,-1.106094225159114
1.7254924148027508,9.296524003560194,-0.015709864067027877,0.09357250932118424,-1.0264413172508338
1.7219676598615448,9.276307162352524,-0.014940178899982197,0.08222610987594937,-0.9384894930140549
1.7186329182592648,9.258672097488326,-0.014057574163320576,0.07112228024751532,-0.8422278643811898
1.7155166230917245,9.243562417630876,-0.013040644684856944,0.06026624025205434,-0.7379036745582291
1.712653030966332,9.230921379177353,-0.011860156405512351,0.049655833256850516,-0.6261162108497746
1.7100845147530963,9.22069376086655,-0.010474767187841306,0.039279978141444426,-0.5079040284026117
1.7078651914145717,9.21282776421305,-0.008823696625415848,0.0291199927585698,-0.38478421553682024
1.706067066339734,9.207275767829593,-0.0068121735905652195,0.019158236662795432,-0.25867930555374347
1.7047923123034923,9.203990915028257,-0.004272644115883075,0.009405700740126484,-0.13166349215399184
1.7042104426525604,9.202907438634686,-0.0007870919791772382,1.5833117015258413e-05,-0.005536253557465343
