x,y,v_x,v_y,omega
2.375,32.48,0.0,2.871794871794872,-6.040816326530612
2.373723845250718,31.912118461932852,-0.012761547492821414,2.80702050887656,-5.676942476615646
2.3700734180623164,31.356938969121707,-0.023742724391192502,2.7447744192349206,-5.345693617717697
2.3643810344074607,30.8139723582879,-0.03318111215736585,2.684891689103134,-5.0432446393483215
2.3569349588152124,30.282760891926856,-0.04127964376511837,2.6272229745073186,-4.766305493629214
2.3479857705561136,29.762875347358587,-0.04821223882586599,2.5716324711753726,-4.512035066702965
2.3377517054336536,29.25391247751293,-0.05412841239873487,2.517996227281194,-4.277970734639626
2.3264231574895713,28.755492781879386,-0.059157067042088125,2.466200729054233,-4.061970404743631
2.3141664878086003,28.267258538412953,-0.06340962976762227,2.4161417056100754,-3.862164568450999
2.3011272588470257,27.788872056703628,-0.06698265984812532,2.3677231114831847,-3.6769164359035824
2.2874329902133845,27.320014120111853,-0.06996002648828503,2.32085625443457,-3.5047886344107995
2.2731955140825293,26.860382590369795,-0.07241473482026559,2.2754590429860224,-3.344515268270511
2.2585129943145987,26.409691152732922,-0.07441046285904303,2.2314553333826894,-3.194978380702657
2.243471662053525,25.96766818342202,-0.07600285975169313,2.1887743597263496,-3.0551880479026643
2.2281473114768025,25.534055724033713,-0.07724064601553307,2.1473502341566877,-2.9242654835417445
2.212606591990302,25.108608549977134,-0.07816654884946639,2.1071215064091287,-2.8014286490813807
2.196908127150084,24.69109332193532,-0.07881809955272104,2.0680307740089865,-2.6859799582151034
2.1811034856702967,24.281287810944995,-0.07922831524514985,2.0300243358942938,-2.5772957379991652
2.16523802582689,23.87898018900711,-0.07942628318891828,1.9930518834845687,-2.4748171688731118
2.1493516312218715,23.483968378238803,-0.07943766286126301,1.957066224198469,-2.3780424739225547
2.133479353099015,23.096059452496785,-0.07928511836730726,1.922023033221712,-2.2865201667999075
2.117651972093196,22.71506908617686,-0.07898869169087655,1.8878806299775392,-2.1998431995530363
2.1018964903674595,22.34082104555052,-0.07856612556649019,1.8545997762858975,-2.1176438776650506
2.0862365634764166,21.973146718558127,-0.07803314334393831,1.8221434936380294,-2.039589431016358
2.0706928799369986,21.611884679456452,-0.07740369205024468,1.7904768973787166,-1.9653781471377987
2.05528349534333,21.256880285129235,-0.07669015388643702,1.7595670458934256,-1.8947359877406973
2.040024126895512,20.907985300224553,-0.07590353059174544,1.729382803153424,-1.8274136216511576
2.024928413392715,20.565057548590453,-0.07505360443622898,1.69989471318758,-1.7631838173940968
2.0100081450450213,20.227960588748473,-0.07414907904070525,1.6710748852322075,-1.701839147130901
1.9952734668658443,19.89656341137868,-0.07319770275106435,1.6428968884657331,-1.6431899607465656
1.9807330589010361,19.570740156995328,-0.07220637689701648,1.6153356553677716,-1.5870625948455537
1.9663942961182987,19.250369852172934,-0.07118125093035706,1.5883673928561735,-1.5332977864437345
1.9522633904098086,18.935336162841935,-0.07012780615454449,1.5619695004537926,-1.481749265394584
1.93834551684263,18.625527163314395,-0.0690509295172413,1.5361204948216358,-1.4322825031906232
1.9246449260175615,18.320835119825357,-0.06795497873344405,1.5107999400687444,-1.384773598842174
1.9111650441609058,18.021156287487152,-0.06684383983311264,1.4859883833133258,-1.3391082851425213
1.8979227356040158,17.726394608777824,-0.06557924573578619,1.4616284037799128,-1.2910459565551515
1.8849325100829284,17.436457411404277,-0.06432300947509012,1.43774356995558,-1.2451774531644024
1.8721925149203307,17.151251366620528,-0.06307694215088597,1.414316877881924,-1.2013766405370871
1.8597005609936912,16.8706864682674,-0.0618425971155076,1.3913321056493406,-1.1595260125061089
1.8474541713575434,16.594675880908994,-0.060621299245971184,1.368773767934686,-1.119516007025203
1.8354506243405335,16.323135796744904,-0.05941417092412825,1.3466270737062442,-1.0812443835276084
1.823686991737178,16.055985300690555,-0.058222155109427395,1.3248778868372424,-1.0446156556179182
1.8121601726420806,15.793146243067483,-0.05704603584154448,1.303512689393478,-1.009540573608865
1.800866923411034,15.534543119389902,-0.0558864564689249,1.2825185473823495,-0.9759356520148735
1.7898038841778015,15.280102956774662,-0.05474393586339829,1.261883078770027,-0.9437227376426789
1.778967602306487,15.029755206538567,-0.05361888284974415,1.2415944235909255,-0.9128286143853778
1.7683545531163345,14.783431642580545,-0.05251160905178156,1.2216412159892855,-0.8831846412379808
1.7579611581778871,14.541066265176944,-0.051422340332692565,1.2020125580467391,-0.8547264204166936
1.7477838014459772,14.302595209846029,-0.05035122698640739,1.1826979952624033,-0.8273934927867509
1.7378188434654778,14.067956660963443,-0.04929835281858679,1.1636874935634711,-0.8011290580897783
1.7280626338596496,13.837090769833637,-0.048263743239693055,1.1449714177345898,-0.7758797177158336
1.7185115222878249,13.609939576943813,-0.04724737247855456,1.1265405111636475,-0.7515952379913436
1.7091618680387248,13.386446938146442,-0.046249170012447084,1.1083858768100427,-0.7282283321554769
1.7000100484075982,13.16655845453452,-0.04526902629882051,1.090498959309172,-0.7057344593770064
1.6910524659892956,12.95022140579022,-0.04430679788420392,1.0728715281338324,-0.684071639323979
1.682285555005139,12.73738468680288,-0.04336231195736183,1.0554956617395543,-0.663200280941756
1.673705786768772,12.527998747366262,-0.042435370406307946,1.038363732626643,-0.6430830242231793
1.6653096743849225,12.322015534777904,-0.04152575343218776,1.0214683932569408,-0.6236845938694613
1.6570937767649827,12.119388439175399,-0.040633222767209695,1.0048025627681128,-0.6049716638434015
1.6490547020343973,11.920072241455326,-0.03975752453864426,0.9883594144326202,-0.5869127319090232
1.6411966346968474,11.724207140743605,-0.0388231488368542,0.9702915926845779,-0.6062593123252235
1.6335209444421697,11.531944172846575,-0.03793375370992437,0.9523380862857049,-0.627414464348898
1.6260187362332699,11.34326078651895,-0.03708832837907298,0.9344957769905451,-0.6502617185020004
1.6186813225418515,11.158135041590594,-0.036285808535112415,0.9167616722930039,-0.6746873915059941
1.6115002334627673,10.976545584290054,-0.035525082255728056,0.8991329007123972,-0.7005803277807342
1.6044672256979782,10.798471623467567,-0.034804995392162356,0.8816067075124758,-0.7278316475498559
1.5975742905124866,10.623892907632321,-0.03412435646275515,0.864180450839994,-0.7563345004925508
1.5908136607574754,10.452789702721098,-0.033481941087356644,0.8468515982722176,-0.7859838238982905
1.5841778170494014,10.285142770517314,-0.03287649599338309,0.8296177237656108,-0.8166761042901053
1.577659493187943,10.120933347640673,-0.032306742621201076,0.8124765050008135,-0.8483091414833972
1.571251680890465,9.960143125028395,-0.03177138035357939,0.7954257211219777,-0.880781814040823
1.5649476339159958,9.802754227829038,-0.03126908939111302,0.7784632508715974,-0.9139938450693239
1.5587408716476066,9.64874919562936,-0.030798533292777756,0.7615870711251812,-0.9478455672826079
1.5526251821985197,9.498110962933488,-0.03035836119809169,0.7447952558335404,-0.9822376862209372
1.5465946251042388,9.350822839811723,-0.029947209744716458,0.7280859753841258,-1.0170710404794838
1.5406435336604969,9.206868492633628,-0.029563704692701694,0.7114574963968181,-1.0522463577462529
1.5347665169648335,9.066231924796554,-0.029206462263933454,0.6949081819739134,-1.087664005390019
1.5289584617181737,8.928897457356282,-0.028874090202664366,0.6784364924288158,-1.1232237342671791
1.5232145338418823,8.794849709461076,-0.02856518856025001,0.662040986523245,-1.1588244143331343
1.517530179965421,8.664073578483887,-0.028278350204361067,0.645720323248663,-1.1943637605479618
1.5119011288399902,8.536554219739596,-0.028012161049949972,0.6294732641942428,-1.2297380474568662
1.5063233927343864,8.412277025665059,-0.02776520000608691,0.6132986765511451,-1.264841810702374
1.5007932688708374,8.291227604328814,-0.027536038629401873,0.5971955368112908,-1.2995675335866648
1.4953073409607742,8.17339175712485,-0.02732324047123232,0.5811629352283473,-1.3338053166481665
1.4898624809034882,8.058755455490068,-0.02712536010162882,0.5652000811194863,-1.3674425280461844
1.4844558507144194,7.94730481646824,-0.026940941789058023,0.5493063090987909,-1.4003634323609049
1.4790849047545236,7.839026076923638,-0.026768517809899122,0.5334810863472235,-1.4324487952142892
1.4737473923378752,7.733905566184912,-0.02660660635658476,0.517724021040046,-1.4635754609018279
1.4684413608014761,7.631929676873831,-0.0264537090074067,0.5020348720707655,-1.4936158999990112
1.4631651591292858,7.5330848336436205,-0.026308307714494546,0.4864135602313358,-1.5224377236750042
1.4579174422319197,7.437357459517312,-0.026168861259169555,0.47086018103174204,-1.5499031612178396
1.4526971759944385,7.34473393947729,-0.02603380111564063,0.45537501936848007,-1.5758684970634105
1.4475036432174062,7.255200580912341,-0.025901526654682833,0.4399585662810085,-1.600183463444043
1.442336450591106,7.168743570477432,-0.025770399608317392,0.42461153806807456,-1.6226905846600481
1.4371955368598406,7.085348926863446,-0.025638737704338343,0.40933489807178297,-1.6432244689710858
1.43208118235286,7.005002448908673,-0.0255048073654662,0.39412988147594286,-1.6616110442637888
1.4269940200811635,6.927689658410518,-0.025366815351497766,0.3789980235056134,-1.6776667340648683
1.421935048625671,6.85339573691445,-0.025222899203429818,0.36394119145505943,-1.6911975712598255
1.4169056470728019,6.7821054556681055,-0.025071116325259987,0.3489616210083968,-1.7019982482256202
1.4119075922892068,6.713803097832674,-0.024909431510689067,0.33406195734592947,-1.7098511042480944
1.4069430788695088,6.648472371943946,-0.02473570268629137,0.31924530154135866,-1.7145250544398514
1.402014742141192,6.586096315516027,-0.024547664596879046,0.30451526273784457,-1.715774469429876
1.3971256846716917,6.5266571875897945,-0.024342910098122006,0.2898760165244811,-1.7133380226208226
1.3922795067980056,6.470136348958473,-0.02411886863873802,0.27533236978873193,-1.7069375328932173
1.3874803417943053,6.4165141287747325,-0.02387278139826728,0.26088983204867283,-1.6962768468441338
1.3827328964166474,6.365769676289663,-0.023601672378312347,0.24655469280201206,-1.6810408282318339
1.3780424977292336,6.31788079664317,-0.023302314495824483,0.23233410366291724,-1.6608945564854853
1.3734151473447296,6.2728237699930105,-0.022971189349214563,0.21823616283867273,-1.6354828855413797
1.368857584535304,6.230573153949074,-0.0226044387450413,0.2042699976007025,-1.604430585419017
1.364377360144792,6.1911015704385655,-0.022197805160079683,0.19044583750437316,-1.5673433909862637
1.3599829239420067,6.154379480012526,-0.021746556867772656,0.1767750667560022,-1.5238104277462425
1.3556837291402715,6.120374949566042,-0.02124539114957906,0.1632702377088308,-1.473408689504634
1.3514903594946441,6.08905342396994,-0.02068830530669369,0.1499450182521985,-1.415710527074164
1.3474146870410486,6.060377518835278,-0.020068419229262377,0.1368140330944196,-1.350295490352266
1.3434700727468427,6.034306861296443,-0.019377723712795492,0.1238925422939175,-1.2767683573697128
1.3396716290321566,6.010798018967414,-0.018606713434064486,0.11119588099637417,-1.194785755881211
1.3360365737546196,5.989804574149346,-0.017743839341307042,0.09873856718428467,-1.1040943130891516
1.3325847220711322,5.971277419118948,-0.01677467749356584,0.08653298311968798,-1.0045834203780508
1.329339189024054,5.95516536254971,-0.015680652977215537,0.07458758257267793,-0.8963547127241909
1.3263274171918673,5.941416131041134,-0.014437065344652134,0.06290473251309217,-0.7798067769995225
1.32358271054234,5.929977790634847,-0.013010001150621073,0.05147867154977272,-0.6557251682733867
1.3211465740000894,5.920800442484502,-0.011351364271883194,0.04029480995369588,-0.5253524218395584
1.3190724175411943,5.913837668941028,-0.009390200317067401,0.029332925481030205,-0.39039188053539975
1.317431947770006,5.909046422600966,-0.0070144973948159245,0.018579537919578525,-0.25288345189648465
1.316328710498789,5.906381922323888,-0.004017875317354371,0.008065464851199751,-0.11489876839547611
