x,y,v_x,v_y,omega
2.375,32.48,0.0,3.846153846153846,-4.081632653061225
2.37365931216862,31.68404743479523,-0.012768455536955589,3.734346774843936,-3.7462576426963983
2.369888650577568,30.910952144419742,-0.0231426072349665,3.62846551444641,-3.452731790249922
2.3641452641812073,30.15952073968039,-0.03155631082560974,3.528024054499816,-3.1943948682107206
2.356804196005572,29.42865622665051,-0.03835862418044065,3.4325903553085473,-2.9658268154616687
2.348174191272378,28.71734748771636,-0.04383189708807393,3.3417785869214733,-2.762587304639115
2.3385102477658064,28.02466024478168,-0.04820566011736827,3.2552427743611956,-2.5810157780936533
2.3280235796351305,27.349729242078787,-0.0516673696985928,3.1726715370949274,-2.418076620146142
2.3168895739763364,26.691751442968364,-0.05437077943278114,3.0937836925281488,-2.2712383432010252
2.305254179170282,26.0499800774307,-0.05644250443440501,3.0183245506877054,-2.138378631069871
2.293239060215737,25.423719408939917,-0.05798719989459171,2.9460627682721197,-2.0177091983478355
2.280945778925124,24.812320113964297,-0.059091669539818176,2.876787660067114,-1.9077159507073027
2.2684591986667018,24.215175186442387,-0.05982814244515807,2.8103068877606368,-1.8071110431007371
2.2558502692475373,23.631716294641674,-0.060256899642122504,2.7464444627223377,-1.7147942510011234
2.243178313886747,23.061410529807745,-0.060428389508259184,2.685039011886533,-1.629821676909255
2.230492914385259,22.503757495675288,-0.060384939077342985,2.6259422655654245,-1.5513802684991704
2.217835470625637,21.958286695765914,-0.060162144347627844,2.5690177335714797,-1.4787669670562433
2.205240495010535,21.424555181833135,-0.059790004367629865,2.5141395419788046,-1.4113715646625398
2.192736690314757,20.902145432128524,-0.0592938498778733,2.46119140758891,-1.3486625470901688
2.1803478498938644,20.39066343257999,-0.05869510651157966,2.4100657309685523,-1.2901753519900268
2.1680936116671865,19.889736937667724,-0.058011924218687984,2.3606627920054177,-1.2355025900135417
2.1559900913246586,19.399013890891176,-0.05725969809109925,2.3128900344378973,-1.1842858683287636
2.14405041545199,18.91816098734813,-0.05645150069622245,2.2666614278768016,-1.1362089278011531
2.132285171464369,18.446862363179317,-0.05559844204302769,2.2218968975404807,-1.0909918615554188
2.1207027881828076,17.984818398536788,-0.054709970162315436,2.1785218133407405,-1.048386227223014
2.109309858422527,17.53174462236631,-0.053794122792738465,2.1364665311399924,-1.0081709005675772
2.0981114129676097,17.087370708697303,-0.05285773868266383,2.0956659799934214,-0.9701485463933469
2.0871111536852522,16.65143955534508,-0.051906635435024995,2.0560592900277874,-0.9341426052319638
2.076311652211521,16.223706436978755,-0.050945759552897416,2.0175894563181256,-0.8999947124672637
2.0657145195596787,15.80393822541901,-0.049979313321786595,1.9802030347270703,-0.8675624812217783
2.055320551115264,15.391912670823078,-0.04901086233930555,1.9438498661865495,-0.836717592213153
2.0451298507520677,14.98741773810751,-0.0480434268339945,1.9084828263426805,-0.8073441434565881
2.0351419372005353,14.590250993565842,-0.04707955937107754,1.8740575978636695,-0.7793372205826422
2.025355835301155,14.200219037171259,-0.04612141109920572,1.8405324630371336,-0.7526016550066579
2.01577015436118,13.817136976522978,-0.04517078832912824,1.8078681145655584,-0.7270509425023718
2.006383155488213,13.440827938808699,-0.044229200937227944,1.7760274827132725,-0.7026062991170432
1.997192809486438,13.071122617520857,-0.04329790384157951,1.744975577170928,-0.6791958349934045
1.9881968466605187,12.707858850988096,-0.042377932595748805,1.7146793421886817,-0.6567538296747814
1.979392799670273,12.35088123007073,-0.041470133978019366,1.685107523690991,-0.6352200949762502
1.9707780404095345,12.000040732624292,-0.0405751923147278,1.656230547227476,-0.6145394135972889
1.9623498117396077,11.655194382562872,-0.03969365216076511,1.6280204057384307,-0.5946610434033213
1.954105254787019,11.316204931556957,-0.038825937863889715,1.6004505562226707,-0.5755382787743389
1.946041432413124,10.98294056158197,-0.037972370458917236,1.573495824491497,-0.5571280616568179
1.9381553493765513,10.655274606696242,-0.03713318227034892,1.5471323172773281,-0.5393906359999656
1.9304439696359053,10.333085292572868,-0.03630852954532673,1.5213373410405124,-0.5222892401413228
1.9229042311775784,10.016255492440774,-0.03549850339111987,1.4960893268842022,-0.5057898324564984
1.9155432990528147,9.704673320664714,-0.03460561208281957,1.4713599281258996,-0.4870653421827935
1.9083674093422813,9.398231039259109,-0.03373619468416544,1.447137990022712,-0.4692265697737463
1.9013716808152903,9.096824038064728,-0.03288979128717802,1.4234048784952016,-0.4522208927630083
1.8945513315433344,8.80035152774343,-0.03206591606478401,1.4001428388504835,-0.43599940870591736
1.8879016836802425,8.508716360560758,-0.0312640635837092,1.3773349438416487,-0.42051663061712563
1.8814181670141856,8.221824861693488,-0.030483714188260496,1.3549650453704505,-0.4057302106559964
1.8750963214732568,7.939586670328172,-0.029724338582490396,1.3330177295373096,-0.3916006891393519
1.8689317987414364,7.661914589875909,-0.028985401720561087,1.3114782747699494,-0.3780912662934409
1.8629203631202786,7.388724446682488,-0.02826636609998826,1.2903326127864294,-0.36516759444809765
1.8570578917531362,7.119934956662032,-0.027566694539465184,1.2695672921703092,-0.3527975886314943
1.8513403743127508,6.855467599326829,-0.026885852511824748,1.249169444355438,-0.3409512537483728
1.8457639122392315,6.5952464987267625,-0.026223310093119633,1.2291267518356652,-0.3296005267222268
1.8403247176034954,6.339198310848783,-0.025578543580559675,1.2094274184308147,-0.31871913215607417
1.8350191116609174,6.087252117060796,-0.024951036824946357,1.1900601414547636,-0.30828245022021866
1.829843523151,5.839339323215366,-0.024340282317122944,1.1710140856445665,-0.2982673956113207
1.8247944863911212,5.595393564056938,-0.023745782062674966,1.1522788587214257,-0.28865230654743185
1.8198686392057124,5.355350612602358,-0.02316704827455084,1.1338444884650534,-0.2794168428703158
1.8150627207264054,5.119148294188292,-0.022603603909324917,1.1157014011927193,-0.27054189242106713
1.8103735690936384,4.8867264049010295,-0.022054983069408878,1.097840401543128,-0.2620094849391966
1.8057981190858419,4.658026634124305,-0.02152073129055825,1.0802526534733163,-0.25380271281025
1.8013333996985303,4.432992490959279,-0.021000405731455802,1.0629296623840851,-0.2459056580537629
1.796976531692335,4.211569234287854,-0.020493575279928698,1.0458632582961467,-0.23830332500289436
1.7927247251261578,3.9937038062662076,-0.019999820588425036,1.0290455800052536,-0.2309815781802617
1.788575276889155,3.7793447690498922,-0.019518734049698158,1.0124690601501227,-0.22392708492205537
1.7845255682431067,3.568442244565265,-0.019049919722189605,0.9961264111320409,-0.21712726234509094
1.7805769099976592,3.361080597599347,-0.018556349282071553,0.9787464171148006,-0.235778253541922
1.7767285843327578,3.1573567414462964,-0.018094371336036398,0.9614807843428292,-0.25631581295905465
1.7729739796510304,2.957246993838904,-0.017663768489939932,0.9443263357275687,-0.27863079262391505
1.7693065394391603,2.7607283268332665,-0.01726423352787144,0.9272800167070588,-0.30261699667052616
1.7657197802764053,2.567778341614339,-0.01689537754598444,0.9103388901398525,-0.3281709477369231
1.7622073082041942,2.378375244332048,-0.01655673742745351,0.8935001315962701,-0.355191660618192
1.7587628335901848,2.192497822886274,-0.016247782705971547,0.8767610250301355,-0.3835804222805849
1.7553801846106287,2.0101254245823803,-0.015967921861228335,0.8601189588164616,-0.41324057736485537
1.7520533194661596,1.8312379345816545,-0.015716508086096388,0.843571422142824,-0.44407731832368935
1.7487763374381342,1.655815755073494,-0.01549284456176501,0.8271160017444122,-0.47599747934890174
1.745543488885402,1.483839785097956,-0.015296189273780682,0.8107503789749934,-0.5089093332488795
1.7423491842747763,1.3152914009487127,-0.015125759398845575,0.7944723272082939,-0.5427223904354855
1.739188002332524,1.1501524370873462,-0.014980735289271118,0.7782797095666314,-0.5773471991721124
1.736054697398839,0.9884051675003676,-0.01486026407915575,0.7621704769760265,-0.61269514622056
1.7329442060624964,0.830032287430182,-0.014763462933631528,0.7461426665495406,-0.6486782570035912
1.7298516531486778,0.6750168954106393,-0.014689421959879172,0.730194400303246,-0.6852089943720128
1.7267723571293083,0.5233424755365306,-0.014637206796021587,0.7143238842120756,-0.7222000550294615
1.723701835022124,0.37499287989459873,-0.014605860891447393,0.6985294076158748,-0.7595641626241992
1.7206358068421177,0.22995231108104974,-0.014594407489563192,0.6828093429893233,-0.7972138564644937
1.7175701996669668,0.08820530472739563,-0.01460185132139982,0.6671621460930761,-0.8350612747518373
1.714501151376553,-0.05026328804777336,-0.01462718001587565,0.651586356527549,-0.8730179311535029
1.711425014125755,-0.1854683183482777,-0.014669365229819195,0.6360805987153183,-0.9109944834518109
1.7083383576093296,-0.3174243574644251,-0.014727363498041535,0.6206435833432021,-0.9489004929109459
1.705237972177952,-0.4461457151920527,-0.014800116800791152,0.6052741093008368,-0.9866441728920676
1.702120871865377,-0.5716464586153407,-0.014886552842781103,0.5899710661590708,-1.0241321251226032
1.6989842973882512,-0.6939404314721287,-0.014985585034608223,0.5747334372388954,-1.0612690618846863
1.6958257191824246,-0.8130412742318711,-0.015096112163738825,0.5595603033300699,-1.0979575122294212
1.6926428405427145,-0.9289624450299954,-0.015217017738261996,0.5444508471282469,-1.1340975101467268
1.6894336009370607,-1.0417172416178602,-0.015347168982250546,0.5294043584704587,-1.169586262423804
1.6861961795709655,-1.151318824505715,-0.015485415456753481,0.5144202404615172,-1.2043177937078953
1.6829289992841212,-1.2577802414970094,-0.015630587275096603,0.4994980165984595,-1.238182566050569
1.6796307308683396,-1.3611144538366275,-0.01578149287520243,0.484637339016932,-1.2710670699516244
1.6763002979044228,-1.4613343642236885,-0.015936916304957995,0.46983799800267106,-1.3028533836424638
1.6729368822256419,-1.5584528469719743,-0.016095613969144842,0.4550999329333522,-1.333418697054859
1.6695399301271951,-1.65248278063833,-0.016256310777966722,0.44042324484143164,-1.3626347966176235
1.6661091594546096,-1.743437083482526,-0.016417695627611705,0.4258082108175599,-1.3903675067211023
1.6626445677198103,-1.8313287521716148,-0.016578416132381046,0.4112553005070846,-1.4164760834038133
1.6591464414117847,-1.9161709041987436,-0.016737072515483144,0.39676519498936463,-1.4408125555720241
1.655615366689767,-1.997976824551607,-0.016892210551350317,0.38233880837124956,-1.4632210088990654
1.652052241671102,-2.0767600172401544,-0.01704231343593657,0.3679773124720271,-1.4835368075226798
1.6484582905538727,-2.152534262377536,-0.0171857924424367,0.35368216502683764,-1.501585748848069
1.644835079846668,-2.225313679603559,-0.01732097619760888,0.3394551418876725,-1.5171831472923014
1.6411845370152296,-2.2951127987458335,-0.017446098387517324,0.32529837375306375,-1.5301328438488802
1.6375089718992126,-2.361946638730423,-0.01755928366978746,0.31121438800493895,-1.5402261401669224
1.6338111013031797,-2.425830795878902,-0.017658531530526447,0.2972061562663081,-1.5472406588027428
1.630094077226091,-2.4867815428588003,-0.017741697775079262,0.2832771483041741,-1.5509391359596885
1.6263615192654794,-2.5448159396819534,-0.017806473278364803,0.2694313928686856,-1.5510681601829903
1.6226175518200026,-2.599951958258039,-0.017850359535701073,0.25567354595116065,-1.547356881286027
1.6188668468228067,-2.6522086220876773,-0.017870640437592615,0.24200896671203673,-1.539515729957219
1.6151146728768675,-2.701606162687007,-0.017864349523732916,0.22844380090060776,-1.5272352125257
1.611366951845998,-2.748166194220559,-0.017828231722642435,0.21498507084750054,-1.510184880892572
1.6076303242036354,-2.7919119074974503,-0.017758698204621063,0.20164076988483018,-1.4880126299745424
1.6039122247917184,-2.832868283828468,-0.017651772385065295,0.18841995707726023,-1.4603445518569573
1.600220971152833,-2.8710623280512237,-0.017503024175746833,0.1753328450442043,-1.4267856882519547
1.5965658673676635,-2.906523318011402,-0.01730748806396506,0.16239086886227974,-1.3869221863230554
1.5929573275184539,-2.93928306450438,-0.017059558118981036,0.1496067167851451,-1.3403255985295706
1.5894070247774281,-2.969376170511623,-0.016752848938409177,0.13699429280763104,-1.2865604015916678
1.5859280751365477,-2.9968402706684714,-0.016380004784261756,0.12456856582900418,-1.2251962723176393
1.582535269698488,-3.0217162202378987,-0.015932427959161843,0.11234523959409405,-1.155827269143464
1.5792453774685415,-3.0440481864229625,-0.015399878992710368,0.10034015264458117,-1.0781008066454334
1.576077553724669,-3.0638835733199272,-0.014769870948931806,0.08856829399317531,-0.9917600356007885
1.5730539105050028,-3.081272687340544,-0.014026731143126584,0.07704231572695057,-0.89670352690334
1.5702003406515193,-3.096268030987659,-0.013150124604335713,0.06577048091222205,-0.7930649814221468
1.567547743704653,-3.108923121716721,-0.012112703461057998,0.054754192697921485,-0.681310997194948
1.565133897612391,-3.119290817283442,-0.01087630694143883,0.043985765080372524,-0.5623434728154575
1.5630064004240642,-3.1274213782191325,-0.00938557104262504,0.0334481485928548,-0.4375720815353672
1.5612275376175448,-3.133361065314922,-0.007555979495653512,0.02312029993849672,-0.3088944160492499
1.5598833686599078,-3.137153346392637,-0.005245629624699429,0.012996662706425365,-0.17850408961858596
1.5591065871244787,-3.1388493076845307,-0.0021522897603416364,0.0031553495973159675,-0.04847525011273615
