x,y,v_x,v_y,omega
2.375,32.48,0.0,3.6923076923076925,-3.4693877551020407
2.374111605013401,31.78755121652783,-0.009351526174729483,3.596626870557205,-3.219449044764336
2.371594011811295,31.112863811737633,-0.017149454900066134,3.505345811444907,-2.996676566586026
2.3677188047454814,30.455131800264642,-0.023642198424290932,3.4181490461654964,-2.797275019507148
2.362714446615249,29.81360624213982,-0.029035255578151863,3.3347515656747615,-2.618072096784538
2.3567736620246316,29.187589814824168,-0.03349931905992749,3.254895037647869,-2.4564028353223963
2.3500594389945464,28.57643204808349,-0.03717671283570471,3.1783446122540266,-2.310017751038989
2.3427099306648187,27.979525120489786,-0.04018653274037895,3.104886204521797,-2.1770094095313333
2.3348424765859335,27.396300135242658,-0.04262877335314814,3.0343241665006038,-2.0557533863085715
2.3265569156471333,26.826223807708125,-0.04458765758158864,2.966479281231303,-1.9448605329705466
2.3179383262943514,26.268795508650012,-0.04613433560559171,2.9011870246435927,-1.8431381815119545
2.3090593015897976,25.7235446163483,-0.0473290823370791,2.8382960522165215,-1.7495584559749222
2.2999818448284017,25.190028138216704,-0.048223094098665736,2.777666875484494,-1.6632322667354418
2.2907589543580262,24.667828568556253,-0.048859963484236275,2.719170699888671,-1.5833878719595536
2.28143595283559,24.15655195401727,-0.04927689464667098,2.6626884005216676,-1.509353127877805
2.2720516055532265,23.655826142416956,-0.04950570832557799,2.608109616323766,-1.4405407324818906
2.262639064054861,23.16529919394831,-0.04957367586773992,2.555331946504061,-1.3764359092584597
2.2532266645529653,22.684637936652265,-0.04950421362590063,2.5042602355595625,-1.316586088427198
2.243838605279321,22.213526650412668,-0.04931746293877634,2.4548059353835683,-1.2605922301431238
2.234495522578883,21.751665865755385,-0.04903077601320004,2.40688653469313,-1.208101502739196
2.2252149820627034,21.298771265452576,-0.048659124157111704,2.360425047441692,-1.158801083469105
2.21601189830365,20.85457267840332,-0.04821544172766413,2.3153495530767967,-1.1124128925131038
2.2068988942538104,20.418813156523463,-0.047710916691700744,2.2715927825006146,-1.0686891056424057
2.1978866096801792,19.991248126465102,-0.04715523671494037,2.229091744429501,-1.0274083187536458
2.1889839663727972,19.57164460892642,-0.04655679809960929,2.1877873875566323,-0.9883722599169771
2.1801983966114507,19.159780499128942,-0.04592288359877351,2.14762429452208,-0.9514029627425397
2.1715360403312736,18.75544390274979,-0.045259814087301994,2.1085504042058725,-0.916340329628951
2.163001915562498,18.358432522217054,-0.04457307821559914,2.070516759296594,-0.8830400254951069
2.1546000660019256,17.968553088819895,-0.04386744347463546,2.033477276462998,-0.851371652449194
2.1463336889765774,17.585620836561915,-0.04314705152903177,1.9973885367788797,-0.8212171639403406
2.1382052465618537,17.209459014106553,-0.04241550020490191,1.9622095943301965,-0.7924694836053567
2.1302165621998848,16.839898431533573,-0.04167591413161037,1.927901801174861,-0.7650312995337372
2.1223689048143455,16.4767770389536,-0.040931005716171816,1.894428647035384,-0.7388140092430674
2.11466306212429,16.119939534317954,-0.04018312786336329,1.8617556122872059,-0.7137367944563959
2.10709940461206,15.769236998018986,-0.039434319633791556,1.8298500329650704,-0.689725807941762
2.099677941391278,15.424526552105611,-0.0386863458481236,1.7986809766494176,-0.6667134573240185
2.0923983690439725,15.085671042143275,-0.03794073149193627,1.768219128217262,-0.6446377730013113
2.085260114345785,14.752538739930412,-0.03719879164687947,1.7384366845497257,-0.6234418491670203
2.078262371670584,14.425003065446774,-0.03646165756576264,1.7093072573832915,-0.6030733485130046
2.0714041357571036,14.102942326555677,-0.035730299418239866,1.6808057835756147,-0.5834840625210168
2.0646842304274466,13.786239475113565,-0.03500554615709591,1.6529084421308504,-0.5646295203766841
2.0581013337679397,13.474781878258597,-0.03428810289034832,1.6255925773951203,-0.5464686404979018
2.051654000214852,13.16846110375641,-0.033578566089523566,1.5988366278910566,-0.528963419484337
2.0453406799291445,12.867172718377102,-0.0328774369179222,1.5726200603122082,-0.5120786539898332
2.0391597357942453,12.570816098364233,-0.032185132923121286,1.5469233082442901,-0.49578169161371166
2.033109458327644,12.279294251134985,-0.03150199830426295,1.5217277152214648,-0.4800422074160272
2.0271880787598264,11.992513647421493,-0.03082831293592129,1.4970154817626748,-0.46483200309885625
2.021398941656793,11.71038464490574,-0.030109972359166428,1.4727634920873462,-0.44863715350773015
2.01574473824379,11.432820721814533,-0.029407958304023294,1.4489620141358996,-0.43315406324764866
2.0102223859916495,11.159737756932582,-0.02872206540271603,1.425595510937269,-0.4183432552319826
2.0048288440116853,10.891054516365195,-0.02805206070217297,1.4026491266141805,-0.40416785597229404
1.9995611178352433,10.626692527697667,-0.02739768852353261,1.380108648833492,-0.39059339651768593
1.994416263330013,10.366575961055812,-0.026758674689416773,1.3579604737123347,-0.3775876306449477
1.989391389865693,10.11063151661872,-0.026134730198162433,1.3361915729938927,-0.36512036863198816
1.9844836628275313,9.85878831816865,-0.025525554414065142,1.3147894633226547,-0.3531633251245542
1.9796903055639745,9.61097781229397,-0.024930837833901074,1.2937421774634488,-0.34168997976314336
1.9750086008439287,9.367133672889388,-0.024350264482371823,1.2730382373216544,-0.3306754493759153
1.9704358918897662,9.127191710623613,-0.02378351398249507,1.2526666286338526,-0.3200963706665249
1.9659695830440147,8.891089787068548,-0.023230263341207112,1.2326167772089356,-0.30993079243508037
1.961607140120484,8.6587677332058,-0.02269018848543204,1.2128785266094644,-0.300158076467549
1.9573460904843147,8.430167272046564,-0.022162965579506175,1.1934421171719494,-0.2907588063153612
1.9531840228999129,8.205231945119312,-0.0216482721510382,1.1742981662728038,-0.28171470326396547
1.9491185871809131,7.983907042596758,-0.021145788048961084,1.15543764975409,-0.2730085488577828
1.945147493672072,7.7661395368492805,-0.02065519625462723,1.1368518844298823,-0.26462411341036157
1.9412685125892781,7.551878019226422,-0.020176183564257856,1.1185325116002027,-0.2565460899833949
1.9374794732405842,7.341072639881421,-0.019708441158834317,1.1004714815050771,-0.24876003336737607
1.9337782631483158,7.133675050466081,-0.01925166507557136,1.0826610386563795,-0.2412523036406828
1.930162827089763,6.929638349534692,-0.01880555659340488,1.065093707989816,-0.23401001392337223
1.9266311660717639,6.72891703050621,-0.018369822543428886,1.0477622817836851,-0.2270209819774385
1.9231813362525174,6.531466932043735,-0.01794417555390136,1.030659807294992,-0.2202736853371767
1.9198114478222599,6.337245190719337,-0.017528334238283396,1.0137795750670935,-0.2137572196820018
1.9165196638529158,6.146210195840656,-0.01712202333376059,0.997115107866375,-0.20746126018993225
1.9133076262268747,5.958517844070073,-0.016688899045619383,0.9785938581397762,-0.24235738158603556
1.9101741427483259,5.774334416552037,-0.016295137570683422,0.9601790631027213,-0.2786205247872213
1.9071118344445412,5.593639948269203,-0.015939686679681316,0.9418679714534388,-0.316148452328751
1.904113525777356,5.416414987004746,-0.015621457185427281,0.9236579365934828,-0.3548407429914841
1.9011722512481355,5.242640573755558,-0.015339327332682048,0.9055464133979689,-0.3945985710594143
1.8982812612086,5.072298223725561,-0.015092146767691404,0.8875309553388654,-0.43532448813553315
1.8954340269548007,4.905369907832444,-0.014878740114406971,0.8696092119570975,-0.47692220658948453
1.892624245176693,4.74183803466175,-0.014697910181463965,0.8517789266817745,-0.5192963836972159
1.8898458418314432,4.581685432802217,-0.014548440821165834,0.8340379349975099,-0.5623524055120783
1.8870929755048294,4.424895333495911,-0.014429099458980786,0.8163841629636126,-0.6059961694781609
1.8843600403218363,4.271451353535635,-0.014338639309364725,0.7988156260919188,-0.6501338647595492
1.8816416684647959,4.121337478340543,-0.014275801291062935,0.7813304285932582,-0.6946717492130686
1.8789327323551686,3.9745380451386083,-0.014239315652381833,0.7639267630060573,-0.7395159218761818
1.87622834655334,3.8310377261817123,-0.014227903314233778,0.7466029102244318,-0.7845720897752259
1.8735238694295666,3.6908215119153915,-0.014240276936012111,0.7293572399473777,-0.8297453277811476
1.8708149046585265,3.553874694020724,-0.014275141706517721,0.7121882115754204,-0.8749398301492192
1.8680973025897836,3.4201828482403513,-0.014331195859197421,0.6950943755863984,-0.9200586522746883
1.8653671615469158,3.289731816893976,-0.014407130907829762,0.6780743754280605,-0.9650034410765665
1.8626208291091029,3.1625076909809735,-0.0145016315954632,0.6611269499719543,-1.0096741522852866
1.8598549034306804,3.0384967917584618,-0.014613375545827922,0.644250936580819,-1.0539687527551578
1.857066234656584,2.9176856516724854,-0.014741032602553552,0.6274452748505266,-1.0977829057476858
1.8542519264948005,2.800060994507401,-0.014883263837271909,0.6107090110977377,-1.1410096369351117
1.8514093380109746,2.685609714603892,-0.015038720203000653,0.5940413036760517,-1.183538978653206
1.8485360857153084,2.5743188549790723,-0.015206040804015542,0.5774414292168047,-1.2252575896867357
1.845630046017901,2.4661755841624,-0.015383850747641406,0.5609087899060717,-1.2660483475987365
1.8426893581358668,2.361167171538238,-0.015570758536928353,0.5444429219272076,-1.305789910314891
1.839712427544046,2.2592809609593694,-0.015765352955920235,0.5280435052187775,-1.3443562433469483
1.8366979300710848,2.1605043423650514,-0.01596619939104056,0.511710374721405,-1.3816161086856795
1.8336448167542634,2.0648247211016546,-0.016171835522871127,0.49544353331436886,-1.417432511017967
1.8305523195799398,1.9722294846027388,-0.01638076631211125,0.4792431666742101,-1.4516620965312912
1.8274199582520891,1.882705966037939,-0.016591458191581896,0.46310966032367873,-1.484154499174084
1.8242475481494471,1.796241404485034,-0.016802332362542888,0.4470436191805701,-1.5147516288615765
1.821035209652592,1.7128229011164144,-0.017011757078037648,0.4310458899627982,-1.5432868957841626
1.8177833790462574,1.6324373708183728,-0.01721803877811613,0.4151175868587024,-1.5695843647351924
1.8144928212298255,1.5550714885784451,-0.017419411921166847,0.39926012093002744,-1.593457833297061
1.8111646445008098,1.480711629881121,-0.0176140273316306,0.3834752337786305,-1.6147098279121157
1.8078003177129578,1.4093438042450082,-0.017799938856284413,0.36776503607517635,-1.6331305124716577
1.8044016901532534,1.3409535809143733,-0.017975088087973365,0.3521320516157098,-1.64849650530838
1.80097101453172,1.2755260055856183,-0.018137286875535764,0.33657926763435747,-1.6605696027077652
1.7975109735360575,1.2130455069063153,-0.018284197289331595,0.32111019214777353,-1.6690954107516895
1.7940247104718603,1.153495791335569,-0.018413308649586714,0.30572891912325717,-1.6738018931924912
1.7905158645914736,1.0968597248077891,-0.01852191114395819,0.2904402022217761,-1.6743978521875211
1.7869886118148477,1.0431191995125495,-0.018607065452105515,0.27524953772811694,-1.6705713726638878
1.7834477116707501,0.9922549840154709,-0.01866556764365837,0.260163256977977,-1.6619882821336112
1.7798985614468694,0.9442465549402428,-0.018693908397189377,0.24518862802444027,-1.6482907093392996
1.7763472587493672,0.899071908574733,-0.018688225260730815,0.23033396529671477,-1.629095872191893
1.7728006739633981,0.856707351158196,-0.01864424617052203,0.21560874435102576,-1.603995295436674
1.7692665345205811,0.81712726741236,-0.018557221648604457,0.2010237161314429,-1.5725547621270923
1.7657535234914297,0.7803038683441912,-0.018421841816146214,0.1865910109019206,-1.5343154558632164
1.7622713959545644,0.7462069218466176,-0.01823213225611996,0.17232421538834192,-1.488796974865277
1.758831118059354,0.714803473709452,-0.017981319272409323,0.1582383965818333,-1.4355032241939318
1.7554450360480782,0.686057573117818,-0.017661649267335194,0.1443500306985176,-1.3739326563825645
1.7521270863347749,0.6599300266256307,-0.017264137188490337,0.13067677448240012,-1.3035949729826337
1.748893064054176,0.6363782192237011,-0.016778202607287625,0.11723698764317274,-1.2240372409910434
1.7457609779665684,0.6153560616021956,-0.016191124630687132,0.10404888205688877,-1.1348833646407241
1.742751536976705,0.5968141489040981,-0.015487201578401354,0.09112914634411928,-1.0358917201905713
1.739888842237328,0.5807002440237667,-0.014646427257146762,0.07849090502778579,-0.9270357487306147
1.7372014060772174,0.5669602136307219,-0.013642374428226937,0.06614099384636335,-0.8086096452256801
1.7347236975182048,0.5555395121795605,-0.012438768298221398,0.05407691616586181,-0.6813526078244523
1.7324985522799605,0.5463851548021097,-0.010983813156982054,0.04228474043886872,-0.5465656890816168
1.7305810723162924,0.5394477124305439,-0.009200186460576906,0.03074096873549253,-0.4061629056881964
1.7290454456395652,0.5346819509784702,-0.006964304873393079,0.01942494128632517,-0.2625635985687019
1.7279994098534117,0.5320423390275728,-0.004046598138748229,0.008360447670487684,-0.11832822533873805
