x,y,v_x,v_y,omega
2.375,32.48,0.0,2.8205128205128203,-2.4897959183673475
2.3742929971192623,31.83925707365776,-0.006147851136850556,2.7511647998544766,-2.3223685238799137
2.3722825264592764,31.21412526806651,-0.011334502428243569,2.684763944417233,-2.171794458285892
2.3691731200210886,30.603949387966388,-0.015703814425563834,2.6211132738447054,-2.035879757364005
2.365138898169274,30.008117511423464,-0.019376375590216068,2.5600334787024557,-1.9127670442940845
2.360328448267784,29.42605715914859,-0.022453623553170772,2.501360888905151,-1.800877032578675
2.3548688470068138,28.857231897547873,-0.025021170020485338,2.4449457337097855,-1.6988613058405106
2.3488689903771047,28.30113831432817,-0.0271514963248118,2.3906506421137155,-1.6055639948449336
2.3424223611880026,27.757303316018135,-0.028906148797814158,2.338349343190932,-1.51999051683227
2.335609337604964,27.22528170513966,-0.03033753453295893,2.2879255340131968,-1.4412819525868434
2.3284991255579817,26.704654001489452,-0.03149039631036523,2.2392718890320893,-1.3686939481760931
2.3211513816784315,26.195024477442672,-0.0324030287291998,2.1922891896355874,-1.301579266474491
2.313617580636858,25.696019381649776,-0.03310828467578727,2.1468855563895795,-1.2393732969251687
2.3059421706088283,25.20728532917428,-0.033634411220123665,2.1029757694842983,-1.1815819740018485
2.2981635525062796,24.728487839172544,-0.03400574619334305,2.0604806653134062,-1.1277716654803263
2.290314912131768,24.259310003770032,-0.034243300541542905,2.019326599056284,-1.077560678318736
2.2824249291999026,23.79945127393642,-0.03436524669206753,1.9794449647142494,-1.0306120982237046
2.274518382959043,23.348626349979472,-0.03438732931540367,1.9407717653461605,-0.986627733024512
2.266616670731082,22.906564165823216,-0.03432321179730029,1.9032472273169394,-0.9453429729597674
2.2587382529070106,22.473006957556958,-0.03418476928158317,1.8668154532592154,-0.9065224153203051
2.250899035664679,22.047709407875452,-0.033982337173473674,1.8314241091886796,-0.8699561284448871
2.2431127008131893,21.630437859007692,-0.03372492240469883,1.7970241418353037,-0.8354564522647684
2.235390990636855,21.220969587577276,-0.03342038347646953,1.7635695227770156,-0.802855250550557
2.227743954347977,20.81909213557112,-0.0330755842529078,1.7310170164069731,-0.7720015445962626
2.220180161711744,20.424602692232753,-0.03269652562737621,1.699325969144028,-0.7427594699591933
2.2127068885383263,20.03730752225495,-0.032288458489299884,1.668458117619457,-0.7150065075938563
2.205330278014385,19.657021436135896,-0.031855980849320356,1.6383774138505878,-0.6886319486945839
2.1980554812428297,19.283567298993226,-0.03140312151203024,1.6090498656508938,-0.6635355591293921
2.19088677985456,18.916775574509124,-0.03093341229901039,1.5804433907325715,-0.6396264147726598
2.1838276931320815,18.556483901014186,-0.030449950505148125,1.552527683136469,-0.6168218835392292
2.176881071728301,18.202536697013826,-0.029955453005987384,1.525274090779684,-0.5950467336580639
2.1700491797630868,17.854784793723805,-0.02945230321326841,1.4986555030466084,-0.5742323508369622
2.1633462733212694,17.513085982608917,-0.02883383975905582,1.4726385066480747,-0.5513325118165842
2.1567849936596577,17.177303741840447,-0.028220765994090465,1.447207065251644,-0.5296083987021585
2.150363979110464,16.847306052443678,-0.02761414312933426,1.4223380599376745,-0.5089844265324339
2.1440816440009374,16.52296607723222,-0.027014857823069723,1.3980095505967547,-0.4893907883261959
2.137936216205727,16.20416189831254,-0.026423644743978847,1.3742007008786743,-0.47076294420600984
2.1319257698406595,15.890776271197335,-0.025841106256607026,1.3508917088187762,-0.4530411616404046
2.1260482537160095,15.582696394279086,-0.025267729609915236,1.3280637426442607,-0.4361701011085251
2.120301516085862,15.279813692524062,-0.024703901956582165,1.3056988813124752,-0.42009844218918074
2.1146833261600237,14.982023614344751,-0.02414992348549049,1.2837800593771804,-0.40477854568103094
2.109191392784404,14.689225440697314,-0.023606018911200566,1.262291015817923,-0.3901661478857897
2.1038233806435325,14.401322105530461,-0.023072347531164012,1.241216246502537,-0.3762200836431246
2.098576924293641,14.118220026784513,-0.02254901203310692,1.220540959983963,-0.36290203510398245
2.093449640295603,13.839828947204904,-0.022036066210703913,1.2002510363604537,-0.35017630357654433
2.0884391376830234,13.566061784293833,-0.021533521724768818,1.1803329889531946,-0.33800960208284647
2.0835430269713173,13.296834488777773,-0.02104135402920002,1.1607739285777736,-0.32637086653021313
2.078758927887937,13.032065911017632,-0.02055950756541158,1.141561530206048,-0.31523108363509955
2.0740844759816213,12.771677674833136,-0.02008790031559425,1.1226840018330513,-0.3045631339420601
2.0695173282490664,12.515594058253647,-0.0196264277935781,1.104130055379883,-0.29434164846106176
2.0650551679004687,12.263741880744966,-0.019174966542051617,1.0858888794782164,-0.28454287760544145
2.060695708370569,12.016050396495508,-0.018733377196210512,1.0679501139953316,-0.2751445712532093
2.056436696668871,11.77245119337643,-0.018301507166375894,1.0503038261705708,-0.2661258688784976
2.052275916151397,11.532878097218642,-0.01787919298557627,1.032940488244976,-0.25746719880979363
2.04821118878638,11.297267081075766,-0.017466262362394607,1.0158509564756941,-0.24915018576894277
2.044240376977646,11.06555617916596,-0.017062535974424083,0.9990264514356672,-0.2411575659313085
2.0403645633608654,10.837778216313197,-0.01664019112801514,0.9816514864144296,-0.24964799968623777
2.036583278584515,10.613981672622003,-0.016240546057640602,0.9644054152481257,-0.2605049840258667
2.0328912257524734,10.394137346302188,-0.015864261177502812,0.9472843788372254,-0.2736006312783586
2.0292829744849636,10.178216905050668,-0.015511836800844996,0.9302846755238049,-0.28881121721263847
2.0257529961775522,9.966192850704175,-0.015183626741863186,0.9134027535761355,-0.3060168856399238
2.0222956962558905,9.758038485557229,-0.014879850837804293,0.8966352042234018,-0.3251013650564393
2.0189054436651577,9.553727880222372,-0.014600606472914932,0.8799787552101368,-0.34595169614079085
2.0155765978151687,9.353235842916238,-0.014345879179162933,0.8634302648432131,-0.3684579689712894
2.0123035331855856,9.156537890060928,-0.014115552382430742,0.8469867165073203,-0.3925130688724077
2.0090806617805366,8.963610218095386,-0.013909416357122766,0.8306452136278234,-0.41801242983581177
2.005902453608087,8.774429676395968,-0.013727176446787998,0.8144029750627585,-0.4448537944902199
2.0027634553473166,8.588973741209273,-0.013568460603389544,0.7982573309085136,-0.4729369796158271
1.9996583073542074,8.407220490503548,-0.013432826293212314,0.7822057187064967,-0.5021636462132282
1.9965817591469872,8.229148579647603,-0.013319766813049833,0.7662456800408357,-0.532437073143633
1.9935286835020218,8.054737217828116,-0.013228717056214387,0.7503748575199211,-0.5636619333565721
1.990494089282693,7.8839661451175225,-0.013159058764036337,0.7345909921374273,-0.5957440717130251
1.9874731331159239,7.71681561010541,-0.0131101252948249,0.7188919210113678,-0.6285902833956767
1.9844611300240662,7.553266348006282,-0.013081205938721115,0.7032755755027874,-0.6621080918734232
1.9814535631137162,7.3932995591557855,-0.013071549803451836,0.6877399797189311,-0.6962055253538256
1.9784460924176637,7.236896887806051,-0.013080369292658971,0.6722832494091827,-0.7307908906143482
1.97543456298156,7.084040401128426,-0.013106843195198031,0.6569035912658094,-0.7657725430502274
1.97241501228305,6.93471256832861,-0.013150119400540776,0.6415993026456357,-0.801058651712865
1.9693836770679913,6.788896239775035,-0.013209317252143027,0.6263687717332731,-0.836556958036797
1.9663369996860538,6.6465746260359815,-0.013283529547313756,0.61121047817154,-0.8721745268644723
1.9632716340064116,6.50773127671437,-0.013371824188705686,0.5961229941903015,-0.9078174882751106
1.9601844509934756,6.372350058961288,-0.01347324548899832,0.5811049862712678,-0.9433907686054332
1.9570725440226802,6.240415135539848,-0.01358681512661511,0.5661552173934216,-0.9787978089146782
1.9539332340172884,6.11191094229974,-0.013711532746356376,0.5512725499118603,-1.0139402689924382
1.9507640744890804,5.986822164909686,-0.013846376194582104,0.5364559491321026,-1.0487177148339386
1.9475628565686958,5.865133714679455,-0.013990301373981072,0.5217044876525128,-1.0830272873117746
1.9443276141154242,5.7468307032850525,-0.014142241697944244,0.5070173505596802,-1.1167633495543783
1.941056629001471,5.631898416189493,-0.014301107119041624,0.4923938415756055,-1.1498171102983312
1.937748436672282,5.5203222845270545,-0.01446578269999277,0.47783339027169364,-1.1820762202132962
1.93440183209258,5.412087855190244,-0.014635126688719427,0.46333556048317964,-1.2134243379048686
1.9310158761974598,5.307180758825581,-0.014807968051456915,0.44890006007909106,-1.243740661983356
1.9275899029794679,5.205586675405712,-0.014983103409343812,0.434526752267609,-1.2728994252487598
1.9241235273562545,5.107291297000742,-0.015159293314250021,0.4202156686451765,-1.300769346690482
1.9206166539794203,5.012280287320053,-0.015335257788657039,0.4059670242303894,-1.3272130366455444
1.9170694871639,4.920539237536037,-0.015509671041951811,0.39178123476104726,-1.3520863501192355
1.9134825421390294,4.832053617832376,-0.015681155261271344,0.3776589365751272,-1.3752376829749944
1.9098566578477316,4.746808724040164,-0.015848273358710523,0.36360100944410223,-1.3965072054886265
1.9061930115496257,4.664789618634405,-0.016009520537862986,0.3496086027798952,-1.4157260276998163
1.9024931355178842,4.58598106525988,-0.01616331452075719,0.33568316569423334,-1.432715291177106
1.8987589361591857,4.51036745583832,-0.01630798425053569,0.32182648144975234,-1.4472851823829425
1.8949927159320876,4.4379327291777635,-0.01644175685466477,0.3080407069029225,-1.4592338639925646
1.8911971984928986,4.368660279860574,-0.016562742616543488,0.29432841759438716,-1.4683463225931228
1.887375557561344,4.302532856031117,-0.016668917657844794,0.28069265918350944,-1.474393134622072
1.8835314500734186,4.239532444542398,-0.016758103976288012,0.2671370059357757,-1.477129157866113
1.8796690542791867,4.179640141762846,-0.016827946408337298,0.2536656269298906,-1.4762921643208087
1.8757931135539794,4.122836008206434,-0.016875885984770193,0.2402833605171814,-1.4716014431631452
1.8719089868301693,4.06909890505996,-0.016899129004883752,0.22699579727825844,-1.4627564221667109
1.8680227067354975,4.018406310686643,-0.016894610948783823,0.21380937118537613,-1.449435385272226
1.8641410467620616,3.9707341153595515,-0.01685895403761506,0.20073145774584744,-1.4312944079114907
1.8602715991188234,3.92605639293906,-0.016788416773150794,0.18777047634537317,-1.407966696985404
1.8564228653914348,3.884345149138415,-0.01667883303023003,0.17493599148631747,-1.3790626192312188
1.8526043628321407,3.8455700477020685,-0.01652553705058819,0.16223880361233722,-1.3441708446901683
1.8488267501735807,3.8096981186783907,-0.01632326867602065,0.14969101398485762,-1.302861241725946
1.845101978546437,3.7766934576307953,-0.016066049820880182,0.13730603860292379,-1.254690464446809
1.8414434757929579,3.7465169319952025,-0.015747017600678398,0.12509853214135375,-1.1992116071643064
1.8378663769003647,3.7191259220538733,-0.01535819016099989,0.11308416300064147,-1.1359898991143231
1.834387820596291,3.694474140561965,-0.014890125526600023,0.10127915432029479,-1.0646271910695977
1.8310273442928409,3.6725115980900505,-0.01433140754687806,0.08969947587026574,-0.9847988810316186
1.8278074297173625,3.6531848101725473,-0.013667849631194473,0.07835954949933988,-0.8963076632009486
1.8247542848694134,3.6364373719312972,-0.01288123600314577,0.06727034825065728,-0.7991582914067188
1.8218990027922826,3.6222110383250907,-0.011947303797993062,0.05643690049896676,-0.6936546689564029
1.8192793291596767,3.6104474005388774,-0.010832466920316683,0.04585560198984935,-0.5805117416228963
1.8169424343132785,3.601090053715726,-0.009488357830973217,0.035512631254928935,-0.46095556667704857
1.8149494388216754,3.594086652284453,-0.007842037748185234,0.02538651162569324,-0.33675443917226877
1.8133834908427564,3.5893891305696464,-0.0057749011989355805,0.015461503285661614,-0.2100942321954542
1.812367805079499,3.5869471781377626,-0.0030571489163469796,0.005772865687227695,-0.08321397875293898
