x,y,v_x,v_y,omega
2.375,32.48,0.0,3.8974358974358974,-2.7346938775510203
2.374253996475169,31.749493121178766,-0.007852668682430437,3.7921101954191627,-2.5276020324347694
2.3721462083493163,31.038514693947064,-0.014334574747597117,3.691873249125049,-2.344243049588132
2.3689151639165065,30.3461338691998,-0.01967641928198246,3.5963459587409035,-2.1811325116302824
2.364759538512443,29.671488258967454,-0.02406700602394886,3.5051867805469583,-2.03538557319365
2.3598453262188843,29.01377724694702,-0.027661544434563784,3.4180870301944757,-1.9046005926080765
2.3543116038907623,28.37225612293391,-0.030588164282508844,3.3347669067856236,-1.7867677083175353
2.348275187785941,27.746230916867482,-0.03295305787350618,3.254972104439933,-1.6801965335688929
2.34183441389136,27.135053830761066,-0.03484456206945401,3.178470907206527,-1.5834586118397136
2.3350722209715964,26.53811918450407,-0.03633641603331816,3.1050516849724152,-1.495341347455374
2.328058675889877,25.954859805601245,-0.03749037430057015,3.034520724530993,-1.4148109152431696
2.3208530506151135,25.38474380421841,-0.03835831280220187,2.966700342656754,-1.3409822392647215
2.3135055371730058,24.827271684066464,-0.03898393395682696,2.9014272378900134,-1.2730945693803994
2.306058668899156,24.281973747146015,-0.039404153136332276,2.838551045483139,-1.2104915151487512
2.2985485024351378,23.748407756544623,-0.03965023069543438,2.777933066110478,-1.1526046476428742
2.2910056040292903,23.226156826596302,-0.03974869989243631,2.719445143871819,-1.0989399716092596
2.2834558751555334,22.714827513983984,-0.03972213035763394,2.662968673099945,-1.0490667178840727
2.2759212457133766,22.214048086950804,-0.039589758507176186,2.6083937167229845,-1.002608020037447
2.268420257717054,21.723466952811272,-0.03936800987516822,2.55561822158787,-0.9592331279100728
2.2609685581141314,21.24275122651798,-0.039070933313487946,2.504547318341505,-0.9186508800455001
2.253579315958391,20.771585425223634,-0.03871056306273223,2.4550926952832137,-0.8806042115058889
2.2462635764169683,20.309670275645573,-0.038297221583817535,2.407172037117407,-0.8448655165797507
2.239030561877181,19.856721622642908,-0.03783977357184119,2.360708520805371,-0.8112327200183949
2.231887928624936,19.41246942879689,-0.03734583960968162,2.3156303617843412,-0.7795259376331047
2.2248419861088276,18.976656855978405,-0.03682197634935757,2.2718704047260228,-0.7495846288494976
2.217897884614867,18.54903942092089,-0.036273828850226376,2.229365753774079,-0.721265161306032
2.2110597762035944,18.12938421771624,-0.03570625968948475,2.188057437853846,-0.6944387216958051
2.2043309529621595,17.71746920093551,-0.03512345864141025,2.147890107206434,-0.668989518481166
2.1977139659657436,17.31308252376192,-0.03452903605770126,2.1088117577787457,-0.6448132314034283
2.1912107277988646,16.91602192612417,-0.03392610254102676,2.0707734805133633,-0.6218156702920926
2.184822601036484,16.52609416834628,-0.03331733706297539,2.0337292329381085,-0.599911611885937
2.1785504747104234,16.143114506294673,-0.03270504531661446,1.9976356307630072,-0.5790237884783117
2.1723948304745875,15.766906204413534,-0.032091209797447846,1.9624517574594889,-0.5590820064023992
2.166355799921898,15.39730008340213,-0.031477532862443626,1.9281389900289803,-0.5400223758476556
2.1604332142875227,15.034134099609172,-0.030865473815190593,1.8946608393705786,-0.5217866363810133
2.1546266475897426,14.677252953504695,-0.030256280898282355,1.8619828038344575,-0.5043215649440446
2.148935454105543,14.326507724843669,-0.029651018935396654,1.83007223470264,-0.48757845509741865
2.1433588009479174,13.981755532361813,-0.029050593250134354,1.7988982124747757,-0.4715126579572385
2.137895696401879,13.642859216045874,-0.028455770392376522,1.768431432956155,-0.4560831766714371
2.1325450145829796,13.309687040201236,-0.02786719612235531,1.7386441022505672,-0.44125230746493493
2.127305516903023,12.982112415701337,-0.027285411035084105,1.7095098398536301,-0.42698532127772054
2.1221758707603424,12.660013639948417,-0.026710864151024284,1.68100358912448,-0.4132501808615343
2.117154665814645,12.343273653205365,-0.026143924751054037,1.6531015344865891,-0.40001728891395194
2.112240428157417,12.03177981007569,-0.025584892693450174,1.6257810247731546,-0.3872592634344135
2.1074316326469753,11.72542366501419,-0.025034007416462823,1.599020502189984,-0.37495073700247905
2.1027267136413035,11.424100770846241,-0.024491455801137447,1.572799436419997,-0.36306817711868533
2.09812407433097,11.127710489359629,-0.023957379044477027,1.547098263439095,-0.35158972512474934
2.093622094847891,10.836155813110793,-0.023431878672141408,1.5218983286539107,-0.34049505154243254
2.089219139302841,10.549343197657873,-0.022915021802070827,1.49718183400841,-0.32976522594741375
2.08491745757803,10.267182710303668,-0.02236583845909634,1.4729285591937324,-0.3182785910887358
2.080718841596323,9.989587555375344,-0.021830119243085883,1.4491257032096994,-0.30729646092492396
2.076620757439399,9.716473628129847,-0.021307608724537446,1.4257577414797398,-0.2967908725271206
2.0726207208713654,9.447759708908656,-0.02079803936002546,1.402809829269627,-0.2867357059219802
2.0687162993675776,9.183367337522895,-0.020301134364053626,1.3802677642646954,-0.2771065432836188
2.0649051136357226,8.923220694516775,-0.019816610181787826,1.3581179515891892,-0.26788054031977093
2.0611848387001026,8.6672464888629,-0.019344178614212334,1.3363473710831648,-0.2590363086742476
2.0575532046109024,8.415373851676524,-0.018883548640529338,1.3149435466681791,-0.2505538082930862
2.0540079968322553,8.167534235566556,-0.018434427976807718,1.2938945176472838,-0.24241424881255466
2.0505470563559975,7.923661319269275,-0.017996524404853047,1.273188811797791,-0.23459999912523755
2.04716827958195,7.683690917236419,-0.017569546900907815,1.2528154201270085,-0.2270945043673625
2.0438696180003135,7.447560893873032,-0.01715320659000544,1.232763773171789,-0.21988220964769464
2.040649077707154,7.215211082142133,-0.016747217548513976,1.2130237187324096,-0.21294848990691254
2.0375047187799633,6.986583206273245,-0.016351297474547423,1.1935855009400946,-0.20627958535742072
2.0344346545367546,6.761620808330214,-0.015965168243435756,1.174439740565504,-0.19986254200794348
2.031437050699117,6.540269178410625,-0.01558855636327889,1.1555774164827988,-0.1936851568257677
2.0285101244769517,6.322475288264755,-0.015221193343722133,1.13698984821056,-0.1877359271328469
2.025652143590301,6.108187728136347,-0.01486281598944387,1.1186686794569038,-0.18200400387073448
2.0228614252416053,5.89735664664078,-0.014513166628408562,1.1006058626016944,-0.17647914840401727
2.0201363350499566,5.689933693508504,-0.014171993283682198,1.08279364405383,-0.17115169256301893
2.0174752859573384,5.485871965032899,-0.013839049796509274,1.0652245504262319,-0.16601250165445006
2.014876737115468,5.285125952072242,-0.013514095907389804,1.0478913754754182,-0.16105294019374705
2.0123391927606655,5.087651490465213,-0.013196897301054031,1.0307871677564584,-0.1562648401353818
2.0098612010831185,4.8934057137283204,-0.012887225620496072,1.0139052189476865,-0.15164047139771056
2.007441353095986,4.702347007912021,-0.012584858454582362,0.997239052802844,-0.14717251449721097
2.0050808321836793,4.514629741566221,-0.012262730096013568,0.9787321718897897,-0.18340647045338718
2.0027780246231277,4.330418735488081,-0.011977349488741514,0.9603310499853629,-0.22097413496799756
2.0005260382946126,4.149694154462949,-0.01172776975878718,0.9420329608055017,-0.25977507736858296
1.9983181648262853,3.97243667151438,-0.011513003592025048,0.9238352807583983,-0.29971060943901107
1.996147886846801,3.7986274486908407,-0.011332027770968185,0.9057354858051576,-0.3406835698484853
1.9940088844164636,3.628248118416277,-0.011183787285214724,0.8877311486639218,-0.38259811082883616
1.991895040715311,3.461280765339602,-0.011067199042705518,0.8698199363536929,-0.4253594861966372
1.9898004470616846,3.297707908618726,-0.010981155205994948,0.8519996080765742,-0.46887383980120556
1.9877194073305002,3.1375124845746747,-0.010924526174892495,0.8342680134397502,-0.5130479934566623
1.9856464418366493,2.980677829650876,-0.010896163234066154,0.8166230910212794,-0.5577892333855033
1.983576290745672,2.8271876636116176,-0.01089490088148426,0.7990628672867085,-0.6030050941620171
1.981503917071097,2.677026072912046,-0.010919558850883153,0.7815854558666955,-0.6486031390957352
1.9794245093155811,2.530177494169827,-0.010968943838756691,0.7641890572092873,-0.6944907359371643
1.9773334838112535,2.386626697665637,-0.01104185094364088,0.746871958624304,-0.7405748267194325
1.9752264868134528,2.2463587707958865,-0.011137064822681718,0.7296325347415005,-0.7867616904692025
1.9730993964013765,2.109359101396599,-0.01125336056759352,0.7124692484088835,-0.8329566974270894
1.9709483242390406,1.975613360851785,-0.011389504299102128,0.6953806520628526,-0.8790640533106132
1.9687696172504265,1.845107486893074,-0.01154425347578298,0.6783653896078037,-0.9249865320299447
1.9665598592637958,1.7178276659896206,-0.01171635690980392,0.6614221988496138,-0.9706251951268023
1.9643158726819145,1.5937603152180664,-0.011904554478418474,0.6445499145351485,-1.015879096048076
1.962034720237438,1.4728920634916456,-0.012107576516072277,0.6277474720587655,-1.0606449671862386
1.959713706895987,1.355209732014906,-0.012324142867622618,0.6110139119069233,-1.1048168874163964
1.9573503819736187,1.2407003138159993,-0.012552961578359396,0.5943483849236572,-1.1482859276329305
1.9549425415405126,1.1293509521914054,-0.01279272719117733,0.5777501584931161,-1.1909397715351793
1.9524882311888978,1.0211489178782287,-0.013042118615295249,0.5612186237508645,-1.23266230862977
1.9499857492506412,0.9160815847463084,-0.013299796524247887,0.5447533039535737,-1.2733331961057666
1.9474336505586671,0.814136403775759,-0.013564400233373143,0.5283538641574577,-1.3128273858972521
1.9448307508566343,0.7153008750547194,-0.013834543998551082,0.5120201223797858,-1.351014612877132
1.942176131973277,0.6195625174963162,-0.014108812668367113,0.49575206244551623,-1.3877588397286327
1.9394691478917379,0.5269088359324492,-0.014385756610993613,0.4795498487530837,-1.422917653623203
1.9367094318603466,0.4373272851940371,-0.014663885824704648,0.4634138432302038,-1.4563416094059818
1.9338969047099526,0.35080523073185077,-0.01494166312681212,0.447344624792795,-1.487873513570467
1.9310317845644391,0.2673299052680491,-0.01521749629964429,0.4313430116682866,-1.5173476429207702
1.928114598155879,0.186888360894649,-0.015489729053619105,0.41541008699905707,-1.5445888915164772
1.925146193984411,0.10946741595049048,-0.0157566306460431,0.39954722820263033,-1.5694118393379872
1.9221277575959432,0.03505359591118662,-0.016016383969408347,0.38375614063211994,-1.5916197361987237
1.9190608292889304,-0.036366932583298706,-0.01626707189388513,0.36803889615193436,-1.6110033949129925
1.915947324605649,-0.1048084355628589,-0.01650666161433777,0.3523979773171213,-1.6273399888242153
1.9127895580147443,-0.17028569455987963,-0.0167329867109756,0.33683632791469115,-1.6403917508325723
1.9095902702518746,-0.2328140997266317,-0.016943726582391738,0.3213574106826814,-1.6499045745135488
1.9063526598561087,-0.2924097546814579,-0.017136382846721237,0.3059652730522997,-1.6556065234979933
1.9030804195242526,-0.3490895946862693,-0.01730825222544995,0.29066462173520236,-1.6572062640372784
1.8997777780077971,-0.4028715199029733,-0.017456395316186712,0.27546090686165353,-1.6543914491534288
1.896449548404207,-0.4537745455845368,-0.01757760051107601,0.26036041610217875,-1.6468271032687782
1.8931011838558978,-0.501818971088376,-0.01766834210270481,0.24537037867509837,-1.6341540871250257
1.8897388418826717,-0.5470265694913792,-0.01772473129967498,0.23049907819863819,-1.6159877691791882
1.886369458862847,-0.5894207992362652,-0.0177424583826907,0.2157559717475558,-1.5919170989593234
1.8830008365881856,-0.6290270384881467,-0.017716723455850816,0.2011518098511684,-1.561504381042743
1.8796417434204542,-0.6658728414808621,-0.017642151993952474,0.18669874796691252,-1.5242862013469753
1.8763020334951355,-0.6999882137074707,-0.017512689325193502,0.17241043336583564,-1.4797761830872365
1.872992788857509,-0.7314058987935965,-0.017321464755083196,0.15830204122497493,-1.4274705794414027
1.8697264917304381,-0.7601616634708037,-0.017060610266716892,0.14439021853513792,-1.3668581840218348
1.8665172379014856,-0.7862945571225382,-0.01672100898541274,0.1306928725357756,-1.2974367031720548
1.8633810084966784,-0.8098471075329527,-0.016291932117820786,0.11722871073172134,-1.2187386151563016
1.860336027889951,-0.8308653934279064,-0.015760495321417958,0.1040164039520155,-1.1303705991530277
1.8574032530204048,-0.8493989070070143,-0.015110819094858204,0.09107321267017726,-1.0320716034343345
1.8546070685997513,-0.8655000897074245,-0.014322701122543588,0.07841292101832523,-0.923794786100288
1.8519763112031342,-0.8792234058288741,-0.013369481999743514,0.06604303815482704,-0.8058161043202681
1.8495458264263,-0.8906238472931278,-0.01221456828272148,0.053961608837292986,-0.6788637038872868
1.847358906580652,-0.899754914981699,-0.010805640618838163,0.04215489314766137,-0.5442422753322819
1.8454712533089976,-0.9066665372961751,-0.00906439381962973,0.030599025952099103,-0.40389221647251516
1.8439579390203416,-0.911404330511445,-0.006865230271484968,0.019272481577058593,-0.2602852044646804
1.8429282422984854,-0.9140140989103855,-0.003973682590159688,0.008198764727597254,-0.11604993817725229
