x,y,v_x,v_y,omega
2.375,32.48,0.0,2.1538461538461537,-6.163265306122449
2.3740859636706064,32.05333340858599,-0.00914036329393469,2.112819760293896,-5.871951600959758
2.3714471436766433,31.63474821593505,-0.017247836645698674,2.073032166215518,-5.600466295106216
2.3672792185583784,31.224003404380294,-0.02443141453694863,2.034415949332035,-5.34699500955215
2.3617573379751904,30.820870894662825,-0.030787391294934054,1.996909147842674,-5.109925498583874
2.355038494320062,30.425134515724054,-0.03640104525634821,1.960454641545037,-4.887821279097994
2.3472635831088566,30.036589089285766,-0.041348066855704996,1.9249996228378377,-4.679399222145473
2.3385591988949583,29.655039612793423,-0.04569577528327646,1.8904951420855736,-4.483510428606089
2.329039205416595,29.280300527099236,-0.04950415950035755,1.8568957148563094,-4.29912384169649
2.318806112215177,28.912195057521163,-0.05282677251382222,1.8241589809244028,-4.125312151712082
2.307952284722426,28.550554618747636,-0.05571150241368958,1.7922454068108757,-3.961239629636663
2.29656101053989,28.195218275553664,-0.05820123941167183,1.7611180251288359,-3.806151590960838
2.2847074411264727,27.8460322525212,-0.06033445472249846,1.7307422051958063,-3.659365242932882
2.2724594252135457,27.502849486968174,-0.0621457044067737,1.7010854503344572,-3.5202617103232994
2.2598782478632455,27.165529220128914,-0.06366606909622695,1.6721172180581503,-3.3882790687505477
2.247019287079919,26.83393662232644,-0.06492353873703818,1.64380875996659,-3.2629062423290525
2.233932598203375,26.507942448460817,-0.06594335002840016,1.6161329786896481,-3.1436776451292285
2.220663434897012,26.187422720628103,-0.06674828303523224,1.5890642996374822,-3.030168464670002
2.207252714347047,25.87225843509828,-0.06735892246441832,1.5625785556607081,-2.921990501171111
2.1937374332733293,25.56233529123121,-0.06779388827275817,1.536652883010015,-2.81878848918562
2.18015104048703,25.257543440208043,-0.06807003959023318,1.5112656272216698,-2.7202368389968092
2.166523770991105,24.957777251710585,-0.06820265536901746,1.4863962577528969,-2.6260367441842583
2.152897010746239,24.66294287383719,-0.06806494707964457,1.4619475209810724,-2.5314798415757274
2.1393069981124264,24.372949901560503,-0.0678351792584775,1.437982201785776,-2.4412690724735704
2.1257711797690577,24.087703425037738,-0.06752300417520966,1.4144825634418936,-2.35515255521063
2.112305162243182,23.807111996455625,-0.06713717108354662,1.3914317223792096,-2.2728958105609975
2.098922883819274,23.531087464713625,-0.06668561315553266,1.3688135950408036,-2.194280363327728
2.085636769956701,23.259544820326838,-0.06617552547019667,1.3466128488270686,-2.119102472011238
2.072457873904428,22.992402049769495,-0.06561343505253966,1.3248148567463642,-2.047171973366736
2.059396004015353,22.729579998551387,-0.06500526383820648,1.3034056554346853,-1.9783112301717396
2.0464598390980853,22.47100224238363,-0.06435638533447174,1.282371906242897,-1.912354171845753
2.033657032998927,22.216594965847158,-0.06367167565711315,1.261700859121816,-1.8491454187202105
2.020994309478876,21.96628684802865,-0.06295555954339792,1.2413803190632904,-1.7885394817704003
2.008477548337323,21.720008954634316,-0.062212051872128,1.2213986148800053,-1.7304000305115808
1.9961118636340016,21.477694636133474,-0.0614447951610862,1.2017445701284275,-1.6745992225452129
1.9839016747719813,21.23927943152078,-0.06065709345911574,1.1824074759985064,-1.6210170889322426
1.9718507711257254,21.004700977319853,-0.059851943003445054,1.163377066010778,-1.569540970180637
1.959962370828193,20.77389892148111,-0.05903205997187748,1.1446434923766533,-1.5200649981742667
1.9482391742686687,20.546814841854328,-0.05819990562336632,1.1261973038911555,-1.472489619848588
1.9366834127974664,20.32339216894127,-0.05735770908865816,1.1080294252394003,-1.426721158843099
1.9252968930841436,20.103576112656445,-0.05650748804456776,1.0901311376088676,-1.3826714117378176
1.914081037531629,19.88731359284464,-0.055651067480578416,1.0724940605091473,-1.3402572758168345
1.9030369211091274,19.674553173322778,-0.054790096744436974,1.055110134709489,-1.29940040560128
1.8921653049312954,19.465244999230606,-0.053926065033883475,1.037971606212251,-1.260026895661152
1.8814666668794753,19.259340737490646,-0.053060315484316674,1.0210710111873456,-1.2220669874541665
1.8709412295323653,19.056793520192002,-0.05219405798678561,1.0044011617990791,-1.1854547981533923
1.8605889856479885,18.857557890725847,-0.0513283808569831,0.9879551328624925,-1.1501280696168001
1.8504167648946686,18.661788439755366,-0.050393826676216336,0.9697393768423213,-1.1550385233799596
1.840428313992306,18.469649873358303,-0.04949068234740653,0.9516462871283037,-1.1621116450780082
1.8306173705864772,18.281118002636212,-0.04861875171088093,0.9336724200926135,-1.1712157288262506
1.8209777220489254,18.096169312776635,-0.04777773366463829,0.9158144785031719,-1.1822224543005635
1.8115032255727517,17.914780934344776,-0.04696723109709895,0.8980693058154272,-1.1950065945383364
1.8021878265523434,17.73693061566582,-0.046186759106982174,0.8804338809740956,-1.2094457323531804
1.793025575385677,17.56259669619772,-0.04543575255968228,0.8629053137069296,-1.225419984180732
1.7840106428271763,17.391758080797445,-0.04471357302532713,0.845480840295827,-1.242811730202495
1.7751373340106662,17.22439421478648,-0.044019515139773494,0.8281578198137974,-1.2615053496162
1.7664001012540793,17.06048505972315,-0.04335281242609381,0.8109337308195222,-1.2813869599347214
1.7577935557504092,16.900011069790747,-0.04271264261060736,0.7938061685044985,-1.302344159201232
1.7493124782429306,16.74295316871119,-0.042098132464178754,0.7767728422910923,-1.324265770005979
1.7409518287768806,16.58929272709375,-0.04150836219632067,0.759831573883282,-1.3470415841797219
1.7327067556145916,16.439011540127872,-0.0409423694265695,0.7429802957754905,-1.3705621070203597
1.724572603396472,16.29209180552745,-0.040399152754627285,0.7262170502287346,-1.3947182998823726
1.7165449206262238,16.148516101631834,-0.039877674947853985,0.7095399887274133,-1.419401319923166
1.7086194665552559,16.008267365565647,-0.03937686576182655,0.6929473719344654,-1.4445022557559517
1.7007922175383903,15.871328871355459,-0.038895624406827575,0.6764375701674259,-1.4699118577051158
1.6930593729306815,15.7376842078964,-0.038432821670260575,0.6600090644231553,-1.4955202612968106
1.6854173605934473,15.607317256655605,-0.037987301702081804,0.6436604479847999,-1.5212167025444858
1.677862842076503,15.480212168992033,-0.037557883467360505,0.627390428650936,-1.5468892235060565
1.6703927175430673,15.35635334296354,-0.037143361866997966,0.6111978316339678,-1.5724243664963111
1.6630041305039258,15.235725399481865,-0.03674250852441623,0.5950816031827844,-1.5977068552351668
1.655694472428221,15.118313157664232,-0.03635407223263158,0.5790408149935522,-1.6226192610999648
1.6484613872997063,15.00410160921663,-0.03597677905251388,0.563074669482464,-1.6470416525291536
1.6413027761895398,14.893075891667841,-0.03560933204915337,0.5471825060054015,-1.6708512254971584
1.6342168019197185,14.785221260255106,-0.035250410649058324,0.5313638081219529,-1.6939219128487117
1.62720189389518,14.680523058241391,-0.034898669596328535,0.515618212015187,-1.7161239701496414
1.620256753187455,14.578966685420458,-0.03455273748091899,0.4999455161941638,-1.7373235355863181
1.6133803579587092,14.480537564538697,-0.034211214806540546,0.4843456926234593,-1.757382161336785
1.6065719693221014,14.385221105332043,-0.03387267155953541,0.4688188994430669,-1.7761563137561271
1.5998311377428394,14.293002665841446,-0.03353564423308689,0.453365495462897,-1.7934968396855495
1.5931577100942096,14.203867510631298,-0.033198632253210694,0.4379860566385837,-1.8092483962353039
1.586551837494497,14.11780076549153,-0.03286009374391611,0.42268139475908606,-1.8232488415431203
1.5800139840642617,14.034787368155524,-0.03251844055843409,0.4074525786009765,-1.8353285843241909
1.5735449367593088,13.954812014512605,-0.032172032491094675,0.3923009578282189,-1.845309890578781
1.5671458164532241,13.877859099736003,-0.0318191705697521,0.3772281899378074,-1.853006146710898
1.5608180904651667,13.803912653685426,-0.03145808931082256,0.3622362705679679,-1.858221079678224
1.554563586754396,13.732956269879406,-0.031086947796883445,0.347327567492255,-1.8607479368382052
1.548384510033836,13.664973027268875,-0.030703819408717147,0.3325048586130439,-1.86036863115531
1.5422834600922468,13.599945403984421,-0.03030668000717633,0.3177713742314967,-1.8568528617782054
1.5362634526603742,13.537855182181968,-0.029893394311549613,0.30313084379302235,-1.8499572262263204
1.5303279432137686,13.478683343086129,-0.029461700154507844,0.28858754716538293,-1.8394243493037545
1.5244808541782713,13.422409951342747,-0.029009190200465832,0.2741463702684288,-1.8249820664495897
1.518726606100143,13.369014027866633,-0.028533290580815714,0.25981286449269164,-1.806342717025834
1.5130701534715538,13.318473410542321,-0.02803123570507587,0.24559330875042065,-1.7832026281116518
1.5075170260791433,13.27076460245734,-0.027500038219028043,0.23149477209937291,-1.7552419045895844
1.5020733769923782,13.22586260789453,-0.026936452648624105,0.21752517352872539,-1.72212469062124
1.4967460386662677,13.183740757190996,-0.02633693061248127,0.20369333350663177,-1.6835001363453983
1.491542589156808,13.144370522940026,-0.02569756448211652,0.1900090090030568,-1.6390043987991123
1.4864714312261704,13.107721332080672,-0.025014014824258114,0.17648289959048308,-1.5882641364626013
1.481541888286395,13.073760381471189,-0.024281414573496127,0.16312660650435792,-1.530902132585158
1.476764322909566,13.04245246893582,-0.023494239194793213,0.14995251884931418,-1.4665459130820409
1.4721502863496227,13.013759857918192,-0.02264612640464064,0.13697359132699222,-1.3948405140082198
1.4677127116803188,12.987642202134499,-0.021729620288398983,0.12420296650992796,-1.3154668872375046
1.4634661695137723,12.964056567072106,-0.020735801377065266,0.11165338411398461,-1.2281677535333544
1.4594272149453427,12.942957597058733,-0.019653744307230728,0.09933631601975988,-1.1327828699024134
1.45561486900883,12.924297887216632,-0.018469715057896612,0.0872607824012407,-1.0292953465128998
1.452051299949013,12.90802862222942,-0.01716597554027324,0.0754318674708752,-0.9178892061684666
1.4487628030273223,12.894100524658839,-0.01571899367663402,0.06384910823492364,-0.7990148208720985
1.4457812307678748,12.882465089534001,-0.014096728917839632,0.05250524301344635,-0.67345196761428
1.4431461219711237,12.873075928911092,-0.01225435904967182,0.04138636321563452,-0.5423495332596973
1.4409079964782645,12.865889746824344,-0.010126895878920272,0.030475457651847265,-0.4072088060010205
1.4391339267855912,12.860865862960576,-0.007613801047813413,0.01976338098584527,-0.2697713817680053
1.4379190205145702,12.857961560549807,-0.004535261662395885,0.009279643121843028,-0.13178373588841683
1.437423916753129,12.857110722226903,-0.0004157759520153157,-0.0007712598928029443,0.005278890981244538
