x,y,v_x,v_y,omega
2.375,32.48,0.0,2.6153846153846154,-5.428571428571429
2.37396943884731,31.962460333644938,-0.010305611526903511,2.5600120481659627,-5.127312815382987
2.37101151804197,31.45579859650039,-0.01927359652649109,2.506605323279512,-4.8506994139434765
2.366377282824516,30.959633396143946,-0.027068755648047144,2.455046680284932,-4.596077260655267
2.360287036751375,30.473605875077663,-0.0338337050833661,2.405228530377925,-4.361134489182233
2.352934445304729,29.99737779770652,-0.039692209383096325,2.357052243333497,-4.1438504993818315
2.344490029047492,29.53062986114306,-0.044751953189274274,2.3104271223011197,-3.942453681696553
2.335104147942551,29.073060195798373,-0.04910685786013364,2.2652695311457376,-3.755386082327631
2.3249095595030855,28.624383028019263,-0.052839026534521445,2.22150214664534,-3.581273733658167
2.314023618445001,28.18432748198924,-0.056020384046320544,2.179053313654892,-3.4189016348461587
2.302550173552848,27.752636502044034,-0.05871406487521106,2.1378564857971503,-3.267192569273275
2.2905812078631285,27.329065879696,-0.060975592021986436,2.0978497376832004,-3.125189103096054
2.2781982604999746,26.91338337219291,-0.06285388160954956,2.0589753373477118,-2.9920382331042963
2.265473662177939,26.505367901489258,-0.06439210161080425,2.0211793696887828,-2.8669782502865413
2.252471611216466,26.104808824183827,-0.06562840800392887,1.984411403365532,-2.749327463787643
2.239249112659707,25.711505264354297,-0.0665965775636604,1.9486241949297836,-2.638474492727338
2.2258567995838483,25.325265502358555,-0.06732655319492592,1.9137734250276508,-2.5338698839803016
2.2123396527608272,24.94590641361974,-0.06784491503528839,1.879817462360506,-2.435018855061242
2.1987376324206225,24.573252952205,-0.06817528836675645,1.8467171517868806,-2.3414749946903606
2.1850862338253436,24.207137674675188,-0.06833869758603218,1.8144356235112253,-2.2528347809703018
2.1714169766659817,23.84740030024723,-0.06835387400758852,1.78293812076836,-2.168732799585585
2.157757836859715,23.49388730379097,-0.06823752405507814,1.7521918437942323,-2.0888375629828912
2.1441336281156818,23.14645153859253,-0.0680045633852519,1.7221658081901916,-2.0128478468516975
2.1305663396125114,22.804951886168325,-0.06766832164645127,1.6928307160518588,-1.940489472992769
2.11707543526085,22.469252930717666,-0.06724072187016501,1.6641588384547432,-1.8715124783109462
2.1036781192833884,22.139224656064705,-0.0667324379044517,1.6361239080748342,-1.8056886185790653
2.090389572212712,21.814742163169242,-0.06615303280231345,1.608701020879771,-1.742809163098623
2.0772231608664598,21.49568540648528,-0.06551108066020757,1.5818665459598789,-1.6826829426785106
2.064190625395575,21.18193894762105,-0.06481427404863963,1.555598042682417,-1.6251346186679043
2.0513022461029684,20.873391724907798,-0.06406951887742687,1.5298741844500852,-1.57000314527823
2.038566992386834,20.569936837619903,-0.06328301828391573,1.5046746884288749,-1.517140401247127
2.0259926558668524,20.271471343708725,-0.06246034691589904,1.479980250682892,-1.4664099701457007
2.013598618237159,19.977900064007972,-0.061480029381039185,1.4557325463246482,-1.4138783453379538
2.001401625312127,19.68913118147505,-0.06048989986927839,1.431956279004556,-1.3637407496441227
1.9894033333853145,19.40507209421815,-0.05949301939884663,1.4086345935644604,-1.3158597397919758
1.9776048218577087,19.125633493854192,-0.05849209587721122,1.3857514100751251,-1.2701072600800023
1.966006660127753,18.850729214980046,-0.0574895214223458,1.3632913786663385,-1.2263638990451728
1.9546089674210445,18.580276093361338,-0.056487405644737934,1.3412398375207413,-1.1845182128839646
1.9434114663215032,18.314193832232213,-0.05548760535067577,1.319582773770504,-1.1444661089327173
1.9324135306792807,18.052404876149076,-0.05449175107154939,1.2983067870608442,-1.10611028325398
1.9216142284945956,17.79483429188634,-0.053501270775300494,1.277399055566538,-1.069359707026544
1.9110123603096894,17.54140965590295,-0.0525174110737636,1.2568473042673618,-1.0341291570100817
1.900606493582051,17.2920609479456,-0.05154125620261894,1.2366397753061071,-1.0003387858608188
1.8903949934599593,17.046720450388122,-0.050573745018298095,1.2167652002686715,-0.9679137285211213
1.8803760503353466,16.80532265293726,-0.04961568622782891,1.1972127742399714,-0.936783741300787
1.8705477045082892,16.56780416236304,-0.04866777204274526,1.1779721315022231,-0.906882870617614
1.8609078682613784,16.33410361693745,-0.047730590426361796,1.1590333227536733,-0.8781491486750956
1.8514543456102892,16.104161605288457,-0.046804636084531545,1.1403867937362526,-0.850524313630681
1.8421848499685236,15.877920589397828,-0.04589032033312439,1.1220233651700253,-0.8239535520531567
1.8330970199391516,15.655324831490745,-0.04498797996059514,1.1039342139007982,-0.7983852616859932
1.8241884334240024,15.436320324583171,-0.04409788519089631,1.0861108551749488,-0.7737708327281521
1.8154566202208715,15.220854726469426,-0.043220246840413624,1.0685451259625116,-0.7500644460176239
1.806899073261593,15.008877296947585,-0.042355222752371524,1.0512291692558933,-0.7272228866583113
1.7985132586280455,14.800338838094259,-0.04150292358310457,1.0341554192773537,-0.705205371769883
1.7902966244690774,14.595191637413162,-0.040663418006576274,1.0173165875336312,-0.6839733911647802
1.7822466089287774,14.393389413693711,-0.03983673739642278,1.0007056496608704,-0.6634905598682753
1.7743606471852855,14.194887265426889,-0.03902288003849617,0.9843158330073674,-0.6437224814978046
1.7666429559611687,13.999829754275662,-0.03815403220267208,0.9662592785048993,-0.6621170128807727
1.7590948907108628,13.808372114181854,-0.03732662030038753,0.948317122433186,-0.6823239923921124
1.751708249446009,13.620491777368951,-0.03653979234815157,0.9304862456958561,-0.7042265100535726
1.7444750067217125,13.43616678725008,-0.0357926348948116,0.9127636554928655,-0.727710416141634
1.737387325299253,13.255375773637113,-0.035084179329783916,0.8951464806368256,-0.7526640630145107
1.7304375666023168,13.078097928843086,-0.03441340763957801,0.8776319673034423,-0.7789780533446432
1.7236183000732512,12.904312984592433,-0.03377925765107931,0.8602174752030978,-0.8065449937022087
1.7169223115284882,12.734001189655778,-0.033180627796550365,0.8429004741634497,-0.8352592524501624
1.7103426106056334,12.567143288127856,-0.032616381431997125,0.8256785411157782,-0.8650167209187322
1.703872437388694,12.403720498268207,-0.03208535073739815,0.8085493574807138,-0.8957145768270726
1.6975052682925256,12.243714491824939,-0.03158634022428557,0.7915107069519609,-0.9272510489117868
1.69123482128277,12.087107373761768,-0.031118129873271356,0.7745604736797392,-0.959525181706032
1.685055060503312,11.9338816623079,-0.03067947792130724,0.7576966408589287,-0.9924365993886336
1.678960200379609,11.78402026924897,-0.0302691233157256,0.7409172897303791,-1.0258852675896697
1.6729447092630956,11.637506480375173,-0.029885787849407656,0.7242205990075757,-1.0597712519968858
1.667003312679281,11.494323935999926,-0.02952817798873749,0.7076048447449026,-1.0939944725555324
1.661130996240077,11.35445661145862,-0.02919498640329991,0.6910684006681643,-1.128454451992162
1.6553230082793933,11.217888797492513,-0.028884893203537956,0.6746097389929114,-1.1630500573199052
1.6495748622700623,11.08460508041707,-0.028596566889772718,0.6582274317615178,-1.1976792328980197
1.6438823390797779,10.95459032196732,-0.028328665013071536,0.6419201527359971,-1.2322387235212828
1.638241489123931,10.827829638704689,-0.028079834545396355,0.6256866798903135,-1.266623785904296
1.632648634474068,10.7043083808603,-0.027848711953233858,0.6095258985535574,-1.3007278868011898
1.6271003709821985,10.584012110478547,-0.0276339229654621,0.5934368052639739,-1.3344423858618997
1.6215935704834026,10.466926578711792,-0.02743408202249808,0.5774185124035762,-1.3676562011715925
1.616125383142178,10.353037702102018,-0.027247791389746742,0.5614702536941579,-1.4002554552497763
1.6106932400118057,10.242331537667791,-0.02707363991397637,0.5455913906480981,-1.4321230991003995
1.6052948558807667,10.134794256594812,-0.02691020139641369,0.5297814200816732,-1.463138511704879
1.5999282324860242,10.030412116305158,-0.026756032551010736,0.5140399828148688,-1.4931770721386755
1.5945916621798832,9.929171430653653,-0.026609670510399377,0.49836687370018234,-1.522109701272587
1.5892837321453013,9.831058537969248,-0.02646962983542024,0.4827620531438695,-1.5498023697986087
1.5840033292640918,9.736059766624184,-0.026334398976674025,0.46722566030677803,-1.5761155691067412
1.578749645753609,9.644161397773654,-0.02620243612815557,0.45175802819852745,-1.6009037413482172
1.573522185700441,9.555349624862952,-0.026072164403523918,0.43635970090849413,-1.6240146648740528
1.5683207726346162,9.469610509447119,-0.025941966254721158,0.4210314532498444,-1.6452887911675074
1.563145558305124,9.386929932809284,-0.02581017704020426,0.4057743131285038,-1.664558529441216
1.55799703283754,9.307293542797748,-0.02567507763563342,0.3905895869868553,-1.6816474753110893
1.5528760364776795,9.23068669522797,-0.025534885962972365,0.37547888871090856,-1.6963695804852768
1.5477837731519914,9.157094389114128,-0.02538774729390646,0.36044417242752047,-1.7085282613546438
1.5427218261066733,9.08650119490624,-0.025231723159275334,0.3454877696513462,-1.7179154459374175
1.5376921759241078,9.018891174814737,-0.025064778666380183,0.3306124312637055,-1.7243105610954077
1.532697221258634,8.954247794207546,-0.024884767988357506,0.3158213748082009,-1.727479465703767
1.5277398026857036,8.892553822971092,-0.0246894177409467,0.30111833755634676,-1.727173341095179
1.5228232301219378,8.8337912256446,-0.024476307896711146,0.28650763570857896,-1.7231275584359116
1.517951314352572,8.77794103908192,-0.02424284979694776,0.27199422991821737,-1.7150605549059528
1.513128403303452,8.724983236389349,-0.02398626069425222,0.257583797007512,-1.7026727683416152
1.50835942382668,8.674896575967622,-0.023703534073467904,0.2432828072097537,-1.6856457057829717
1.5036499299470703,8.627658434706003,-0.023391404722627827,0.22909860540643087,-1.6636412586186797
1.4990061587642607,8.583244624818665,-0.023046307105469326,0.2150394934669354,-1.6363014306694073
1.4944350955599757,8.541629194602141,-0.022664324937381075,0.20111480869830195,-1.6032487225457683
1.4899445501814226,8.502784214709372,-0.02224112884814901,0.1873349902293906,-1.5640875255830535
1.485543247556408,8.466679553645115,-0.021771897401997854,0.17371162041319274,-1.5184070345513572
1.4812409363989119,8.433282649462374,-0.021251214172964814,0.1602574214142017,-1.4657864067305753
1.4770485220362595,8.40255828958777,-0.02067292945355928,0.1469861773318557,-1.4058031949299548
1.4729782322339489,8.374468417969535,-0.02002996856954424,0.1339125388504971,-1.3380464806154995
1.469043829555723,8.348971999038447,-0.01931405821271405,0.12105165046036641,-1.2621366322280902
1.4652608911913791,8.326024981831477,-0.018515325430726877,0.10841852160932866,-1.1777541679012367
1.4616471888924119,8.305580424744385,-0.01762169755894508,0.09602704926158838,-1.0846806506171207
1.458223220088715,8.287588859113466,-0.016617990478021556,0.08388860704761347,-0.9828544782286858
1.4550129701058543,8.271998980192937,-0.015484509350587223,0.07201018215766451,-0.8724429726204539
1.452045030689141,8.25875873846265,-0.01419488481654432,0.06039223514519366,-0.7539277237877948
1.4493542739270513,8.24781682564219,-0.012712682804355046,0.04902689305941876,-0.6281904548147499
1.4469844168741657,8.239124344632813,-0.010985887724499665,0.03789791703436016,-0.49657020117516615
1.4449921305832314,8.232636016383701,-0.008936975184844593,0.026985365456750825,-0.36084248417842724
1.4434543531474455,8.228309354581413,-0.006440799173013968,0.01628125256612547,-0.2230601107944527
1.4424849748394855,8.226097368004123,-0.003252983906586069,0.005838613206761843,-0.08521413574838213
