x,y,v_x,v_y,omega
2.375,32.48,0.0,2.1538461538461537,-5.673469387755102
2.3740572258727357,32.03209639024163,-0.00897880121204194,2.111902510519257,-5.394804764654635
2.371338817479252,31.592862665485153,-0.01691080253542203,2.0712758204947894,-5.135992202587366
2.3670525728328875,31.162029943119563,-0.023910575049001227,2.031892963939404,-4.895142008859967
2.361383679488048,30.739344065837777,-0.030078885378038767,1.993686819696664,-4.6705823965552025
2.3544974158470953,30.32456441411972,-0.03550457786913074,1.956595577618144,-4.4608301899488385
2.3465414879138096,29.917462852467835,-0.04026616435263777,1.9205621523998255,-4.264566045279863
2.3376480574593326,29.517822789959204,-0.04443317330904847,1.8855336810156917,-4.0806133972541225
2.3279355077789514,29.125438339062892,-0.04806729983743808,1.8514610894254036,-3.9079204968552754
2.3175099853717187,28.74011355938526,-0.051223389755256685,1.8182987170282139,-3.745545027306224
2.306466749537739,28.361661775196755,-0.05395028485407226,1.786003989529003,-3.5926408805215795
2.294891356734327,27.98990495737167,-0.056291551368897096,1.754537132614637,-3.4484467521411104
2.282860702314214,27.624673161824568,-0.05828610977503993,1.7238609202149342,-3.3122762737281386
2.270443938796238,27.265804017718704,-0.05996878087235016,1.6939404522218546,-3.183509449335645
2.257703286944066,26.913142259705932,-0.061370760576907504,1.6647429574235846,-3.0615852029508495
2.2446947535363857,26.566539299273515,-0.06252003378195334,1.6362376181232634,-2.9459948752871825
2.2314687677122325,26.22585283095403,-0.06344173597188763,1.6083954134908738,-2.8362765345116876
2.218070746095939,25.890946469724753,-0.06415846989757357,1.5811889791689024,-2.7320099869480825
2.2045415954904923,25.561689416402892,-0.06469058348762954,1.5545924810393053,-2.632812391496647
2.190918160729961,25.237956148249083,-0.06505641423172004,1.5285815013779138,-2.5383343961815052
2.177233624264071,24.919626132336376,-0.06527250449104136,1.5031329358859777,-2.44825672744299
2.1635178631809238,24.60658355953606,-0.06535379153893077,1.4782249003074999,-2.3622871729903516
2.1498184685997948,24.298724223934407,-0.06511663304325188,1.4537687720891694,-2.2750098865750332
2.1361775703571215,23.99594781376307,-0.06479668355363696,1.4298160866854857,-2.1918694985771285
2.1226115843190776,23.698150586496364,-0.06440318347534932,1.4063479825212417,-2.112619389172627
2.1091350803924134,23.405232663213795,-0.06394447296907442,1.3833465249318089,-2.0370304593822963
2.0957609621540603,23.11709784010102,-0.06342808168190645,1.3607946475707982,-1.9648896852744866
2.082500628637174,22.833653411777348,-0.06286080895510852,1.3386760983689638,-1.8959988079452976
2.0693641201590927,22.554810005538567,-0.06224879559804364,1.3169753896194092,-1.8301731449655294
2.056360249862117,22.280481425688397,-0.06159758818267668,1.2956777518107778,-1.76724051065922
2.0434967224498326,22.010584507206826,-0.060912196696224,1.2747690908708502,-1.7070402340377808
2.030780241436467,21.745038978070927,-0.060197146288212176,1.254235948518664,-1.6494222644873104
2.018216606081387,21.48376732960373,-0.059456523760165844,1.2340654654546224,-1.594246356420455
2.0058107990527736,21.226694694280702,-0.05869401936948805,1.2142453471456645,-1.5413813250801247
1.9935670657514928,20.973748730471776,-0.05791296445223147,1.1947638319869323,-1.4907043665391233
1.9814889861263503,20.724859513640645,-0.057116365311031085,1.175609661642921,-1.4421004356932077
1.9695795397235425,20.479959433562165,-0.05630693376332912,1.1567720533902066,-1.3954616767088788
1.957841164634873,20.23898309715461,-0.05548711470018964,1.1382406743008202,-1.3506869009729563
1.9462758109398564,20.001867236555373,-0.05465911096663566,1.1200056171204487,-1.3076811081087238
1.9348849891751776,19.768550622098267,-0.053824905839827505,1.1020573777091238,-1.266355046081764
1.923669814310149,19.53897397987678,-0.05298628335092127,1.0843868339241098,-1.2266248068249683
1.9126310456579976,19.313079913602017,-0.05214484666957016,1.0669852258354864,-1.188411454173015
1.901769123109331,19.09081283048596,-0.051302034746301885,1.0498441371746028,-1.151640681217447
1.8910842000353312,18.87211887090058,-0.05045913738702779,1.0329554779242733,-1.1162424944791431
1.8805761731735795,18.65694584158195,-0.04961730891537119,1.0163114679674103,-1.0821509225496981
1.8702447097784503,18.445243152165,-0.04877758056204848,0.9999046217178471,-1.0493037470806095
1.8600892722903117,18.236961754849958,-0.047940871705938845,0.983727733663475,-1.0176422542024595
1.8501163605431423,18.032218385476103,-0.04703924017186489,0.9662091175160888,-1.0180796079324603
1.8403297502252505,17.83114094034684,-0.04616657237948692,0.9488141694292632,-1.0208471143492535
1.8307233462263155,17.63370382448429,-0.045322989515129884,0.9315393149759968,-1.025813943548861
1.8212910407956895,17.43988217777965,-0.04450849077654827,0.9143811298300959,-1.032853083804109
1.8120267380908217,17.249651844153515,-0.04372296355552379,0.897336333275951,-1.0418410501724493
1.8029243766705987,17.062989342024842,-0.04296619282755256,0.880401782235241,-1.0526576036942845
1.7939779500941722,16.87987183598253,-0.042237869805082165,0.8635744657867498,-1.0651854800170453
1.7851815257744907,16.70027710955827,-0.0415375999061695,0.8468515001585845,-1.0793101263248448
1.7765292622252962,16.524183539003236,-0.04086491008615919,0.830230124175094,-1.0949194454903441
1.76801542483077,16.351570067974762,-0.04021925557599619,0.8137076951437145,-1.1119035463947629
1.7596344002582498,16.182416183041838,-0.03960002606705275,0.7972816851698638,-1.130154499383956
1.751380709626431,16.01670188992046,-0.039006551378839786,0.7809496778908834,-1.1495660958432667
1.743249020534174,15.854407690351508,-0.03843810664265833,0.7647093656229358,-1.1700336108815068
1.7352341580484292,15.69551455953474,-0.03789391703110166,0.748558546917713,-1.1914535681149125
1.72733111474383,15.540003924032849,-0.03737316206031822,0.7324951245288692,-1.2137235055351785
1.719535059881145,15.387857640059234,-0.03687497948906462,0.7165171037912597,-1.2367417414315756
1.7118413478070347,15.239057972062113,-0.036398468835794145,0.7006225914194125,-1.260407139315505
1.7042455256533833,15.093587571515876,-0.035942694532314384,0.6848097947352205,-1.2846188707664037
1.6967433404108523,14.95142945582812,-0.03550668872988548,0.6690770213386551,-1.3092761750804018
1.68933074544826,14.81256698726742,-0.035089453770993505,0.6534226792394442,-1.3342781145572347
1.682003906546879,14.6769838518127,-0.03468996433739681,0.6378452774721659,-1.3595233242062854
1.6747592075168023,14.544664037819796,-0.03430716928238206,0.6223434272221713,-1.3849097545889437
1.6675932554611446,14.415591814394471,-0.033939993152453135,0.6069158434952235,-1.4103344064414025
1.6605028857530444,14.289751709353641,-0.0335873374008825,0.5915613473698254,-1.4356930556393341
1.6534851667902233,14.16712848664762,-0.033248081292649556,0.576278868877984,-1.4608799669734793
1.646537404592285,14.04770712310582,-0.03292108249724095,0.5610674505677449,-1.4857875951031212
1.6396571473070063,13.931472784356227,-0.032605177362557,0.5459262518093196,-1.5103062709431236
1.6328421896936676,13.81841079975505,-0.03229918085971584,0.5308545539161698,-1.5343238716205418
1.6260905776539905,13.708506636146726,-0.03200188618482682,0.5158517661631145,-1.557725472010332
1.6194006128846083,13.601745870256067,-0.03171206399976601,0.5009174327955517,-1.5803929757289157
1.6127708577292281,13.498114159493113,-0.03142846128956927,0.48605124113734977,-1.6022047233332253
1.6062001403138582,13.397597210927088,-0.031149799809193846,0.4712530309200247,-1.6230350753472236
1.599687560054757,13.300180748158365,-0.030874774087004515,0.4565228049725719,-1.6427539676263798
1.5932324936362585,13.20585047578611,-0.03060204894631605,0.44186074142984366,-1.661226436485604
1.586834601564443,13.114592041134024,-0.030330256499545932,0.42726720763765647,-1.6783121109754537
1.5804938354129972,13.026390992856822,-0.0300579925618434,0.41274277595475245,-1.6938646697201987
1.5742104458896664,12.941232736005695,-0.0297838124222585,0.3982882416750118,-1.7077312598650332
1.5679849918657949,12.8591024830815,-0.029506225900326036,0.38390464331731133,-1.7197518759682684
1.5618183505278416,12.779985200550005,-0.029223691603991395,0.36959328555408005,-1.7297586971876118
1.555711728828912,12.703865550234354,-0.028934610290577825,0.3553557650711719,-1.7375753819456101
1.5496666764408005,12.630727824936702,-0.028637317215244634,0.3411939996683869,-1.7430163205550797
1.5436851004335463,12.56055587757518,-0.028330073330033012,0.3271102609175535,-1.7458858482327921
1.5377692819410904,12.493333043056698,-0.028011055169547643,0.3131072106870207,-1.74597742379767
1.5319218951097473,12.429042052044728,-0.02767834322419608,0.29918794180792535,-1.7430727835150603
1.5261460286729207,12.367664935731064,-0.027329908555105087,0.28535602308412183,-1.73694108553976
1.520445210553844,12.309182920692404,-0.026963597340865116,0.2716155487126479,-1.7273380689687978
1.514823435972601,12.253576312922469,-0.026577112956686227,0.25797119195340934,-1.7140052636804963
1.5092851996310237,12.200824370202845,-0.026167995058336037,0.24442826251920785,-1.6966693043658545
1.503835532679509,12.150905162147069,-0.025733594956089907,0.23099276658342427,-1.6750414264865903
1.49848004534907,12.103795417576016,-0.025271046286186663,0.21767146742660629,-1.6488172561477232
1.4932249763842387,12.059470359436183,-0.024777229569349746,0.2044719434289626,-1.6176770539405532
1.4880772507754085,12.017903528367825,-0.024248728609986177,0.19140263817444705,-1.5812866399617704
1.4830445478214302,11.979066597425565,-0.023681775713615502,0.17847289460898844,-1.5392993203936387
1.4781353823462633,11.942929182569461,-0.023072181192736182,0.1656929611634228,-1.4913592639892912
1.4733592030900629,11.909458656673927,-0.022415240294886035,0.15307395212737537,-1.437106949646916
1.4687265141176686,11.878619979317865,-0.02170560706125032,0.14062773697797376,-1.37618753351523
1.4642490278802223,11.850375560948102,-0.02093711900966874,0.12836672368642382,-1.3082632695057308
1.4599398628560207,11.824685188529742,-0.02010254788748612,0.1163034898217681,-1.233031446498212
1.455813805281395,11.80150605058548,-0.01919323853752279,0.10445020488546647,-1.1502496210216355
1.45188766454455,11.78079291176222,-0.01819857800385758,0.09281778390750427,-1.0597700743419933
1.4481807670913165,11.76249849784876,-0.017105207265031418,0.08141472955401934,-0.9615850768243139
1.4447156567793646,11.746574154372986,-0.015895843324987818,0.07024568450098266,-0.8558830699218872
1.4415191048497977,11.732970820779343,-0.014547508385170941,0.05930987353371911,-0.7431122605237829
1.4386235892992736,11.721640291053362,-0.01302883019125162,0.04859993338037332,-0.6240411508167403
1.4360695075912788,11.71253656767205,-0.011295757503935605,0.03810219406069423,-0.49979478861868015
1.4339086276090933,11.705616790527596,-0.009284051850210983,0.027800445410289545,-0.37183367334638845
1.4322100083891907,11.700840566620549,-0.006893274053626109,0.017687401323486937,-0.24183711350509618
1.431072569114129,11.698164643879494,-0.003939480946958046,0.007797577162763402,-0.11146539541359782
