x,y,v_x,v_y,omega
2.375,32.48,0.0,2.2564102564102564,-2.4897959183673475
2.3745960638943915,32.0330593586485,-0.004039361056084202,2.2129961571047225,-2.3680172691979338
2.3734317657609156,31.594672383546364,-0.007603620278674757,2.170873593916616,-2.254834939502994
2.3715969250606657,31.16458714188521,-0.01074478672382554,2.1299788226949303,-2.149443601301481
2.369171575628579,30.742564024225505,-0.013508707597041576,2.0902523539021307,-2.0511281737195737
2.366227117585259,30.328374930654142,-0.015935872836157314,2.0516385818115044,-1.959252253665885
2.3628273198870904,29.921802526996935,-0.018062104145528887,2.014085454760577,-1.873248206485512
2.3590291948068005,29.52263956343794,-0.019919146657372464,1.9775441808293264,-1.7926086535300483
2.354883762313544,29.130688248931314,-0.02153517827518986,1.9419689642369582,-1.716879139229302
2.350436719564331,28.745759675657546,-0.022935249216940918,1.9073167685007193,-1.645651797277501
2.3457290284223076,28.367673288506303,-0.024141662203293147,1.8735471030116915,-1.578559865716357
2.340797431998336,27.996256395186705,-0.02517430203642456,1.8406218301842994,-1.5152729253841348
2.3356749096032003,27.631343713093226,-0.02605092191492835,1.8085049907504938,-1.4554927564814166
2.330391078144397,27.27277694950683,-0.026787392673107598,1.7771626451134686,-1.398949724729935
2.324972546859796,26.920404412099202,-0.02739792017290432,1.7465627289628254,-1.345399622443855
2.319443231314744,26.57408064704352,-0.027895235277612538,1.716674921593984,-1.2946209013292664
2.313824631770053,26.233666102326346,-0.028290760169297057,1.6874705255777749,-1.2464122434063665
2.3081360803318183,25.899026814108737,-0.02859475421304955,1.658922356598291,-1.2005904244545882
2.302394960700323,25.57003411420655,-0.0288164421019058,1.631004642423604,-1.1569884310920147
2.29661690382803,25.246564356954263,-0.028964126621023257,1.6036929300992384,-1.115453798242218
2.2908159623623257,24.928498663888156,-0.029045288036019096,1.576964000561844,-1.0758471384975554
2.285004766375932,24.61572268483565,-0.02906667182791821,1.5507957899632243,-1.0380408389076081
2.2791946625673885,24.308126374131817,-0.029034366257518058,1.5251673170750737,-1.0019179041274346
2.2733958388378177,24.005603780802872,-0.0289538710381897,1.500058616214416,-0.9673709277533868
2.2676174359117534,23.708052851662387,-0.02883015822245486,1.4754506751904082,-0.9343011761374234
2.261872816716429,23.415376426686368,-0.028616033730784272,1.4513135745697816,-0.900885616782901
2.256173602548553,23.127480826046455,-0.02837610794798118,1.4276424318293461,-0.8689911916765971
2.2505246425140375,22.844274509112616,-0.028113492397169437,1.4044207375090185,-0.8385307115545635
2.2449301941100224,22.565669162289645,-0.027830991642982722,1.3816327307207297,-0.8094229286568024
2.2393939815672232,22.291579553580206,-0.027531133785007086,1.3592633563736616,-0.7815920676300014
2.2339192484134034,22.02192339541109,-0.027216197753191635,1.3372982253174912,-0.754967398403383
2.228508804861736,21.756621215162234,-0.02688823776348313,1.3157235771710858,-0.729482846847591
2.2231650705604893,21.49559623288259,-0.026549105248985554,1.2945262456253392,-0.7050766394875099
2.217890113181141,21.238774245717266,-0.02620046854449589,1.2736936260278873,-0.6816909789455331
2.2126856832697346,20.986083518607025,-0.02584383056956993,1.2532136450745504,-0.6592717471492651
2.207553245740109,20.737454680854796,-0.02548054472668432,1.2330747324477314,-0.637768233653143
2.202494008346837,20.492820628184436,-0.025111829206032592,1.21326579425586,-0.6171328867023416
2.197508947439579,20.252116429944802,-0.02473877986655176,1.1937761881404727,-0.5973210849141746
2.192598831268572,20.015279241137875,-0.0243623818435164,1.1745956999288094,-0.5782909276710151
2.1877642410826095,19.78224821897299,-0.023983520016110337,1.1557145217200224,-0.5600030425129778
2.1830055902356493,19.552964443670753,-0.023602988453491076,1.1371232313023418,-0.5424204079912189
2.1783231414958264,19.327370843259825,-0.023221498944739752,1.1188127728069306,-0.5255081905963324
2.1737170227307008,19.10541212212795,-0.022839688706514785,1.1007744385117777,-0.5092335945132033
2.1691872411248485,18.887034693105186,-0.02245812735200691,1.082999851715902,-0.4935657230758032
2.1647336960700723,18.67218661287255,-0.02207732319575803,1.0654809506104383,-0.47847545090449883
2.1603561908544053,18.460817520503618,-0.021697728960910406,1.0482099730789143,-0.4639353058060012
2.156054443263477,18.252878578959297,-0.02131974694836912,1.031179442364269,-0.44991935960342805
2.1518280951965325,18.048322419368375,-0.020943733721078658,1.0143821535449347,-0.4364031271422449
2.147676721389321,17.847103087937214,-0.02057000435103781,0.9978111607666764,-0.4233634727881031
2.1436022330688544,17.649349830497922,-0.02017487885362854,0.9797214136262635,-0.44521915999421924
2.1396039432877596,17.455203120289493,-0.019808018957319123,0.9617456884580335,-0.46883190452177576
2.1356762225637334,17.26464046280134,-0.019469188282940697,0.9438808864235194,-0.4940905154381818
2.1318134974876335,17.07763997119746,-0.01915806247806126,0.9261240296152627,-0.5208863757715079
2.1280102675477934,16.894180342580363,-0.018874236920338107,0.908472256555713,-0.5491132053438299
2.12426112047645,16.7142408351154,-0.018617233793096818,0.8909228180939086,-0.5786668290142762
2.1205607462395193,16.537801245937203,-0.01838650857620798,0.8734730736880952,-0.6094449493997863
2.116903949782747,16.364841889761898,-0.01818145599151705,0.8561204880649463,-0.641346923149179
2.113285662639747,16.195343578130544,-0.01800141543848216,0.8388626282485838,-0.6742735398470912
2.1097009535006728,16.029287599210168,-0.01784567595226018,0.821697160955175,-0.7081268026185206
2.1061450378341244,15.866655698079498,-0.017713480713225038,0.8046218503515392,-0.7428097094918681
2.102613286649424,15.707430057426446,-0.01760403113377709,0.7876345561789729,-0.7782260345582169
2.0991012344815183,15.551593278583908,-0.01751649054528117,0.7707332322464221,-0.8142801079367289
2.095604586676487,15.399128362829241,-0.017449987505027534,0.7539159253002516,-0.8508765935200151
2.0921192260519628,15.250018692871095,-0.017403618740216384,0.7371807742812144,-0.8879202634285942
2.0886412190036316,15.104248014444686,-0.017376451743096034,0.7205260099828726,-0.9253157680494493
2.0851668211264713,14.961800417933425,-0.01736752702850776,0.7039499551297242,-0.9629674004694845
2.081692482417403,14.822660319930684,-0.017375860062176868,0.6874510248977042,-1.0007788540395395
2.0782148521246744,14.68681244465045,-0.01740044286510743,0.6710277279046475,-1.0386529717176052
2.0747307833085284,14.554241805089603,-0.017440245296353147,0.6546786677038026,-1.0764914857399719
2.071237337177572,14.424933683837256,-0.017494216013211362,0.6384025448196684,-1.1141947460551282
2.067731787265803,14.298873613418046,-0.017561283104480976,0.622198159372429,-1.151661435826131
2.064211623516475,14.176047356046283,-0.017640354388792974,0.6060644143451875,-1.188788272161685
2.0606745563409845,14.056440882656041,-0.017730317366114856,0.5900003195572379,-1.2254696900730997
2.0571185207237437,13.940040351058627,-0.017830038806292522,0.5740049964169112,-1.2615975074725314
2.0535416804477284,13.826832083063003,-0.017938363953862838,0.558077683539325,-1.2970605688265626
2.049942432520014,13.716802540376285,-0.018054115323278122,0.5422177433278498,-1.3317443648576885
2.046319411882381,13.609938299080142,-0.01817609105305089,0.526424669633577,-1.3655306254447475
2.04267149649897,13.506226022454303,-0.01830306278106417,0.5106980966247998,-1.3982968826128115
2.0389978129212336,13.40565243188994,-0.018433772996296546,0.49503780901883293,-1.4299160002260658
2.035297742440168,13.308204275602883,-0.018566931814363585,0.4794437538517417,-1.4602556667085071
2.0315709279471874,13.213868294818901,-0.018701213115440284,0.46391605398808144,-1.4891778468249028
2.0278172816383293,13.122631187059802,-0.01883524997313946,0.44845502360292105,-1.516538188271159
2.024036993711857,13.034479566109255,-0.018967629291583517,0.43306118590254367,-1.5421853785687838
2.0202305422272007,12.949399918180152,-0.01909688555498256,0.4177352933884968,-1.5659604475622393
2.01639870431378,12.867378553740089,-0.019221493579221347,0.4024783510121247,-1.5876960107248932
2.01254256894207,12.788401554377572,-0.01933986013787604,0.3872916426130399,-1.607215448554029
2.008663551496761,12.712454714007837,-0.019450314315218105,0.3721767610843064,-1.6243320176730867
2.0047634104236973,12.639523473623644,-0.019551096415416885,0.35713564275762877,-1.6388478899983716
2.000844266259222,12.569592848692846,-0.01964034522933449,0.34217060655033826,-1.650553117668917
1.9969086233936313,12.502647348192117,-0.019716083426574462,0.32728439845694995,-1.6592245236735188
1.9929593949711095,12.438670884147168,-0.019776200798643086,0.3124802419925187,-1.6646245216610365
1.9889999313886542,12.377646670429062,-0.01981843502591023,0.2977618951885297,-1.6664998739023436
1.9850340529289257,12.31955710944202,-0.01984034957137413,0.28313371468188697,-1.6645804046758574
1.9810660871507981,12.264383665245,-0.019839308209902012,0.2686007272883344,-1.6585776987687004
1.9771009117728489,12.21210672160029,-0.019812445569589974,0.2541687091587595,-1.6481838332066105
1.9731440039287866,12.16270542347474,-0.019756632871032555,0.23984427209672826,-1.6330702174890033
1.969201496865072,12.116157500690932,-0.019668437766113843,0.22563495574136586,-1.6128866574933152
1.9652802454140903,12.07243907282676,-0.019544076743703558,0.21154932290035702,-1.5872608165889808
1.9613879019505587,12.031524435229773,-0.01937935789161133,0.19759705306950745,-1.5557983326481895
1.95753300508872,11.993385827354473,-0.01916961072677451,0.18378902568348165,-1.518083973299729
1.9537250842090081,11.957993186854264,-0.018909598070344095,0.17013737931859865,-1.473684390199442
1.9499747841898423,11.925313896410763,-0.018593402121314766,0.1566555251163892,-1.4221532878453853
1.9462940167517415,11.89531253578616,-0.01821427225969403,0.14335808112964976,-1.3630401798544507
1.9426961480740335,11.867950659861588,-0.01776441451738543,0.1302606781160758,-1.2959043920766038
1.9391962376030938,11.843186635438329,-0.017234690192012243,0.11737956611651082,-1.2203365990570376
1.9358113515118731,11.820975586154052,-0.0166141707201934,0.10473092672626944,-1.1359909061149414
1.9325609881435288,11.80126951589127,-0.015889462963251187,0.09232977590154802,-1.042631128895864
1.9294676752225728,11.784017703551498,-0.015043666246308485,0.08018834749618328,-0.9401949654679242
1.9265578347902002,11.769167476110642,-0.014054738077416641,0.06831392691236597,-0.8288780482821884
1.923863070422347,11.75666544808725,-0.0128929056011154,0.05670635332155419,-0.7092342139893673
1.9214221304213548,11.746459213819136,-0.01151649440880772,0.04535598935957545,-0.5822755535410661
1.919283992263562,11.738499204986947,-0.009864887169118153,0.03424409896230811,-0.4495337285901787
1.9175129920848448,11.732739824152116,-0.007845114618054087,0.023349709386001734,-0.3130175321411257
1.9161985843617448,11.729137587960246,-0.005298962612946387,0.01267265253271662,-0.17498961804929336
1.9154811812743282,11.727638620539928,-0.001875068261219855,0.0023170216704568175,-0.03752717420151791
