x,y,v_x,v_y,omega
2.375,32.48,0.0,2.2564102564102564,-2.4897959183673475
2.3746394860936837,32.055288504889674,-0.0037948832243822382,2.2142370605405453,-2.373078244347107
2.3735988819413802,31.638476676877442,-0.007158844694600125,2.173255865903962,-2.264198460002268
2.371955764121371,31.229343393464937,-0.010137132358133011,2.133410275280322,-2.162455129009272
2.3697796003218605,30.82767790543252,-0.01276985500513287,2.0946474934819497,-2.0672220836112274
2.3671326646341644,30.433279180988787,-0.015092625917982367,2.0569180269783915,-1.9779391746990873
2.364070838980109,30.0459553039697,-0.01713711780891944,2.0201754153277887,-1.8941042952367568
2.360644316255999,29.6655229204406,-0.018931542444871514,1.9843759902416855,-1.8152664832966883
2.356898218439636,29.291806728784824,-0.020501066148421298,1.9494786587664785,-1.7410199432667495
2.3528731409532058,28.924639008979838,-0.02186817055084429,1.9154447076018029,-1.6709988502210538
2.3486056329352984,28.56385918728594,-0.023052966479755573,1.8822376260182034,-1.6048728241705774
2.344128621694976,28.20931343301999,-0.024073467628903694,1.8498229452022916,-1.5423429788322311
2.339471788455136,27.860854284470378,-0.024945829632572365,1.818168092162033,-1.4831384643969905
2.3346619015052816,27.518340301339936,-0.025684559313262863,1.7872422565794828,-1.4270134361113405
2.3297231120455226,27.181635741389705,-0.02630269815788366,1.7570162692123916,-1.3737443907696503
2.324677217289956,26.85061025920497,-0.026811983479657776,1.727462490626963,-1.323127821816148
2.319543894788467,26.52513862522164,-0.027222990220227932,1.6985547091975541,-1.2749781509708926
2.3143409114048947,26.205100463341076,-0.027545255922636215,1.6702680474399498,-1.2291259003651642
2.3090843099427185,25.89038000562788,-0.027787391047639606,1.642578875856866,-1.185416074293749
2.3037885760254766,25.580865862732267,-0.027957176502278674,1.6154647335706085,-1.1437067240245096
2.298466787508541,25.276450808808477,-0.028061649991776873,1.5889042551008972,-1.1038676727803391
2.293130748413622,24.977031579815698,-0.02810718258632221,1.5628771027178063,-1.065779381132737
2.28779110913076,24.682508684190587,-0.028099546706961284,1.537363903862303,-1.0293319357086148
2.2824574744190067,24.392786224971438,-0.028043976574650784,1.5123461931813837,-0.994424146385961
2.277138500551636,24.107771732535817,-0.02794522202924913,1.4878063587725079,-0.960962739100612
2.2718445835758416,23.827377104517623,-0.02778021982121882,1.4637160414190105,-0.9275196726448973
2.2665846103301717,23.55151730951704,-0.02758791960688912,1.4400712743765998,-0.8955505156374917
2.261363477837322,23.280109152206986,-0.02737136979152926,1.4168566973081749,-0.8649732969065668
2.256185531281964,23.013072291640714,-0.027133330791183442,1.3940576244420593,-0.8357114636406122
2.2510546161079374,22.750329116639737,-0.02687630261962466,1.371660007147179,-0.8076934662143513
2.2459741251397145,22.491804628057004,-0.026602549677454745,1.3496503989868502,-0.7808523790774857
2.240947041230899,22.23742632746263,-0.026314123046919363,1.3280159230592148,-0.7551255542100584
2.2359759758881737,21.987124111834305,-0.02601288056071572,1.306744241449413,-0.7304543040219154
2.2310632042711,21.74083017386639,-0.025700504882169156,1.2858235266339306,-0.7067836109038197
2.226210696925623,21.498478907540488,-0.02537851980705926,1.2652424346913627,-0.6840618609297546
2.2214201485714615,21.260006818627108,-0.025048304973586944,1.2449900801863074,-0.6622405994685898
2.216693004230095,21.025352439811996,-0.024711109146060867,1.2250560126043546,-0.6412743066927242
2.2120304829503694,20.79445625016308,-0.02436806221947353,1.205430194226316,-0.6211201911751137
2.2074335993623073,20.56726059867437,-0.024020186075915124,1.1861029793390674,-0.6017379999473537
2.202903183266197,20.34370963164173,-0.0236684044094597,1.1670650946887375,-0.5830898435529184
2.1984398974430643,20.12374922364279,-0.02331355162351443,1.1483076210895684,-0.565140034773603
2.1940442538539533,19.907326911908953,-0.022956380893441358,1.1298219761086794,-0.5478549398357264
2.189716628378727,19.69439183389207,-0.02259757147736168,1.1115998977532495,-0.5312028410175278
2.1854572742301963,19.484894667841736,-0.02223773534927908,1.0936334290923582,-0.5151538096819872
2.1812663341660317,19.278787576221625,-0.02187742322087459,1.0759149037509463,-0.4996795888514077
2.1771438516089643,19.07602415180456,-0.021517130011412103,1.0584369322181313,-0.4847534845227022
2.173089780775071,18.876559366296775,-0.0211572998190476,1.041192388916466,-0.4703502649965109
2.1691039959003318,18.680349521351353,-0.020798330441365576,1.0241743999827242,-0.45644606755994965
2.165186299647033,18.487352201840118,-0.020440577488094126,1.0073763317144455,-0.443018311922793
2.1613364307638263,18.297526231261465,-0.020084358124606197,0.9907917796398255,-0.430045619860938
2.1575560789207446,18.11103696710158,-0.01970881917099196,0.9722531062536736,-0.4601838040101203
2.153844009870473,17.928059757977728,-0.019365591884493962,0.9538227792605567,-0.49176924871687194
2.150194150453222,17.74857428552412,-0.0190539809286806,0.9354979834089614,-0.5246956351033585
2.1466005651108584,17.572560755834097,-0.01877323320146269,0.9172760133281554,-0.5588585393618787
2.143057466338704,17.39999987890198,-0.01852254334753072,0.8991542701677933,-0.5941552048877594
2.1395592241362515,17.23087284866813,-0.01830105878354809,0.8811302586095902,-0.6304843170448551
2.1361003745464573,17.06516132359677,-0.018107884266917104,0.8632015842468804,-0.6677457796168916
2.1326756273677034,16.902847407716912,-0.017942086035753913,0.8453659513305491,-0.7058404919845714
2.129279873117565,16.74391363205666,-0.01780269554465056,0.8276211608826167,-0.7446701260475432
2.125908189323128,16.58834293640055,-0.017688712817839843,0.8099651091816993,-0.7841369018816343
2.1225558462087775,16.436118651298656,-0.017599109438485645,0.7923957866277064,-0.8241433610846662
2.119218311849074,16.287224480254356,-0.01753283118997068,0.774911276996515,-0.8645921367181388
2.1158912568516164,16.141644482015277,-0.01748880036221758,0.7575097570990389,-0.9053857186964108
2.112570558632549,15.99936305288887,-0.017465917733229114,0.7401894968631383,-0.946426213408938
2.109252305345744,15.860364909000051,-0.017463064233138387,0.7229488598612731,-0.9876150962837812
2.1059327995255623,15.724635068403614,-0.017479102295088193,0.7057863043117576,-1.028852955910973
2.1026085615025822,15.59215883295823,-0.017512876894174783,0.6887003845870253,-1.0700392282413347
2.099276332651752,15.46292176986195,-0.01756321627245782,0.6716897532685586,-1.1110719192587823
2.0959330785331307,15.336909692740893,-0.017628932344613428,0.6547531637952013,-1.1518473143907542
2.0925759919867533,15.214108642173187,-0.017708820775145327,0.6378894737595874,-1.1922596727708086
2.089202496245273,15.094504865518953,-0.017801660714119528,0.6210976489165521,-1.2322009042983089
2.085810248130893,14.978084795913986,-0.01790621417409407,0.6043767679778177,-1.2715602272511193
2.082397141406864,14.864835030269571,-0.018021225026213648,0.5877260282791805,-1.3102238039972234
2.0789613103584887,14.75474230610314,-0.018145417588258085,0.5711447524201063,-1.3480743521192782
2.075501133684294,14.64779347700405,-0.018277494771692607,0.5546323959913421,-1.3849907280119766
2.0720152387848874,14.543975486515077,-0.01841613574837488,0.5381885565241774,-1.4208474797362365
2.0685025065452014,14.44327534018279,-0.01855999309042353,0.5218129838156795,-1.45551436561846
2.0649620767153825,14.345680075498546,-0.018707689328724426,0.5055055918079565,-1.4888558347712662
2.0613933540068357,14.251176729415256,-0.018857812866503648,0.4892664722266603,-1.5207304653909604
2.057796015032972,14.159752303083305,-0.01900891317416511,0.4730959102149333,-1.5509903563677705
2.054170016239328,14.07139372340064,-0.019159495179979773,0.45699440223419435,-1.579480467445125
2.0505156029852216,13.98608780091682,-0.019308012757984674,0.4409626765428659,-1.606037902910831
2.046833319959279,13.903821183567441,-0.019452861199309536,0.4250017166085012,-1.6304911336362773
2.0431240231344505,13.824580305643156,-0.019592368535722316,0.4091127878576491,-1.6526591522595013
2.0393888934949786,13.748351331315725,-0.019724785563983983,0.3932974682205634,-1.6723505565219836
2.0356294527987835,13.675120091951378,-0.01984827439596533,0.3775576829830924,-1.689362556345885
2.031847581674676,13.604872016339247,-0.019960895331481907,0.36189574451304085,-1.7034799013653554
2.028045540395559,13.53759205285008,-0.020060591817116856,0.34631439747819337,-1.7144737275750004
2.024225992717702,13.473264582419699,-0.0201451732129539,0.33081687021002654,-1.7221003249267857
2.020392033233944,13.411873321126343,-0.020212295037137246,0.3154069328779356,-1.7260998326698758
2.016547218757784,13.353401211008165,-0.020259436290861074,0.3000889631028974,-1.7261948768250077
2.0126956043393918,13.297830297658567,-0.02028387337642676,0.2848680195244521,-1.722089175638359
2.0088417846189506,13.245141593062666,-0.020282649996635888,0.2697499235903147,-1.7134661559521895
2.0049909413559024,13.1953149221299,-0.02025254224597766,0.2547413493861769,-1.6999876487618244
2.0011488981475716,13.148328751486378,-0.02019001784171388,0.2398499205456235,-1.6812927695929298
1.9973221835883486,13.104159999394863,-0.02009118804484468,0.22508431199663773,-1.6569971442443059
1.993518104454878,13.06278382629218,-0.019951750202213667,0.21045435224214523,-1.6266927208743496
1.9897448309889185,13.024173406558457,-0.019766917860518474,0.19597111863913572,-1.5899485267741176
1.9860114970787766,12.988299684037568,-0.019531333825186053,0.18164701315972206,-1.5463128984829206
1.982328319263364,12.955131116921226,-0.01923895896862889,0.1674957985912484,-1.4953179588893368
1.978706740250448,12.92463342247219,-0.018882925377856817,0.15353256403018392,-1.4364874622546833
1.975159605468499,12.896769339483491,-0.018455335484764936,0.13977357269295082,-1.36934960832244
1.971701385747906,12.871498437327709,-0.017946977363582278,0.12623592368371941,-1.2934570621264478
1.9683484666820354,12.848777015922664,-0.017346907540316907,0.11293693321148945,-1.208417189208398
1.9651195373834645,12.8285581613105,-0.01664182191832491,0.09989311533759487,-1.1139362933990764
1.9620361311507488,12.810792045062836,-0.01581508579447134,0.08711863463783232,-1.0098820138720541
1.9591234026335194,12.79542657507642,-0.014845214386891285,0.07462315469287553,-0.8963670027216569
1.9564112780513812,12.782408500992148,-0.013703465425089307,0.06240920408893436,-0.7738525386352713
1.9539362015178832,12.771685006883235,-0.01234997176962733,0.05046968126802733,-0.6432595479120737
1.9517438596305698,12.76320560759618,-0.010727311254722136,0.0387871533325632,-0.5060533301810523
1.9498936323448688,12.75692366744503,-0.008748765436869047,0.02733853246902953,-0.3642391348444277
1.9484666760994003,12.752795766933446,-0.006271826620695652,0.01611305186343908,-0.22018463233856872
1.9475849439889554,12.750773678122155,-0.003009564015565274,0.005172093518586281,-0.07620449295850154
