x,y,v_x,v_y,omega
2.375,32.48,0.0,3.7435897435897436,-3.959183673469388
2.3737363610586217,31.705018994205766,-0.012034656584554205,3.637181740164831,-3.642030529533895
2.370176835969178,30.951807169549575,-0.021865582362528883,3.5362642089417475,-3.3634198882231914
2.3647432870985248,30.219257647019795,-0.029882502119882727,3.4403979103894966,-3.1173691374044292
2.35778354386504,29.506350791373986,-0.03640076677044792,3.3491911909991603,-2.8989831253120064
2.3495853937607256,28.812144919262305,-0.04167685327064355,3.2622933053025496,-2.704231081661367
2.340387687820297,28.135768285677507,-0.045920346162011155,3.179388919314585,-2.5297741668027367
2.330389208474488,27.476412127525684,-0.049303266655215804,3.100193539274196,-2.372831093701673
2.3197557900488603,26.83332459000357,-0.051967385017426385,3.0244496752221286,-2.2310726411573234
2.3086260659092672,26.205805396584196,-0.05402998774060435,2.9519235954385747,-2.1025382740728347
2.2971161297048894,25.593201150131744,-0.05558845230109173,2.8824025612514625,-1.9855698105295239
2.2853233331654614,24.99490117329394,-0.05672389569345832,2.815692456251433,-1.8787583284291214
2.2733293937143535,24.41033381245763,-0.05750409907899685,2.7516157421895926,-1.7809014241497498
2.261202947650836,23.838963142330158,-0.057985863430694964,2.690009687595855,-1.6909686167802758
2.249001655863386,23.280286018436435,-0.05821691549740052,2.6307248256777047,-1.6080732001466223
2.236773946796127,22.73382943308889,-0.058237456571730656,2.5736236062037032,-1.5314492276416105
2.224560464110065,22.199148137130052,-0.05808142615267334,2.518579212451912,-1.4604326050431218
2.2123952729791365,21.675822495291182,-0.05777753699902438,2.4654745193468397,-1.3944454879620136
2.200306868356507,21.163456547601477,-0.05735012607363873,2.4142011729360466,-1.332983350657065
2.188319020175903,20.661676253109988,-0.05681985659877897,2.364658774601939,-1.2756042243922951
2.1764514838142595,20.17012789539272,-0.056204299226398496,2.3167541560387237,-1.22191970566141
2.164720598853353,19.68847663202483,-0.055518414686994075,2.270400733179281,-1.1715874144248264
2.153139794946834,19.21640517249275,-0.054774955851283724,2.225517929030995,-1.1243046452021739
2.1417200201997697,18.753612570975292,-0.05398480364456586,2.182030656849548,-1.0798030033554593
2.1304701047261885,18.299813122094132,-0.05315724848478212,2.1398688563043735,-1.0378438581523048
2.119397069830505,17.85473534916908,-0.0523002267121982,2.0989670763151875,-0.9982144754746495
2.108506391455271,17.418121075750257,-0.051420519718605964,2.059264099102148,-0.9607247180666696
2.097802225067205,16.98972457226874,-0.0505239220724959,2.0207026007218474,-0.9252042213287257
2.0872875979505383,16.569311770574977,-0.049615383800523195,1.9832288439806305,-0.8914999688926641
2.076964573889362,16.156659539941845,-0.04869913106782182,1.9467924001444448,-0.8594742053591473
2.0668343944078824,15.75155501881353,-0.04777876875579066,1.9113458963157084,-0.8290026342657068
2.056897600066274,15.353794997198214,-0.04685736783095729,1.8768447857349093,-0.7999728580758734
2.0471541347540088,14.963185345143259,-0.04593753990490383,1.843247138597987,-0.7722830241217972
2.0376034354609613,14.579540483207293,-0.04502150098126068,1.8105134512683556,-0.7458406463012155
2.0282445096222412,14.202682891262896,-0.04411112605417122,1.7786064720116286,-0.7205615771674191
2.0190760018118397,13.832442652333942,-0.043207995949650586,1.7474910415974654,-0.6963691090517447
2.0100962512916554,13.468657028499571,-0.042313437575914374,1.7171339473012943,-0.6731931861770744
2.001303341697151,13.111170066187622,-0.041428558562223224,1.687503789002994,-0.6509697124823475
1.992695143951464,12.759832228438857,-0.040554277110987545,1.6585708562233414,-0.6296399421824715
1.9842693533401068,12.414500051953578,-0.03969134775908001,1.6303070150650205,-0.6091499420163842
1.976023521543531,12.075035826937508,-0.03884038363688084,1.602685604135653,-0.5894501157541371
1.9679550843106624,11.741307297947355,-0.03800187572377234,1.575681338627728,-0.5704947828952883
1.9600613853596942,11.413187384100741,-0.03717620952354293,1.5492702218162269,-0.5522418046392984
1.9523396970101266,11.090553917162417,-0.03636367951995897,1.523429463310656,-0.534652251179799
1.9447872379799762,10.773289396150929,-0.03556450171956807,1.4981374034654173,-0.5176901051979127
1.9374115143774882,10.461281599758525,-0.0346804849707951,1.4733654193193686,-0.4985052213888958
1.93021906920155,10.154422470364779,-0.03381899289528238,1.4491024796686878,-0.48022904767106545
1.9232052117293297,9.852607073178103,-0.03297964969729101,1.425329874490117,-0.4628075277177097
1.916365333690012,9.5557343096967,-0.032162045915259015,1.402029777713726,-0.44619043130495045
1.9096949155910712,9.263706737566473,-0.03136574550322426,1.379185194955093,-0.43033104068935407
1.903189531663684,8.976430401029795,-0.030590291900462047,1.3567799149180249,-0.4151858661075491
1.896844853625358,8.693814671225628,-0.029835213226454486,1.3347984641692783,-0.4007143873836132
1.8906566534310405,8.415772095661353,-0.029100026719425767,1.3132260650142804,-0.3868788189733389
1.8846208051608486,8.142218256230962,-0.028384242520495803,1.2920485962275419,-0.3736438960752305
1.8787332861725765,7.873071635203637,-0.027687366891619585,1.2712525564136412,-0.360976679701936
1.8729901776298838,7.608253488651769,-0.027008904943550304,1.2508250297946113,-0.3488463788376661
1.8673876645021317,7.3476877268283936,-0.026348362939802927,1.2307536542375237,-0.33722418801118986
1.8619220351189076,7.091300801041466,-0.025705250233758026,1.2110265913522713,-0.3260831387938296
1.8565896803510782,6.839021596606539,-0.025079080888427044,1.1916324985041742,-0.31539796389061053
1.8513870924805018,6.590781331490678,-0.024469375021824828,1.172560502599256,-0.3051449726330256
1.8463108638121128,6.346513460288996,-0.023875659915214544,1.1538001755120026,-0.2953019368060694
1.8413576850747746,6.106153583201429,-0.023297470916577325,1.1353415110362555,-0.28584798585227417
1.8365243436509564,5.869639359701402,-0.022734352167406633,1.1171749032497196,-0.2767635105931808
1.8318077216697681,5.636910426610076,-0.022185857177243,1.0992911261915008,-0.2680300746955057
1.8272047939931046,5.407908320310149,-0.02165154926717019,1.0816813147601916,-0.25963033318652484
1.822712626120476,5.182576402851851,-0.021131001900721407,1.0643369467474164,-0.25154795739203184
1.8183283720344856,4.960859791720882,-0.020623798918236527,1.0472498259284648,-0.2437675657316327
1.8140492720057657,4.742705293053927,-0.020129534688618687,1.0304120661377774,-0.23627465986097873
1.8098726503734457,4.528061338101882,-0.019647814190618815,1.0138160762626391,-0.22905556569957536
1.8057959133148405,4.3168779227544825,-0.019178253034193023,0.99745454609355,-0.22209737892670026
1.801820382570196,4.1092384865049105,-0.018683944533851266,0.9800638943785752,-0.24044596261642615
1.7979453605319469,3.9052390437515108,-0.018221027258996877,0.9627879413680782,-0.26069332235552367
1.7941642758240222,3.704855842746504,-0.017789303292666474,0.9456234967748299,-0.2827299225867235
1.7904706082101791,3.5080657887721003,-0.017388483505840747,0.9285674934576007,-0.30644920361200534
1.7868579068844612,3.3148464188203057,-0.01701819578670973,0.9116169822737678,-0.331747347098825
1.783319807103371,3.125175877311765,-0.016677992604626695,0.8947691273313785,-0.358523048926499
1.7798500452944368,2.9390328927714933,-0.016367357956649602,0.8780212016235945,-0.38667729847528676
1.7764424727662296,2.7563967553827844,-0.016085713740562873,0.8613705830307727,-0.41611316348393346
1.773091068136045,2.577247295343394,-0.015832425594528184,0.8448147506777178,-0.44673557961869204
1.7697899485834194,2.4015648619504653,-0.015606808240001485,0.8283512816358944,-0.47845114390815785
1.7665333800302883,2.2293303033426213,-0.01540813036124727,0.8119778479626366,-0.5111679112035887
1.7633157863419338,2.0605249468290197,-0.015235619051654091,0.7956922140716624,-0.544795192823651
1.7601317576368314,1.8951305797361861,-0.015088463854082254,0.779492234431524,-0.5792433565355578
1.7569760577880915,1.7331294307038192,-0.014965820419631225,0.7633758515910205,-0.614423627011127
1.75384363119435,1.5745041513607845,-0.014866813806476548,0.7473410945331045,-0.6502478858760656
1.750729608893704,1.4192377983118547,-0.014790541437770267,0.7313860773614691,-0.6866284704434243
1.7476293140905632,1.2673138153645844,-0.014736075735000862,0.7155089983268255,-0.7234779701871769
1.7445382671621203,1.1187160159239582,-0.014702466440644324,0.6997081392029405,-0.7607090199687458
1.7414521902085076,0.9734285654799386,-0.014688742641381774,0.6839818650258283,-0.7982340889773613
1.7383670112086012,0.831435964109847,-0.014693914500584831,0.6683286242131458,-0.8359652642836891
1.735278867841894,0.6927230289135551,-0.014716974706149744,0.6527469490848848,-0.8738140278343683
1.7321841110358565,0.5572748762944926,-0.0147568996370655,0.6372354568109632,-0.9116910256320162
1.7290793082977882,0.4250769039936202,-0.014812650249297617,0.6217928508163654,-0.9495058277498825
1.7259612468903567,0.2961147727764839,-0.014883172678623062,0.6064179226801838,-0.9871666777215177
1.7228269369108342,0.17037438766507051,-0.014967398554924604,0.5911095545713482,-1.0245802297223674
1.7196736143355613,0.047841878596607046,-0.0150642450191025,0.575866722271162,-1.0616512718208357
1.7164987440933908,-0.07149641962018194,-0.015172614430140641,0.5606884988411092,-1.0982824334197845
1.7133000232349043,-0.1876539881939152,-0.01529139374592083,0.5455740590039426,-1.134373874834375
1.7100753842680918,-0.30064414624261104,-0.01541945355705352,0.5305226843169999,-1.169822956757483
1.7068229987360382,-0.4104800738649672,-0.015555646748219873,0.5155337692292402,-1.2045238871487365
1.7035412811180717,-0.5171748365874649,-0.015698806756222924,0.5006068281279119,-1.2383673428471078
1.7002288931429241,-0.6207414114081118,-0.01584774538803933,0.48574150349732714,-1.2712400629502767
1.6968847486108474,-0.7211927146851167,-0.016001250155549734,0.47093757533125946,-1.303024410728173
1.6935080188315144,-0.8185416321509464,-0.01615808107619224,0.4561949719623376,-1.3335979005465148
1.6900981387960723,-0.9128010513691649,-0.01631696688039903,0.44151378249685946,-1.362832685974792
1.6866548142151259,-1.0039838969939012,-0.01647660055718725,0.4268942710720691,-1.3905950049519828
1.6831780295699788,-1.0921031692409429,-0.01663563415849958,0.41233689318549366,-1.4167445775981449
1.6796680573424223,-1.177171986035603,-0.016792672770606858,0.39784231438272094,-1.4411339520151616
1.6761254686090923,-1.2592036293670645,-0.016946267546822425,0.3834114316311777,-1.4636077932519782
1.672551145210319,-1.3382115964523962,-0.017094907679590626,0.36904539775294715,-1.484002110573014
1.668946293730981,-1.4142096563970412,-0.017237011171249258,0.3547456493389095,-1.5021434183433533
1.6653124615627135,-1.4872119131325405,-0.017370914240820882,0.34051393861823265,-1.5178478263484014
1.6616515553537148,-1.5572328755173999,-0.017494859178214067,0.3263523698090234,-1.5309200563707555
1.6579658621952729,-1.6242875356023063,-0.01760698042599498,0.3122634405234385,-1.541152383603619
1.6542580739443284,-1.6883914561850943,-0.01770528863061765,0.29825008883644705,-1.5483235043532328
1.6505313151406358,-1.7495608689101019,-0.01778765235693322,0.2843157466398408,-1.552197336004572
1.646789175047902,-1.8078127842939509,-0.017851777097671787,0.27046439987300175,-1.552521762171047
1.6430357444343469,-1.8631651151731532,-0.017895181126662982,0.2567006561194209,-1.5490273464532962
1.6392756578148955,-1.9156368151485097,-0.01791516763001626,0.24302981983637828,-1.541426053950425
1.635514142013239,-1.965248033613939,-0.01790879238576113,0.2294579750724471,-1.5294100430205835
1.6317570720805523,-2.0120202888519216,-0.017872826020778065,0.21599207481307633,-1.5126506243146762
1.6280110358501652,-2.0559766603728917,-0.017803709506718318,0.2026400349104635,-1.4907975349645095
1.6242834087485276,-2.0971420010464996,-0.01769750098506788,0.18941082864770853,-1.4634787504709283
1.6205824409791993,-2.1355431684279225,-0.017549811103772947,0.17631457498487837,-1.4303011660329719
1.6169173599420592,-2.1712092727353323,-0.017355722583276844,0.16336260889522597,-1.3908526378815733
1.6132984919002509,-2.204171935762254,-0.017109687338706582,0.15056751517070377,-1.3447061041692436
1.6097374087220477,-2.2344655500065684,-0.016805390548942235,0.13794309667989346,-1.2914268303294374
1.6062471084362342,-2.262127519644139,-0.016435564554044328,0.12550423320171478,-1.230584274712707
1.602842243065825,-2.2871984536494523,-0.015991724687948926,0.11326656684887898,-1.1617706680751338
1.599539414929121,-2.309722265344597,-0.015463781375896263,0.10124592548585895,-1.0846291284789698
1.596357575244654,-2.32974611155052,-0.014839453714267056,0.0894573717134268,-0.9988948636692582
1.5933185795340377,-2.3473200801996583,-0.014103362577316212,0.0779137582783963,-0.9044533495210081
1.5904479878996995,-2.3624965155493385,-0.013235605368760764,0.06662372124234531,-0.8014183541397604
1.5877762528989245,-2.375328875850961,-0.012209489876714998,0.055589234011196975,-0.6902283487456959
1.5853405292503637,-2.3858700949382694,-0.010987878204816344,0.04480332872509371,-0.5717490517111289
1.583187509833519,-2.394170651471555,-0.009517068622276454,0.03424959063954755,-0.4473495392765022
1.58137809115061,-2.400277083420349,-0.0077154902625714865,0.02390690411089306,-0.3188918014512134
1.5799959650939646,-2.404232872926741,-0.005447615038813901,0.013767281664237858,-0.18855475023631088
1.5791685091331726,-2.406087594246678,-0.002432917921107375,0.003896730906573607,-0.058435720958357
