x,y,v_x,v_y,omega
2.375,32.48,0.0,2.41025641025641,-4.938775510204081
2.374238640346437,32.0265151431458,-0.008014312142769434,2.3632683987351015,-4.6940438849270185
2.3720442730274347,31.581819482325944,-0.015084291215147736,2.3177385572634064,-4.466893791781435
2.3685864272967856,31.145643343674628,-0.021314084896949644,2.273589218013609,-4.255645680069619
2.3640160352714465,30.717731247187167,-0.026795304843459322,2.230748639749141,-4.058813050485787
2.3584676536545297,30.297840839935624,-0.03160871217672023,2.189150383951314,-3.8750768152106367
2.352061389357926,29.885741939697457,-0.03582564884016099,2.148732776450434,-3.703263521858665
2.344904573223483,29.48121567410989,-0.039509257838184715,2.1094384402607913,-3.542326787471773
2.3370932186435835,29.084053702917558,-0.042715527213388074,2.071213888079551,-3.3913314120487152
2.3287132958714865,28.694057512867587,-0.045494186177106564,2.0340091650780354,-3.2494397386673364
2.319841847898397,28.311037776424005,-0.04788947669752154,1.9977775343280972,-3.1158999049889715
2.310547969734791,27.934813766798708,-0.04994081976149101,1.9624751985697821,-2.9900356932566092
2.3008936695951356,27.56521282288842,-0.05168339223487696,1.928061053117456,-2.871237736161057
2.290934627712743,27.202069858612205,-0.053148627579783184,1.8944964655795309,-2.758955876710016
2.280720866198768,26.845226911898294,-0.054364651514693905,1.861745078777421,-2.6526925134609955
2.270297341422084,26.494532729200834,-0.05535666192408039,1.829772633827436,-2.5519967896944453
2.2597044687576626,26.14984238195912,-0.05614726085930406,1.7985468108221654,-2.4564595074971414
2.2489785881761972,25.811016911862037,-0.05675674526138424,1.7680370849366325,-2.365708666230843
2.238152377983492,25.477923002163017,-0.057203362030250074,1.738214596105694,-2.2794055402144515
2.2272552230291187,25.150432672617825,-0.05750353222631216,1.709052030685815,-2.1972412232346157
2.2163135428612426,24.828422995897675,-0.05767204848817066,1.6805235137367953,-2.118933578187244
2.2053510845846036,24.511775833571864,-0.057722249160662605,1.6526045107454235,-2.0442245391157488
2.1943891845619325,24.200377589962905,-0.05766617213061204,1.6252717377699284,-1.9728777204534977
2.183447002569494,23.89411898235867,-0.05751469094768749,1.5985030791167325,-1.9046762946428684
2.1725417315615467,23.59289482622409,-0.057277635451758624,1.5722775117735956,-1.8394211046908127
2.1616887858052065,23.296603834193274,-0.0569638988255071,1.5465750359192012,-1.7769289827937427
2.150901969807138,23.005148427744373,-0.05658153273311091,1.5213766109113471,-1.7170312500563722
2.1401936301588758,22.718434560566283,-0.05613783198543804,1.4966640962264244,-1.659572375649774
2.1295818046035886,22.436375333314277,-0.05556559491231824,1.4723804011631056,-1.6015920132521835
2.1190819060696438,22.158886867049397,-0.05495965281342058,1.4485508226777615,-1.546178760908364
2.1086999137929925,21.885884385961525,-0.05432447641448709,1.4251595045629752,-1.4931891542783338
2.098440999448513,21.617286059397628,-0.05366409563266319,1.402191301372776,-1.4424892660475104
2.0883096068257663,21.353012870671428,-0.052982142501511245,1.3796317378503824,-1.3939539703644164
2.0783095237655616,21.09298849331622,-0.05228188971117498,1.3574669711518268,-1.3474662716742205
2.068443947145089,20.837139174271254,-0.051566285241165404,1.3356837556372696,-1.3029166916446198
2.05871554161396,20.585393623533484,-0.050837983507556715,1.3142694100234675,-1.2602027085625045
2.049126492707965,20.33768290984379,-0.05009937339765903,1.2932117867101627,-1.21922824418097
2.039678554900546,20.093940362010837,-0.04935260352254138,1.2724992431103883,-1.1799031935269604
2.0303730950927745,19.85410147550649,-0.04859960498031416,1.2521206148301054,-1.142142993649122
2.0212111319900794,19.618103823994772,-0.04784211189016019,1.2320651905563993,-1.1058682277010479
2.0121933717673413,19.38588697548196,-0.04708167992813784,1.21232268852587,-1.0710042611236585
2.0033202403824935,19.15739241279868,-0.046319703070261474,1.1928832344560023,-1.03748090701781
1.9945919128618623,18.932563458146287,-0.04555742872585459,1.1737373408323533,-1.0052321180893222
1.9860083398475985,18.711345201459135,-0.04479597142429223,1.1548758874534526,-0.9741957028078652
1.9775692716682267,18.493684432352424,-0.04403632520067235,1.1362901031435069,-0.944313063652292
1.9692742801671752,18.2795295754415,-0.04327937481039754,1.117971548550405,-0.9155289555213884
1.9611227785007457,18.06883062883366,-0.04252590588886143,1.099912099953237,-0.8877912625734897
1.9531140390960844,17.861539105607186,-0.04177661416020355,1.0821039340096317,-0.8610507919235267
1.9452472099409825,17.65760797810529,-0.04103211378823571,1.0645395133787519,-0.8352610827740032
1.9375213293605664,17.45699162488403,-0.040292944952988276,1.0472115731608211,-0.8103782296891279
1.9299353394208978,17.25964578016438,-0.039559580727734245,1.030113108098643,-0.7863607188405053
1.9224880980860117,17.06552748564839,-0.03883243332369769,1.0132373604907525,-0.7631692761599541
1.9151783902427915,16.874595044568647,-0.038111859762832274,0.9965778087696598,-0.7407667264314575
1.9080102381459818,16.68701727404413,-0.03734237283516282,0.9779250388568514,-0.7627332111016428
1.9009846134348227,16.502972748175402,-0.03661157149282854,0.9593857597613404,-0.7863732706595452
1.894094248094894,16.322440189317764,-0.03591858998010465,0.9409569650559043,-0.8115704072713184
1.887332044160601,16.145398879411808,-0.03526250406508473,0.9226357707962786,-0.8382104839276042
1.8806910842730455,15.971828637092958,-0.03464233685655188,0.9044194115074026,-0.8661814703367783
1.874164641181613,15.801709795523383,-0.03405706410589405,0.8863052365933863,-0.8953731933223479
1.8677461862838962,15.635023180866483,-0.0335056190279687,0.86829070716344,-0.9256770906750892
1.8614293972924445,15.471750091325404,-0.03298689667152216,0.8503733932689532,-0.9569859674107914
1.8552081651113213,15.31187227666761,-0.03249975786661848,0.8325509715499286,-0.9891937533769755
1.8490766000005094,15.155371918157616,-0.03204303277350636,0.8148212232921178,-1.0221952611364447
1.8430290371018558,15.002231608819411,-0.03161552405442512,0.797182032899502,-1.0558859430317253
1.8370600413964209,14.852434333948882,-0.031216009686996116,0.7796313867902631,-1.0901616463019765
1.8311644121598274,14.705963451794634,-0.030843245435038875,0.7621673727281475,-1.1249183650823662
1.8253371869794615,14.562802674322967,-0.030495966989865474,0.7447881796051894,-1.160051988064672
1.8195736453951543,14.422936047979334,-0.030172891792314638,0.7274920976962044,-1.1954580405363846
1.8138693122233032,14.286347934354211,-0.02987272054296087,0.7102775194103462,-1.2310314194431993
1.808219960623243,14.153022990656037,-0.02959413840504282,0.6931429405704326,-1.266666120035737
1.8026216149641054,14.022946149887453,-0.029335815901667728,0.6760869622567744,-1.3022549525648786
1.7970705535504026,13.896102600613453,-0.029096409505729552,0.6591082932589933,-1.3376892473804376
1.7915633112651776,13.772477766201092,-0.028874561917690666,0.642205753186903,-1.3728585466642707
1.7860966821908237,13.652057283399827,-0.02866890202287843,0.6253782763000962,-1.4076502808906506
1.780667722269612,13.534826980119387,-0.028478044516193804,0.6086249161255713,-1.4419494279532974
1.775273752068657,13.420772852247804,-0.02830058917806825,0.5919448509437222,-1.4756381527296498
1.7699123597175377,13.309881039335778,-0.028135119781081075,0.5753373902354961,-1.5085954246690234
1.7645814040911643,13.202137798954624,-0.02798020260179791,0.5588019821977054,-1.5406966107932007
1.7592790183158247,13.097529479513131,-0.027834384507039723,0.5423382224495891,-1.5718130412877995
1.7540036136827595,12.99604249129358,-0.0276961905778572,0.5259458640720119,-1.6018115446440908
1.7487538840612153,12.897663275438305,-0.02756412122787064,0.5096248291414059,-1.6305539490897327
1.743528810911871,12.802378270585194,-0.027436648765227188,0.4933752219439548,-1.6578965468323799
1.738327669011961,12.710173876812746,-0.027312213339089206,0.47719734408181147,-1.6836895174462712
1.7331500330155447,12.62103641651229,-0.027189218202134213,0.46109171171247176,-1.7077763065793663
1.72799578498641,12.534952091756097,-0.027066024209811797,0.4450590751948319,-1.7299929560775875
1.7228651230573218,12.451906937674767,-0.02694094346480159,0.4291004414507466,-1.7501673816569674
1.7177585713880799,12.371886771295035,-0.026812232000901704,0.4132170993885355,-1.7681185944669169
1.712676991616516,12.294877135219618,-0.026678081383978265,0.39741064877375853,-1.7836558633685864
1.7076215960216812,12.220863235453894,-0.026536609087969412,0.3816830329707163,-1.7965778156302512
1.7025939626476931,12.149829872600517,-0.02638584748032602,0.366036576012201,-1.8066714752007664
1.6975960526709417,12.081761365553792,-0.026223731222319024,0.35047402447962955,-1.8137112400248823
1.6926302303337573,12.016641466733407,-0.026048082853308306,0.33499859468232146,-1.8174578033852118
1.6876992858159738,11.954453267806578,-0.02585659628125238,0.3196140256001106,-1.817657029529943
1.6828064614744864,11.895179094766714,-0.025646817839669902,0.3043246379774157,-1.8140388016377762
1.6779554819534992,11.838800391178001,-0.02541612448650863,0.2891353997985138,-1.8063158715760566
1.6731505887601634,11.785297588378917,-0.025161698601237736,0.27405199808657593,-1.7941827574899918
1.6683965800199276,11.734649961494767,-0.02488049866440273,0.25908091648342985,-1.7773147592586052
1.6636988562861306,11.686835470287281,-0.02456922484924974,0.24422951727958567,-1.75536719646077
1.6590634734992737,11.641830584240079,-0.024224278170295824,0.22950612532253434,-1.7279750232495144
1.6544972045050796,11.599610091949575,-0.02384171124227634,0.2149201093143625,-1.6947530458260218
1.650007610997875,11.560146896020072,-0.023417167780930892,0.20048195310147376,-1.6552970699084086
1.6456031284388728,11.523411796479355,-0.022945806524352394,0.1862033052218572,-1.6091864497129642
1.6412931675391238,11.489373268563345,-0.022422202946691408,0.1720969886308669,-1.5559887120492508
1.6370882375059816,11.457997245013022,-0.021840218454804928,0.15817694347780842,-1.4952672076323845
1.6330000987697604,11.429246919362477,-0.021192820873840376,0.14445806337003536,-1.4265931145819695
1.629041956876288,11.403082595741985,-0.020471830636394423,0.13095586947725546,-1.3495635935560435
1.6252287155082878,11.379461623055814,-0.019667552184660934,0.1176859482719064,-1.2638284415092396
1.621577316517718,11.358338467027789,-0.018768226663440295,0.10466306254940906,-1.1691280919013634
1.6181072104537033,11.339664990830638,-0.01775920558934799,0.09189984478903147,-1.0653459417759474
1.6148410254593044,11.323391028049159,-0.01662168908853471,0.07940502659497597,-0.9525770352894892
1.6118055404998568,11.309465326419325,-0.01533078416880798,0.06718130635064438,-0.8312117384368002
1.609033129837319,11.297836888008586,-0.013852485963168792,0.055223308499245366,-0.7020251108284433
1.6065639525089912,11.288456579321906,-0.012138854335019475,0.04351678293949307,-0.5662482280131877
1.6044493896946335,11.28127854904978,-0.01011970160558849,0.032041430451309034,-0.42557790757161873
1.6027578866912346,11.27626030349419,-0.00768559316703132,0.02078220697595748,-0.28206560235398925
1.6015869202784352,11.273358514081302,-0.0046403690729615345,0.009762944738668868,-0.13783288129676532
1.6011016742558528,11.272507613850564,-0.0004674837963250947,-0.0008061002045725851,0.005322078718967449
