x,y,v_x,v_y,omega
2.375,32.48,0.0,3.0256410256410255,-7.877551020408164
2.3730582436351066,31.85236350176776,-0.018492917760886997,2.951849433713639,-7.357616894724351
2.367526136787021,31.2398811468221,-0.03419381412564591,2.8813158514830874,-6.889304826887949
2.358947210105038,30.641894391273755,-0.047510249512287106,2.8137961061201935,-6.465936216926553
2.3477862820638338,30.057793106742125,-0.05878430326108392,2.7490732703715492,-6.0818652660952095
2.3344419663655223,29.48701030258119,-0.06830441767522011,2.686953435923046,-5.7322942378883015
2.3192569469339834,28.929017647921096,-0.07631481500610038,2.6272623227445258,-5.413126348592801
2.3025264709951965,28.383321638483196,-0.08302305107758645,2.5698425290450144,-5.120847648121833
2.2845054078531115,27.84946028876923,-0.08860612170417481,2.514551277754667,-4.852431466242533
2.265414144553695,27.32700025664011,-0.09321543352836012,2.4612585520464685,-4.605260586731319
2.2454435320920014,26.815534327097485,-0.09698087563063025,2.409845538835653,-4.377063466270344
2.224759051959731,26.314679197078583,-0.10001417324813561,2.360203318487247,-4.165861665191587
2.2035043390305318,25.824073514551937,-0.10241166417280738,2.312231753195064,-3.969926291005147
2.1818041704716555,25.34337613407093,-0.10425660781649065,2.265838537100236,-3.7877417332679255
2.1597670097097996,24.872264557860042,-0.10562111372499214,2.2209383791939534,-3.617975331843212
2.1374871781227185,24.410433536953825,-0.10656775853292513,2.17745229610337,-3.459451899766336
2.115046714085357,23.95759381123098,-0.10715094658480129,2.135306996495157,-3.311132238127794
2.0925169685300333,23.513470970645905,-0.10741805870399777,2.094434342410325,-3.172094949107509
2.069959977726281,23.077804422751672,-0.10741042514126217,2.054770875629969,-3.041520985903275
2.047429647122085,22.650346453878008,-0.1071641520415563,2.016257399357327,-2.91868048320793
2.0249727744872903,22.2308613731864,-0.10671082543267767,1.9788386072294153,-2.8029214953947643
2.0026299360084803,21.819124730357327,-0.1060781124607523,1.942462753047448,-2.693660336413877
1.9804362552045272,21.41492259893687,-0.10529027614832576,1.9070813557187978,-2.590373269191197
1.9584220714075886,21.01805091843299,-0.10436861715585062,1.8726489347943553,-2.4925893358202558
1.93661352196224,20.62831488914508,-0.10333185375223164,1.839122772709531,-2.3998841551765904
1.9150330501375432,20.24552841446546,-0.10219644934011761,1.8064627004297056,-2.311874543421486
1.893699848944559,19.86951358603303,-0.10097689535497324,1.77463090368868,-2.228213836489245
1.8726302495418705,19.50010020766741,-0.09968595609920107,1.7435917474124802,-2.1485878130868223
1.85183806164302,19.137125354482105,-0.09833488103270946,1.7133116162570845,-2.072711132779652
1.8313348722708171,18.78043296398075,-0.09693358917874575,1.6837587694700797,-2.0003242170306024
1.8111303083005117,18.429873456291475,-0.09549082958606686,1.6549032085230557,-1.931190512109076
1.7912322674690757,18.085303380999566,-0.09401432118951515,1.6267165561617716,-1.8650940820022457
1.7716471218786527,17.746585088305,-0.09251087490975236,1.5991719456912283,-1.8018374871685199
1.7523798974698455,17.41358642246434,-0.09098650041222052,1.5722439194579108,-1.7412399114399681
1.7334344324694577,17.086180435681598,-0.08944649959147234,1.545908335615838,-1.6831355048207999
1.7148135174147585,16.764245120793078,-0.0878955485485201,1.5201422823700563,-1.6273719145184182
1.6965190190116297,16.447663161250944,-0.08633776957651608,1.494923998983618,-1.5738089804252489
1.6785776704006365,16.136327907028495,-0.08453221719484662,1.470173660277795,-1.5154115088942028
1.6610129830994116,15.830136540010418,-0.08275051900729767,1.445934597037225,-1.4597890903339712
1.643819782032703,15.528983688609248,-0.080994253056593,1.4221877972596197,-1.406775989705125
1.6269925914994268,15.232767877531405,-0.07926470440318134,1.3989151653864966,-1.3562182566292735
1.6105256928702685,14.941391341186748,-0.07756290158880101,1.3760994664673838,-1.3079727543034394
1.5944131750850188,14.654759848394097,-0.07588964874690915,1.3537242744150009,-1.2619062791402131
1.5786489788077627,14.372782537560617,-0.07424555389362565,1.3317739239990833,-1.2178947616742817
1.563226934993187,14.095371761583255,-0.07263105386423825,1.3102334662615196,-1.1758225403631792
1.5481407985258344,13.822442941783812,-0.07104643630102578,1.2890886270665207,-1.1355817008609126
1.5333842775143083,13.55391443024648,-0.06949185904684292,1.2683257685271376,-1.0970714741760228
1.5189510587526738,13.28970737997836,-0.06796736725443649,1.247931853074011,-1.060197687856498
1.504834829800257,13.029745622360402,-0.06647290848286695,1.2278944099541613,-1.0248722649862991
1.4910292980775746,12.773955551398657,-0.06500834601886979,1.208201503967212,-0.9910127663437117
1.4775282073292533,12.52226601432438,-0.0635734706318086,1.1888417062639873,-0.9585419715702611
1.4643253517636412,12.274608208126605,-0.06216801094545066,1.1698040670481438,-0.9273874956391082
1.4514145881426685,12.030915581632808,-0.06079164258762299,1.1510780900356294,-0.8974814373010727
1.438789846063726,11.791123742782421,-0.059443996259446796,1.13265370853947,-0.8687600565310978
1.426445136647347,11.5551703707646,-0.05812466484892451,1.114521263058829,-0.8411634783035988
1.4143745598198314,11.322995132715953,-0.05683320969884386,1.0966714802616264,-0.8146354202965167
1.4025723103582237,11.094539604696251,-0.05556916612598996,1.0790954532593213,-0.7891229423651841
1.3910326828458803,10.869747196680525,-0.054332048277280005,1.0617846230809238,-0.7645762158419201
1.3797500756699288,10.648563081324628,-0.053121353398449665,1.0447307612609356,-0.7409483109087394
1.3687189941769662,10.430934126278629,-0.05193656558214679,1.0279259534628689,-0.7181950004614505
1.3579340530901107,10.216808829838069,-0.050777159054572786,1.011362584066286,-0.6962745790361141
1.3473899782788135,10.006137259737748,-0.049642601053020895,0.9950333216510389,-0.6751476955054299
1.337091647411217,9.799017680861596,-0.04843674054313401,0.9775340962170748,-0.6828594545232098
1.3270415364518429,9.595560270373678,-0.0472786019270979,0.9601555274773839,-0.692774913141496
1.3172297070673882,9.395740053470899,-0.04616739221056633,0.9428941573109918,-0.7047687216007553
1.307646395203082,9.199532766606719,-0.045102244592350106,0.9257466699669215,-0.7187192549903815
1.2982820257797805,9.00691482825074,-0.04408222610575789,0.9087098858043223,-0.734508327815056
1.2891272258546729,8.817863310910788,-0.043106344609553524,0.8917807555285423,-0.7520209192949806
1.2801728363771159,8.632355914315863,-0.0421735551767029,0.8749563548993314,-0.7711449082301504
1.2714099226614295,8.450370939662943,-0.04128276592507117,0.8582338798903902,-0.7917708163062124
1.2628297836895956,8.271887264834799,-0.04043284333048871,0.841610642282389,-0.8137915587587965
1.2544239603486886,8.096884320499335,-0.03962261705910272,0.8250840656744188,-0.837102201344818
1.246184242700455,7.92534206700385,-0.03885088435264494,0.8086516819016216,-0.8615997225933327
1.2381026763737266,7.757240971979982,-0.03811641399714841,0.7923111278495114,-0.8871827803252091
1.2301715681642411,7.592561988576666,-0.03741794990271443,0.7760601426582788,-0.9137514814402201
1.2223834909209463,7.431286534239661,-0.03675421431914139,0.7598965653131922,-0.9412071539721293
1.214731287792933,7.2733964699566656,-0.03612391070955741,0.7438183326201097,-0.9694521204068681
1.2072080759067587,7.118874079886901,-0.03552572630162738,0.727823477568134,-0.9983894712458007
1.1998072495400798,6.967702051293362,-0.0349583343334095,0.7119101280846118,-1.0279228377751253
1.1925224828541798,6.819863454694417,-0.03442039600849536,0.6960765061910478,-1.0579561629733667
1.1853477322451587,6.675341724149284,-0.033910562172658795,0.680320927572124,-1.0883934694512933
1.1782772383712363,6.5341206375889485,-0.033427474721838914,0.6646418015739283,-1.1191386232720328
1.171305527911812,6.396184297100248,-0.03296976774886882,0.6490376316517743,-1.1500950924431579
1.1644274151126206,6.261517109066077,-0.03253606843390811,0.6335070162927048,-1.181165698806545
1.1576380031705533,6.1301037640588305,-0.032124997681018355,0.618048650442977,-1.212252361975306
1.150932685511472,6.00192921637727,-0.03173517050070787,0.6026613274766348,-1.24325583387948
1.1443071470146666,5.876978663108709,-0.03136519613553492,0.5873439417477633,-1.2740754223829165
1.1377573652385242,5.755237522588679,-0.03101367792296346,0.5720954917763108,-1.3046087023223898
1.1312796117035224,5.6366914121189815,-0.030679212886576573,0.5569150841255796,-1.3347512121961698
1.1248704532908718,5.521326124791727,-0.03036039104342896,0.5418019380387606,-1.364396134592948
1.1185267538180814,5.409127605251857,-0.03005579441171642,0.5267553909123814,-1.3934339583035362
1.1122456758564556,5.3000819242129324,-0.029763995699006503,0.5117749046964123,-1.421752119898052
1.10602468286013,5.194175251520765,-0.029483556646952423,0.49686007332422755,-1.4492346223822568
1.099861541681818,5.091393827536184,-0.02921302600363655,0.48201063129082683,-1.4757616283714612
1.093754325557051,4.991723932581582,-0.028950937089382983,0.46722646351489694,-1.5012090250440557
1.087701417646491,4.895151854165359,-0.028695804915951122,0.45250761663962064,-1.5254479579670002
1.0817015152350178,4.801663851663577,-0.0284461228123652,0.437854311948781,-1.548344330734145
1.0757536346968921,4.7112461180985825,-0.02820035850311653,0.4232669600987776,-1.5697582672420913
1.0698571173485922,4.623884738609377,-0.027956949575929754,0.4087461778936649,-1.589543533372133
1.064011636325137,4.53956564515784,-0.027714298266499588,0.39429280735907724,-1.6075469148861992
1.0582172046321432,4.458274566957982,-0.02747076547629983,0.3799079374014597,-1.6236075485304235
1.0524741845448637,4.3799969760519275,-0.02722466392636209,0.3655929283704789,-1.637556203744344
1.0467832985474954,4.304718027386336,-0.026974250334289254,0.3513494398732431,-1.649214513099562
1.0411456420316847,4.232422492666927,-0.026717716482954647,0.33717946221635964,-1.6583941507848328
1.0355626980032187,4.163094687187687,-0.02645317902624474,0.32308535187162746,-1.6648959603219415
1.0300363540814017,4.0967183887476715,-0.026178667848201605,0.3090698713666193,-1.668509035531948
1.0245689221181122,4.033276747686042,-0.02589211275455454,0.2951362339822423,-1.6690097629914034
1.0191631608151388,3.972752186992018,-0.025591328226143916,0.28128815357987375,-1.6661608404153652
1.0138223017822785,3.91512629139163,-0.02527399589633491,0.26752989975714875,-1.659710294420911
1.0085500795595475,3.8603796842947453,-0.0249376443201522,0.25386635830842014,-1.6493905341595827
1.003350766231861,3.8084918915303625,-0.024579625467336434,0.2403030965904771,-1.6349174960631356
0.9982292114046909,3.7594411909455943,-0.024197087172378617,0.22684643278826216,-1.6159899618406628
0.9931908885015941,3.7132044472547214,-0.02378694047616302,0.21350350712480612,-1.5922891703108
0.9882419486159748,3.6697569320887133,-0.023345820339259617,0.20028235159909444,-1.5634788984367363
0.9833892835423061,3.629072130144664,-0.022870037505203493,0.18719195262996,-1.5292062646753721
0.9786406001934975,3.5911215338592157,-0.022355518197736297,0.1742422977076547,-1.4891036174079806
0.9740045094880183,3.5558744314004933,-0.02179772661635203,0.16144439237540148,-1.4427920244215182
0.9694906341329657,3.5232976963607356,-0.02119156247938661,0.14881022705085592,-1.389887090192258
0.9651097418078907,3.493355592821171,-0.020531221568947176,0.13635266380212796,-1.3300081104810753
0.9608739134962054,3.4660096170279715,-0.019810000447101805,0.12408520089501943,-1.2627919369351204
0.9567967617851336,3.441218407315617,-0.019020015848819412,0.1120215582702489,-1.18791335479906
0.9528937218927833,3.4189377673407257,-0.018151792649753896,0.10017501291918614,-1.1051142046402176
0.9491824505438868,3.3991208632044128,-0.017193648768307788,0.08855740742666633,-1.0142437070203858
0.9456833869361465,3.381718668911528,-0.016130766543505887,0.07717777631507707,-0.9153120259633465
0.9424205594612001,3.3666807372160363,-0.014943780836937192,0.06604062078485558,-0.8085571436543213
0.9394227676128819,3.353956343729905,-0.01360661771847438,0.055144079083072464,-0.694520150787863
0.9367253441020822,3.3434959534765767,-0.012083130003427686,0.04447868523433346,-0.5741143574367616
0.9343728482751941,3.3352527294519767,-0.010321592157412282,0.034028210238037884,-0.4486588543882478
0.9324234075828421,3.3291833389499743,-0.008244509674511666,0.023775508828663403,-0.3198319420328486
0.9309566500759032,3.3252463066143285,-0.005724609439192424,0.013720037225106787,-0.18949634837550114
0.9300930823110003,3.323392543642292,-0.0024998454646441397,0.0039348482228559935,-0.05937540705403882
