x,y,v_x,v_y,omega
2.375,32.48,0.0,2.564102564102564,-8.0
2.373376690833664,31.947416498103095,-0.015460087298440244,2.5081212634869616,-7.543644606498161
2.3687213895357186,31.426363446733514,-0.02887611553913202,2.4542887495566688,-7.125983756949408
2.361436055191111,30.916404950058798,-0.04050802107617727,2.4024588378216043,-6.7426743618838625
2.351871922024986,30.417134226982153,-0.050578961458347185,2.3525004295750125,-6.38996349156355
2.340336597894953,29.928170670736147,-0.059281268351492916,2.3042953441964675,-6.064594453007718
2.3271000292484176,29.449157322453097,-0.06678129018693789,2.2577365442135235,-5.763730101757624
2.312399540715473,28.97975868497305,-0.07322336250777356,2.2127266698821764,-5.484889784814281
2.2964441136152307,28.519658818558877,-0.0787330860659615,2.169176819776598,-5.225897159060875
2.2794180342730863,28.06855967198948,-0.08342005052588976,2.127005528503385,-4.98483675596496
2.261484017366969,27.626179611618795,-0.08738011048475058,2.086137903598369,-4.7600176316971154
2.24278588955481,27.19225211808895,-0.09069729725010266,2.046504891923992,-4.549942795737059
2.223450902959489,26.766524625958894,-0.09344543222913919,2.008042652171751,-4.353283381215966
2.203591735668552,26.348757485916778,-0.09568949435121239,1.9706920148960287,-4.168856728420102
2.1833082264856216,25.93872303275339,-0.09748678358145908,1.9343980152314748,-3.9956077146813884
2.16268888318571,25.536204745087826,-0.09888791451293816,1.8991094863453217,-3.8325927906543873
2.1418121970548762,25.140996485107102,-0.09993766768547982,1.8647787039472798,-3.6789662830567926
2.1207477912156083,24.75290180842574,-0.1006757212599267,1.8313610739704673,-3.5339686035069766
2.0995574259077388,24.371733335678286,-0.10113728167216753,1.7988148569576394,-3.3969160667480987
2.078295880321301,23.997312178696525,-0.10135362867485566,1.7671009238210333,-3.267192072791599
2.0570117276151274,23.62946741514709,-0.10135258757441706,1.7361825385545702,-3.1442394489983156
2.035748017287397,23.268035606356577,-0.10115893935634768,1.7060251642122073,-3.0275537818794773
2.014542877000397,22.91286035376269,-0.10079477766270578,1.6765962890629267,-2.9166775960161915
1.993430044228526,22.5637918900275,-0.1002798201646335,1.6478652703198184,-2.8111952601894425
1.9724393366378132,22.2206867013537,-0.09963168069929916,1.6198031932401977,-2.7107285195422706
1.9515970688698063,21.883407177972558,-0.09886610756743137,1.5923827437230589,-2.6149325681177813
1.930926422354625,21.551821290137315,-0.09799719257715414,1.5655780928030425,-2.5234925890302264
1.9104477738860783,21.225802287267932,-0.09703755474233672,1.5393647916672575,-2.4361207003093996
1.8901789879307254,20.905228418161688,-0.09599850197531254,1.513719676011273,-2.352553253493738
1.8701356769915978,20.589982670415935,-0.09489017363542668,1.488620778710188,-2.2725484396430957
1.8503606448696144,20.279962402812725,-0.09344346562155698,1.4639531984632201,-2.188279034997971
1.8308917031614118,19.975068646955386,-0.09197502683751488,1.4397968573209605,-2.108016878370011
1.8117328330457134,19.675196060207398,-0.09049040283580465,1.4161325402789244,-2.0315223393680437
1.7928869184362122,19.380243235861844,-0.08899449820706377,1.3929419772977751,-1.9585728599075938
1.7743558733460125,19.090112510939644,-0.0874916455091234,1.370207783866028,-1.8889615429417288
1.756140755577756,18.804709785990706,-0.08598566656951047,1.3479134061238631,-1.822495873718623
1.7382418682473215,18.52394435598401,-0.08447992705367598,1.3260430701303838,-1.7589965596365178
1.7206588504733116,18.247728751455675,-0.08297738507975005,1.3045817349013655,-1.6982964763873007
1.7033907584107095,17.975978589158238,-0.08148063456408089,1.2835150488837535,-1.6402397094935137
1.6864361376721848,17.70861243152084,-0.07999194389805707,1.262829309567649,-1.5846806815790668
1.669793088062077,17.445551654289712,-0.07851329048392369,1.2425114259669245,-1.5314833567957449
1.653459321443901,17.186720321771908,-0.07704639159394046,1.2225488837264522,-1.4805205147765619
1.6374322134705288,16.93204506915367,-0.07559273196198785,1.202929712637718,-1.431673087320922
1.6217088498253283,16.681454991408312,-0.07415358846849146,1.183642456365687,-1.3848295517505684
1.6062860675512143,16.43488153834802,-0.07273005223735589,1.1646761442085474,-1.3398853755224565
1.5911604919814921,16.19225841540961,-0.07132304842666534,1.1460202647286826,-1.2967425072561782
1.5763285697306273,15.953521489796746,-0.06993335396252416,1.1276647411081375,-1.2553089098389874
1.5617865981536796,15.718608701630394,-0.0685616134369782,1.1095999080951937,-1.2154981317191556
1.5475307516393704,15.487459979786234,-0.0672083533659655,1.0918164904206287,-1.1772289128954854
1.5335571050629129,15.260017162121908,-0.06587399498124845,1.0743055825729622,-1.1404248224635356
1.5198616546902375,15.036223919819424,-0.0645588657108983,1.057058629831644,-1.1050139248928579
1.5064403367945833,14.81602568558819,-0.06326320948580705,1.0400674104658263,-1.0709284724889865
1.4932890442191402,14.599369585492788,-0.061987195994603866,1.0233240190141968,-1.0381046217431336
1.4804036410951262,14.386204374186612,-0.06073092899600794,1.0068208505684273,-1.0064821714950762
1.467779975903032,14.17648037334806,-0.059494453785839285,0.9905505859891953,-0.9760043210336768
1.4554253219813007,13.970307737186872,-0.05816891689731808,0.9729983298316351,-0.9766518377150408
1.443344278081268,13.767808014027828,-0.056888644055372625,0.9555704621592581,-0.9796794964671229
1.4315274006857384,13.568955462415751,-0.055653045425862684,0.9382633627176528,-0.9849533978253638
1.4199653795656777,13.373725085025562,-0.0544614414318574,0.9210735648079398,-0.9923437208514871
1.4086490557202307,13.182092597133941,-0.05331307138192466,0.9039977484455938,-1.0017244144040371
1.3975694375795658,12.994034396470404,-0.05220710138631095,0.8870327340642931,-1.0129729005524755
1.3867177156146149,12.80952753433617,-0.05114263161322279,0.8701754767379304,-1.0259697888519141
1.3760852754872457,12.628549687884473,-0.050118702933150294,0.8534230608972637,-1.0405986002526175
1.3656637098647693,12.451079133460563,-0.049134302995195986,0.8367726955209059,-1.056745499466621
1.3554448290138297,12.277094720903605,-0.0481883717756581,0.8202217097834651,-1.074299034653593
1.3454206702806437,12.106575848715938,-0.047279806635637356,0.8037675491466931,-1.0931498833197122
1.3355835065571795,11.939502440007871,-0.046407466921164583,0.787407771882509,-1.1131906033470778
1.3259258538261502,11.775854919128133,-0.045570178136257716,0.771140046019769,-1.1343153880871666
1.3164404778716225,11.615614188891538,-0.04476673571638695,0.7549621467096924,-1.156419824460176
1.3071204002365633,11.458761608316184,-0.0439959084270336,0.7388719540079525,-1.1794006530027545
1.297958903503743,11.30527897078251,-0.04325644140934878,0.7228674510746522,-1.2031555287995654
1.2889495359720666,11.155148482526013,-0.04254705889233094,0.7069467227967516,-1.2275827822192347
1.2800861157965873,11.008352741374043,-0.04186646658842495,0.6911079548410554,-1.2525811783523215
1.27136273465717,10.864874715635018,-0.041213353786977394,0.6753494331496454,-1.2780496740178038
1.2627737610179957,10.724697723045466,-0.04058639515754199,0.6596695438937065,-1.3038871711649058
1.2543138430378316,10.587805409676484,-0.039984252272592065,0.6440667739061092,-1.3299922654486356
1.2459779111892517,10.454181728696458,-0.03940557485674025,0.6285397116179358,-1.35626298869982
1.237761180643752,10.323810918880984,-0.038849001767064906,0.6130870485294491,-1.3825965439434482
1.2296591534790202,10.196677482753945,-0.03831316170657097,0.5977075812518812,-1.4088890315425031
1.2216676207644652,10.072766164235386,-0.03779667367014245,0.5824002141629483,-1.435035164958053
1.2137826645815482,9.952061925662015,-0.03729814711954365,0.5671639627262895,-1.4609279745202013
1.2060006600364845,9.834549924034771,-0.036816181881062816,0.5519979575331789,-1.4864584974988624
1.1983182773245689,9.720215486334716,-0.03634936775622855,0.5369014491339972,-1.5115154526489565
1.1907324839077393,9.609044083733242,-0.03589628383262373,0.5218738137372035,-1.5359848972827743
1.1832405468701104,9.501021304505006,-0.03545549747812774,0.5069145598650472,-1.5597498647951284
1.1758400355201295,9.39613282543202,-0.03502556299788074,0.4920233360681507,-1.5826899804378447
1.1685288243128258,9.294364381464234,-0.03460501992882095,0.4771999398155108,-1.6046810530142386
1.1613050961714186,9.195701733375891,-0.034192390941723494,0.46244432769252275,-1.6255946400489751
1.1541673462944442,9.100130633127147,-0.03378617931517609,0.447756627057424,-1.6452975838949746
1.1471143865426765,9.007636786606877,-0.0333848659397532,0.43313714932610314,-1.6636515161823606
1.1401453505096188,8.918205813394607,-0.03298690580365388,0.4185864050764575,-1.6805123280169314
1.133259699390413,8.83182320313703,-0.032590723903069475,0.404105121186167,-1.6957296034284304
1.126457228776904,8.748474268087136,-0.03219471051130142,0.38969426024140214,-1.7091460137958348
1.1197380765215852,8.668144091301627,-0.03179721572982952,0.3753550424777166,-1.720596671399408
1.113102731830627,8.59081746993511,-0.03139654323167736,0.36108897053673067,-1.7299084409534207
1.1065520457666531,8.516478853007964,-0.030990943091883476,0.34689785734085155,-1.7368992090796114
1.1000872433660296,8.44511227296022,-0.030578603580722397,0.33278385739956073,-1.7413771133580935
1.0937099376040835,8.376701270238055,-0.0301576417711441,0.3187495018591632,-1.7431397350752451
1.0874221454761446,8.311228810096424,-0.029726092780654523,0.30479773758496004,-1.741973263407363
1.0812263065043994,8.248677190746658,-0.029281897426442282,0.29093197050805575,-1.7376516439972742
1.0751253040329158,8.189027941940523,-0.02882288801625936,0.277156113359902,-1.7299357323475322
1.069122489739695,8.132261713076193,-0.028346771919177394,0.26347463772894225,-1.7185724830781
1.0632217118810614,8.07835814995778,-0.027851112448760016,0.2498926300654678,-1.7032942211530961
1.0574273478988745,8.027295759469517,-0.027333306429210502,0.23641585077513794,-1.683818062451811
1.0517443421783377,7.97905176168463,-0.02679055757590303,0.22305079479522805,-1.6598455810229185
1.04617824996419,7.933601929384324,-0.026219844463597555,0.20980475092197334,-1.63106286244066
1.0407352887576253,7.890920415711442,-0.02561788131320925,0.1966858554864209,-1.5971411415424008
1.035422398974847,7.850979571864354,-0.02498106899896579,0.18370313353344936,-1.5577383046872921
1.0302473163277122,7.813749758542901,-0.02430543240231825,0.1708665171470681,-1.5125016495232388
1.025218659407284,7.779199157552142,-0.023586538268425612,0.15818682562207373,-1.461072448669493
1.020346037498578,7.747293593892216,-0.02281938467163161,0.14567568542484166,-1.4030930676927929
1.0156401860173074,7.717996384221891,-0.021998248483326804,0.13334535905444736,-1.338217649015707
1.0111131405781517,7.6912682351923785,-0.02111646998482245,0.12120844122660818,-1.266127686596419
1.0067784662455768,7.667067225041507,-0.020166142706367223,0.10927736973406624,-1.186554144586867
1.002651566971781,7.645348913642561,-0.019137659901211645,0.09756369120826391,-1.099308009837293
0.9987501130339622,7.626066638030757,-0.018019044268492178,0.08607702890414044,-1.0043210661033366
0.9950946435456312,7.609172057175638,-0.016794950858469958,0.07482374114460542,-0.9016977422858489
0.9917094300991722,7.594616000252909,-0.015445177203043923,0.06380537240517335,-0.7917762618270584
0.988623732502051,7.582349625703582,-0.013942418960014472,0.05301724235031041,-0.6751918257295408
0.9858736543303068,7.572325778631686,-0.012248801723264802,0.04244796785820948,-0.5529252958326918
0.9835049662005286,7.564500187335007,-0.010310132846051886,0.03208147306254276,-0.4263089387523009
0.981577698823376,7.558831662843808,-0.008044794555402822,0.021904474472691084,-0.29695194632794275
0.9801748503776371,7.555279352838422,-0.005315666832586656,0.01192704938813,-0.16655260157387902
0.9794256557387497,7.5537902551637295,-0.0018195202044356549,0.0022548332279945012,-0.03660351052401142
