x,y,v_x,v_y,omega
2.375,32.48,0.0,2.2564102564102564,-5.3061224489795915
2.374159398805744,32.03310056256486,-0.008406011942559886,2.21258411794109,-5.046002284274121
2.3717356418324034,31.59483075282518,-0.01583155779084506,2.1701139794557007,-4.804337443176285
2.367914121847184,31.16492669544565,-0.02238364206135013,2.12892659433964,-4.579381047473716
2.362860110251128,30.743138588379107,-0.028156473899206353,2.0889544763257923,-4.369585928684177
2.3567211441504208,30.329229613826126,-0.033233187107869544,2.0501352692040116,-4.173578124307108
2.349629095562364,29.922974966311553,-0.03768729877269949,2.0124112059417,-3.990134386768667
2.341701970538745,29.524160981527356,-0.04158395146349159,1.9757286419002935,-3.8181630190823603
2.333045477866586,29.132584352354126,-0.04498097525809553,1.9400376498320004,-3.656687482571124
2.32375440044175,28.74805142070177,-0.04792979899026235,1.9052916666915447,-3.5048323254109217
2.3139137970696275,28.3703775356175,-0.05047623473096664,1.8714471841511804,-3.3618110627805744
2.3036000580739873,27.999386469584604,-0.05266115522543591,1.838463476177778,-3.226915704901153
2.2928818344938167,27.634909886146396,-0.05452108057626942,1.8063023582043043,-3.0995076818804534
2.2818208576664616,27.276786852988987,-0.056088687697279524,1.7749279733697616,-2.979009956821155
2.270472663514756,26.924863395445858,-0.057393253819780214,1.744306602061543,-2.8649001532292964
2.2588872337824255,26.57899208607865,-0.05846104350352078,1.7144064916105188,-2.7567045510096433
2.2471095647216726,26.23903166656843,-0.05931564710400832,1.6851977034916905,-2.653992828526772
2.2351801722701565,25.904846698639762,-0.0599782774111549,1.6566519757949747,-2.5563734473377124
2.223135541514053,25.576307241153298,-0.0604680301498799,1.6287425990696638,-2.4634895920442847
2.2110085271809403,25.253288550853682,-0.060802113181244455,1.6014443039265054,-2.3750155908880517
2.1988287110097153,24.9356708045596,-0.06099604853100731,1.5747331590143407,-2.2906537537091602
2.1866227210790385,24.623338840839892,-0.061063850775757655,1.5485864781827265,-2.2101315731050137
2.1744145175200003,24.31618191944112,-0.06101818481462813,1.5229827358049932,-2.1331992423713815
2.162225648475477,24.014093496923273,-0.06087050563059976,1.4979014893734424,-2.0596274503422247
2.1500887123536603,23.7169764328876,-0.060498855587569886,1.473269150983296,-1.9851822585647394
2.1380322549689033,23.424737110344054,-0.06006571826000266,1.4491240744521767,-1.9141716384655356
2.1260678623858693,23.137279849587408,-0.059578207570335266,1.425448533114248,-1.8463960302992006
2.1142057670270917,22.85451243248489,-0.05904274601744214,1.402225637910941,-1.7816696797025144
2.1024549791507363,22.576345940019618,-0.058465132746108775,1.379439286741788,-1.7198195291754979
2.0908234054244366,22.302694599590527,-0.05785060451688991,1.357074117549115,-1.6606842107208473
2.079317955935662,22.033475641354848,-0.05720389037085895,1.3351154648076826,-1.6041131293014508
2.067944640829781,21.768609162961653,-0.056529260687948085,1.3135493191242893,-1.5499656279468106
2.056708657635562,21.508018002080995,-0.05583057125424149,1.2923622896822757,-1.4981102263645594
2.045614470222042,21.25162761618354,-0.055111302880963005,1.2715415692922833,-1.4484239258126717
2.0346658802284945,20.999365969070908,-0.05437459705450862,1.251074901834014,-1.4007915737783032
2.023866091718899,20.75116342369806,-0.05362328804144776,1.2309505518944934,-1.3551052827048986
2.0132177697323663,20.506952640865933,-0.05285993182387887,1.2111572764267977,-1.3112638976226214
2.002723093330183,20.266668483396288,-0.052086832197953285,1.1916842982696405,-1.2691725080789045
1.9923838036772887,20.030247925431034,-0.05130606433098936,1.1725212813829033,-1.2287420002451106
1.9822012476402189,19.79762996652601,-0.050519496039708886,1.153658307667317,-1.1898886454998037
1.972176417333932,19.56875555023445,-0.049728807023160224,1.135085855248267,-1.1525337221657446
1.9623099860057815,19.3435674868982,-0.04893550625834454,1.1167947781142562,-1.1166031674123424
1.9526023406055468,19.122010380385767,-0.04814094774400226,1.0987762870100561,-1.0820272566329827
1.9430536113553396,18.904030558535446,-0.04734634475807165,1.081021931493126,-1.0487403078718762
1.9336636986018647,18.689576007079175,-0.046552782776676585,1.0635235830695944,-1.0166804091116604
1.9244322972055115,18.47859630683891,-0.04576123118685546,1.046273419333072,-0.9857891664443063
1.9153589186956896,18.271042574002017,-0.044972553911363504,1.0292639090358648,-0.9560114713368737
1.906442911399398,18.06686740329564,-0.04418751905155358,1.0124877980278741,-0.9272952853728744
1.8976834787299044,17.866024813892487,-0.04340680764338165,0.9959380960036541,-0.8995914410017026
1.889085802650468,17.668657600893248,-0.04256995315098113,0.9777340339887189,-0.9099340317493088
1.880652163806006,17.474919156390555,-0.0417664352936388,0.9596504110381977,-0.9223305102362696
1.8723759269113116,17.28478572827177,-0.04099593365330724,0.9416838701496719,-0.9366552143612524
1.8642505302768193,17.098234221923974,-0.04025803269161486,0.9238311933282902,-0.9527856704079024
1.8562695039956134,16.91524217297415,-0.0395522301204434,0.9060892961699728,-0.9706023163025244
1.8484264865242683,16.73578772106496,-0.0388779445930097,0.888455222921915,-0.9899882327470535
1.8407152397886912,16.559849584572397,-0.03823452276275999,0.8709261420037346,-1.0108288811147657
1.8331296629370828,16.38740703617446,-0.037621245753324505,0.8534993419756218,-1.033011847020686
1.8256638048538538,16.21843987918261,-0.03703733507896674,0.8361722279428491,-1.0564265884954895
1.8183118755408207,16.052928424549425,-0.03648195805136402,0.8189423183890004,-1.080964187700887
1.8110682564651697,15.890853468467192,-0.03595423270514691,0.8018072424333345,-1.1065171051260305
1.8039275099675174,15.732196270472777,-0.03545323227137611,0.7847647375108295,-1.132978935198267
1.7968843878178777,15.576938531974022,-0.034977989225020656,0.7678126474767158,-1.160244162227423
1.7899338390024262,15.42506237511228,-0.03452749892949475,0.7509489211407205,-1.1882079155805003
1.783071016819638,15.276550321874218,-0.03410072289838644,0.7341716112398824,-1.216765722952885
1.776291285360635,15.13138527336396,-0.03369659169164377,0.7174788738626859,-1.2458132605625536
1.769590225445406,14.989550489143543,-0.03331400746064718,0.7008689683414764,-1.2752460990448675
1.7629636400839648,14.851029566545925,-0.03295184615376352,0.6843402576347092,-1.304959443766906
1.7564075595294764,14.715806419859891,-0.032608959391119054,0.6678912092256369,-1.334847868211387
1.7499182459889229,14.583865259280365,-0.03228417601441734,0.6515203965696157,-1.3648050390005164
1.743492198056018,14.455190569510563,-0.03197630331463092,0.6352265011284189,-1.394723431039093
1.737126154930827,14.329767087894034,-0.031684127937280177,0.619008315036878,-1.4244940311533754
1.7308171004909247,14.207579781944851,-0.03140641646174203,0.6028647444549412,-1.4540060284872773
1.7245622672799938,14.088613826132658,-0.031141915647565493,0.5867948136669836,-1.483146489790202
1.7183591404815308,13.972854577765954,-0.030889352337066404,0.570797670000052,-1.5118000175914512
1.712205461947876,13.860287551801562,-0.03064743299948145,0.5548725896438511,-1.5398483891053016
1.7060992343581651,13.750898394390394,-0.030414842897626193,0.5390189844678376,-1.5671701735499177
1.7000387255830764,13.644672854949114,-0.030190244853261623,0.5232364099449703,-1.593640325394755
1.6940224733395346,13.541596756523852,-0.029972277582156412,0.5075245743076627,-1.619129750878991
1.6880492902249133,13.441655964185138,-0.02975955356405445,0.4918833490794742,-1.6435048449740288
1.682118269227876,13.344836351162567,-0.02955065640632058,0.47631278114624487,-1.6666269958055957
1.6762287898219617,13.251123762392659,-0.029344137652822712,0.4608131065528437,-1.688352053419127
1.6703805247585324,13.160503975113723,-0.029138512981469314,0.4453847662365278,-1.708529759685956
1.6645734476879281,13.072962656096568,-0.028932257724572866,0.43002842393502544,-1.7270031361359874
1.6588078417519094,12.98848531504941,-0.02872380163561358,0.4147449865365687,-1.7436078266059403
1.6530843093069767,12.907057253678794,-0.02851152281371602,0.3995356271695864,-1.7581713918690882
1.6474037829573258,12.828663509825788,-0.028293740682791294,0.38440181136047075,-1.7705125539450868
1.6417675380985233,12.753288796028063,-0.028068707905233598,0.36934532661678277,-1.7804403886935347
1.6361772071990575,12.680917431784657,-0.027834601089424954,0.35436831581727324,-1.7877534667370982
1.630634796077632,12.611533268722518,-0.027589510124829623,0.3394733148041345,-1.792238944972137
1.6251427024705223,12.545119607785185,-0.02733142594626738,0.32466329456917864,-1.7936716142360063
1.6197037372271752,12.48165910748904,-0.027058226487203647,0.3099417083922863,-1.7918129135762684
1.6143211485258298,12.421133682228856,-0.026767660526249223,0.2953125442095568,-1.786409928667407
1.6089986495677213,12.363524389574575,-0.026457329054836463,0.2807803823332604,-1.7771944021794668
1.6037404502935546,12.30881130550365,-0.026124663686829846,0.2663504583760102,-1.7638817986437207
1.5985512937772377,12.256973386587195,-0.025766901476339667,0.2520287307885377,-1.7461704874557111
1.5934364981013482,12.207988318336582,-0.02538105528255628,0.237821951717584,-1.7237411377487393
1.588402004725158,12.161832349284612,-0.02496387847934852,0.2237377388021317,-1.6962564616715134
1.5834544346484152,12.118480111017142,-0.024511822288077204,0.20978464387255882,-1.6633615032727171
1.5786011540984348,12.077904425425345,-0.024020983211726098,0.19597221204542048,-1.6246847557969413
1.573850352096934,12.040076102113623,-0.0234870368032822,0.18231102107180644,-1.5798405101427113
1.5692111332115037,12.004963731451117,-0.022905152051019985,0.16881268555326642,-1.528433003480549
1.5646936302467664,11.972533482569677,-0.022269877596353422,0.15548980326112588,-1.470063163432802
1.5603091438700063,11.942748921164615,-0.02157498617125021,0.14235581078949458,-1.4043390426929256
1.5560703196472978,11.915570869786215,-0.02081325605583348,0.1294247029944885,-1.3308914155600815
1.5519913783910757,11.890957343878181,-0.019976156506387767,0.11671055608584413,-1.2493964379627815
1.548088424163467,11.868863610113369,-0.01905338576970051,0.10422678156227289,-1.159607664509208
1.5443798673589892,11.849242428241762,-0.018032182275076282,0.09198503715377512,-1.0613998316653857
1.5408870204196727,11.832044549220136,-0.016896287118089524,0.07999375306247881,-0.9548261361584194
1.5376349546469554,11.817219540027427,-0.015624370609081232,0.06825633886460716,-0.8401882851790978
1.5346537549437747,11.804716967233336,-0.01418762642272666,0.05676938907630341,-0.7181128571869104
1.5319803909747856,11.794487857894907,-0.012546013267165274,0.045521704307969806,-0.5896169292909116
1.529661587615159,11.78648610511436,-0.010642020329101146,0.03449582349750685,-0.45613082907140323
1.5277585079737461,11.780668984703716,-0.008388776085026152,0.023675380608918273,-0.31943208068959894
1.5263555654007832,11.77699480972824,-0.005640649644603339,0.013066369145844225,-0.18144486165134951
1.5255834379644204,11.775411096638177,-0.002080624719026822,0.002770761754788102,-0.0438984178445333
