x,y,v_x,v_y,omega
2.375,32.48,0.0,2.0,-5.795918367346939
2.374218476838847,32.083672827028806,-0.00781523161152789,1.9632717297119118,-5.537577576543797
2.371958292188256,31.69458831056664,-0.014786614894384195,1.9275734349097517,-5.29560926922276
2.3683798095372026,31.312545736955588,-0.020998211616148538,1.8928523012007596,-5.068609262244789
2.3636275034891883,30.937354553894572,-0.02652484886399791,1.8590595294093937,-4.855320572374544
2.357831691138935,30.568833610145518,-0.03143327463853256,1.8261499080811439,-4.654615315232999
2.3511100489259507,30.206810474898198,-0.0357831474913116,1.7940814443920756,-4.46547917114619
2.3435689454209117,29.851120826063276,-0.03962788755907658,1.7628150439571317,-4.28699800280707
2.335304615543751,29.50160789848914,-0.04301541121253134,1.732314231784205,-4.118346285403047
2.326404197673987,29.158121984508863,-0.04598876748510858,1.702544908018599,-3.958777070187575
2.316946651802937,28.820519980382784,-0.04858669122539168,1.673475133242197,-3.807613250842655
2.30700357414665,28.488664973159224,-0.0508440853374753,1.645074938993393,-3.6642399410014277
2.2966399213734343,28.16242586326952,-0.052792442394685744,1.617316159903629,-3.5280978029666836
2.2859146557113617,27.84167701883517,-0.05446021422603941,1.5901722844398614,-3.398677193500729
2.2748813206188374,27.526297958218475,-0.05587313669920233,1.563618321727092,-3.275513013756802
2.2635885553694135,27.21617305781347,-0.0570545157950382,1.5376306823229338,-3.1581801678927772
2.252080555776126,26.911191282466778,-0.058025480137836004,1.5121870711440042,-3.0462895493755835
2.2403974873249917,26.611245936250857,-0.05880520437350927,1.4872663910152206,-2.9394844860184457
2.2285879435210165,26.316241939675344,-0.059290233666241136,1.462773574739897,-2.8335239487181254
2.2166945954646917,26.026087838372966,-0.059643246897004946,1.4387674382838769,-2.732444544940538
2.204742604844049,25.74068809793252,-0.059876659309421223,1.415229966120599,-2.635962583210243
2.192754761995393,25.459950698977327,-0.06000176917714411,1.3921440234313234,-2.5438140518689374
2.18075169873097,25.183786966645094,-0.060028863467085664,1.369493299891011,-2.4557530281071003
2.1687520811154166,24.91211141086412,-0.05996731268844508,1.3472622579187266,-2.3715502340081547
2.156772784232812,24.644841576575974,-0.05982565613760091,1.3254360849627216,-2.290991724273031
2.144829050759048,24.381897903135798,-0.059611678600039,1.3040006494390586,-2.213877692080833
2.132934634954863,24.123203592193388,-0.059332479441813774,1.2829424599850354,-2.140021381097782
2.121101933519527,23.86868448342232,-0.05899453491154741,1.262248627725652,-2.0692480930046973
2.1093421045906586,23.618268937521382,-0.05860375437713115,1.2419068312837178,-2.00139428110088
2.0976651760392473,23.371887725963752,-0.05816553113698621,1.2219052842925682,-1.9363067215829113
2.08608014408833,23.12947392701497,-0.05768478837218533,1.202232705195292,-1.8738417550106075
2.074595063176969,22.890962827581802,-0.05716602074142616,1.182878289136349,-1.813864591276194
2.063217127896375,22.656291830491085,-0.056613332064510184,1.1638316817708487,-1.756248672101213
2.0519527477408706,22.425400366830605,-0.056030469490535376,1.145082954833935,-1.7008750857111798
2.0408076153414636,22.198229813014414,-0.05542085450353538,1.1266225833279429,-1.6476320288912278
2.0297867687831093,21.974723412261767,-0.05478761108000711,1.1084414241985268,-1.5964143121160825
2.0188946485472097,21.754826200203617,-0.05413359127898874,1.0905306963830053,-1.547122903882595
2.0081351495677606,21.538484934352823,-0.05346139851550286,1.0728819621249182,-1.4996645107595368
1.9975116688420336,21.32564802719449,-0.05277340874176855,1.055487109458398,-1.4539511900133466
1.9870271489941385,21.116265482671196,-0.052071789737180935,1.0383383357745652,-1.4098999919751118
1.9766841181516916,20.91028883585475,-0.05135851868728868,1.0214281323898742,-1.3674326295877282
1.966484726461608,20.70767109561144,-0.05063539821354547,1.0047492700432732,-1.3264751728167725
1.9564307795403342,20.50836669008158,-0.04990407099919369,0.9882947852552874,-1.2869577658275282
1.9465292861600578,20.312533261772476,-0.04911086280356962,0.9700394978357552,-1.2881795075751619
1.936784133022942,20.120338405156385,-0.04834066856758835,0.9519090683251564,-1.2916490669790162
1.9271906939381203,19.931757501263377,-0.04759372228062831,0.933899970604905,-1.2972316502237753
1.9177443087142239,19.746766621247357,-0.04687012995833559,0.9160088295553136,-1.304795953948005
1.908440307734557,19.565342496777546,-0.04616987983833369,0.8982324151427632,-1.3142138688191867
1.8992740345717627,19.387462491560292,-0.04549285178961022,0.8805676370297707,-1.3253601919247209
1.8902408667938406,19.213104573888383,-0.04483882598960984,0.8630115396893333,-1.3381123467936582
1.8813362351030254,19.04224729011863,-0.044207490918541786,0.8455612980082152,-1.3523501098943442
1.8725556409395532,18.874869738981097,-0.04359845071618065,0.828214213367088,-1.3679553424756168
1.8638946726736885,18.710951546625523,-0.04301123194246659,0.8109677101886846,-1.3848117266338238
1.8553490205014955,18.550472842311812,-0.042445289779463276,0.7938193329484085,-1.4028045044947886
1.8469144901526815,18.393414234652454,-0.0419000137086785,0.776766743645195,-1.4218202193989349
1.8385870155123771,18.239756788314544,-0.04137473269436363,0.7598077197338934,-1.4417464579690549
1.830362670252925,18.089482001088747,-0.04086871990015774,0.742940152524058,-1.462471591923521
1.8222376785665793,17.942571781230953,-0.04038119696330105,0.7261620460538716,-1.4838845184729614
1.8142084250854904,17.799008424980368,-0.03991133784758605,0.7094715164519987,-1.5058743981053333
1.8062714640714104,17.658774594154714,-0.03945827229321386,0.6928667918045592,-1.5283303885227102
1.7984235279542136,17.52185329371934,-0.03902108887875391,0.6763462125491699,-1.5511413734427173
1.7906615352955946,17.3882278492221,-0.038598837707436655,0.6599082324231983,-1.5741956849181769
1.7829825982521492,17.257881883979874,-0.038190532727015065,0.6435514199990808,-1.5973808177599989
1.77538402961051,17.13079929589538,-0.03779515368937974,0.6272744608458597,-1.6205831345705946
1.7678633494662748,17.006964233774482,-0.037411647752972975,0.6110761603630814,-1.6436875598081784
1.760418291618199,16.88636107300408,-0.037038930727784795,0.5949554473409743,-1.6665772612066034
1.7530468097494913,16.768974390439034,-0.036675887959290374,0.5789113783094897,-1.689133316771543
1.745747083469156,16.654788938333237,-0.03632137484406296,0.5629431427484717,-1.7112343654631392
1.7385175242881576,16.543789617134188,-0.03597421696592191,0.5470500692420306,-1.7327562395597074
1.7313567816078352,16.435961446942756,-0.035633209837299645,0.5312316326722641,-1.7535715765798277
1.724263748801508,16.331289537419437,-0.03529711822597352,0.515487462560914,-1.7735494085258283
1.717237569474677,16.229759055895098,-0.03496467504233689,0.49981735268247524,-1.792554726107044
1.710277643994754,16.131355193417974,-0.03463457975689376,0.4842212720887618,-1.8104480155160825
1.7033836363879096,16.036063128438798,-0.03430549631154855,0.4686993777030083,-1.8270847652795084
1.6965554817086153,15.943867987802378,-0.033976050481397,0.4532520286611778,-1.8423149407054262
1.6897933939968814,15.854754804676354,-0.03364482663593956,0.4378798025990638,-1.8559824235318145
1.6830978749493157,15.76870847300589,-0.03331036383971617,0.42258351410558265,-1.867924414579469
1.6764697234431434,15.68571369803687,-0.03297115122200809,0.4073642355846195,-1.8779707975854114
1.6699100460676362,15.605754942399543,-0.03262562253306491,0.3922233207886565,-1.8859434630108973
1.6634202688353568,15.528816367190156,-0.03227214978972776,0.37716243130521754,-1.8916555915859459
1.6570021502668313,15.454881767430752,-0.031909035895525746,0.3621835662888347,-1.8949108988131764
1.6506577960674638,15.383934501228655,-0.03153450609814956,0.34728909573214883,-1.8955028438072314
1.6443896756457559,15.315957411900147,-0.03114669811893073,0.3324817975529302,-1.8932138089699098
1.6382006407586616,15.25093274227196,-0.030743650752012158,0.31776489872892877,-1.887814261481933
1.632093946615317,15.188842040336635,-0.030323290681433003,0.303142120624336,-1.8790619139685303
1.6260732758275205,15.129666055424398,-0.02988341719653214,0.28861772849803585,-1.866700910717895
1.6201427656687675,15.07338462408135,-0.02942168439099947,0.27419658493244276,-1.8504610785433568
1.6143070392001753,15.019976544935513,-0.02893558029492,0.25988420652592986,-1.8300572992329411
1.6085712409515613,14.969419442024439,-0.028422402191221285,0.24568682258483018,-1.8051890855329085
1.602941078024889,14.921689616402158,-0.027879227075501535,0.2316114336379888,-1.7755404775283083
1.5974228677392581,14.87676188641382,-0.027302875780807926,0.21766586624538165,-1.7407804248732772
1.5920235932983593,14.83460941792918,-0.026689868628179778,0.20385881860103802,-1.7005638876109705
1.5867509694897362,14.795203547209155,-0.026036369458051305,0.19019988859920386,-1.6545339808230006
1.5816135212080589,14.758513601145197,-0.025338113358722377,0.17669957204037345,-1.6023256140786515
1.5766206787675363,14.724506722625062,-0.024590311046502215,0.16336921316097572,-1.543571244527923
1.5717828957402196,14.693147713070918,-0.023787519226666495,0.15022088238046238,-1.4779095802208955
1.567111797746266,14.664398910129812,-0.022923460712866287,0.13726714703059115,-1.40499833905021
1.56262037471182,14.638220126370989,-0.0219907696315967,0.12452069055764525,-1.324532471406261
1.558323235319406,14.614568684645871,-0.02098062429254161,0.11199372669353637,-1.2362695312312624
1.5542369517595673,14.59339959663377,-0.019882211305845967,0.09969715342748664,-1.1400639821352987
1.550380536982455,14.574665940268922,-0.018681936465276997,0.08763941022098587,-1.0359118392044795
1.546776117723041,14.558319492703411,-0.017362256128861817,0.07582506543411313,-0.9240055930596115
1.5434498984415188,14.544311655076186,-0.01589993668636182,0.06425331083813328,-0.8047959303940303
1.5404335621130707,14.532594640360067,-0.0142634265981191,0.052916836323046945,-0.6790503034145466
1.5377663462864306,14.523122749102754,-0.012408731668282318,0.0418020762500988,-0.5478886024673895
1.5354982428633113,14.515853271883273,-0.010272302562911074,0.030892695944696312,-0.4127654258752736
1.5336953842492504,14.510745992687998,-0.007756283577696183,0.020180096008050537,-0.27536355860611206
1.5324510459024734,14.507758734392521,-0.004687099890075718,0.00969248694670934,-0.13737371222840697
1.5319206251974182,14.506827513214368,-0.0006171071604769715,-0.0003802751651711782,-0.00023178290854691808
