x,y,v_x,v_y,omega
2.375,32.48,0.0,2.717948717948718,-3.3469387755102042
2.3744614670765,31.995675978492333,-0.00598369915000306,2.6634292988031123,-3.1721699970808945
2.3729125736350123,31.521006759264914,-0.011226227977635735,2.610673137057073,-3.0107507103505515
2.370478953195887,31.055683375145737,-0.01581399912375367,2.5595866864893706,-2.861337501668193
2.367271667870169,30.599413086898096,-0.019822504495338785,2.51008318292884,-2.722748122325471
2.363389037148121,30.15191822080806,-0.023317836860748092,2.462081995849355,-2.5939393891942637
2.358918213808245,29.71293511583494,-0.026357978026763946,2.4155080594075202,-2.47398847752823
2.353936545425399,29.28221316711217,-0.028993892893747097,2.3702913708454783,-2.362077030294544
2.348512753535073,28.85951395456294,-0.0312704614432078,2.3263665463682037,-2.25747761552511
2.3427079572616063,28.444610447019315,-0.03322727492864686,2.283672426338731,-2.1595421485624526
2.336576563907468,28.037286273577052,-0.03489931789511129,2.242151723019761,-2.0676919645115324
2.3301670454457546,27.637335055036907,-0.03631755390170359,2.20175070520409,-1.9814092813430364
2.3235226169146537,27.244559789220478,-0.03750942977719639,2.162418914978441,-1.9002298387264793
2.3166818302665475,26.85877228473836,-0.03849931075731614,2.124108912600633,-1.8237365339671814
2.309679095184536,26.479792638457717,-0.03930885682058942,2.0867760460731875,-1.7515539060633936
2.3025451366724115,26.107448752486643,-0.03995734886968035,2.050378242494288,-1.6833433432060274
2.295307397791679,25.741575886980943,-0.04046197202735173,2.014875818680167,-1.6187989090503723
2.2879903947134284,25.382016245498917,-0.040838062175431684,1.980231308897886,-1.5576436996170664
2.280616030235061,25.02861858999279,-0.04109932091753754,1.9464093078368707,-1.4996266563805372
2.2732038710503866,24.681237882840225,-0.041258003356624245,1.9133763271916435,-1.4445197724980117
2.2657713933306347,24.339734953593823,-0.041325082418392674,1.881100664435041,-1.3921156386389726
2.2583342005521274,24.00397618836631,-0.041310392898355246,1.8495522825373216,-1.342225282830289
2.250906216976192,23.673833239979608,-0.04122275794537329,1.8187026995371691,-1.2946762654085742
2.2434998597338693,23.34918275719127,-0.04107010030265732,1.78852488699991,-1.2493109957897726
2.2361261920799698,23.0299061314754,-0.040859540296224635,1.7589931765097522,-1.2059852425067603
2.2287950600480624,22.71588925997998,-0.040597482280526655,1.7300831734393218,-1.16456681197625
2.2215152144516384,22.407022323411326,-0.040289691013074246,1.7017716773235434,-1.1249343748573908
2.214294419929983,22.103199577710797,-0.03994135922754203,1.6740366082379101,-1.0869764217556666
2.2071395525242927,21.80431915849133,-0.03955716750234478,1.6468569386449923,-1.050590332489132
2.2000566870853913,21.510282897292676,-0.039141337374340626,1.620212630228974,-1.0156815452376855
2.1930511756547917,21.22099614879622,-0.03869767852120771,1.5940845752871977,-0.9821628136964037
2.1861277178223726,20.936367628214178,-0.03822963072789538,1.5684545422910616,-0.9499535418979244
2.179290423943495,20.65630925813396,-0.037740301259634755,1.5433051252669552,-0.9189791876956941
2.172542871993566,20.380736024158562,-0.037232498184016534,1.5186196966818777,-0.8891707270423685
2.1658881587465935,20.109565838737822,-0.03670876011568266,1.494382363548566,-0.860464172183304
2.1593316735283747,19.84272060982581,-0.03614107564230045,1.4705646243626431,-0.8315160560402679
2.152877733055268,19.580124859866185,-0.03556937405888279,1.4471659307443419,-0.8037918239131272
2.1465269327516516,19.321704417349316,-0.034995073759082604,1.4241723194430826,-0.7772260038461447
2.1402796268445337,19.067387571138504,-0.03441943632000278,1.401570416232621,-0.7517572859209728
2.134135955175588,18.817104967273433,-0.0338435822238408,1.3793474044903904,-0.727328215383393
2.128095867328296,18.570789511249856,-0.03326850496829217,1.3574909957715662,-0.7038849114230934
2.122159144344591,18.328376275429697,-0.03269508373954413,1.3359894022302152,-0.6813768092131305
2.116325418275872,18.089802411261264,-0.03212409480177661,1.3148313107523721,-0.6597564230618217
2.110594189787148,17.855007066012604,-0.031556221739599696,1.2940058586771765,-0.6389791287483031
2.104964844009881,17.62393130374234,-0.03099206467448017,1.2735026109924321,-0.6190029633072097
2.099436664818537,17.396518030252,-0.030432148562675367,1.2533115389002245,-0.5997884407008183
2.0940088476875722,17.172711921781882,-0.029876930670264527,1.2334229996566586,-0.5812983819710682
2.088680511269317,16.95245935722901,-0.02932680731034489,1.2138277175974352,-0.5634977586013634
2.083450707818751,16.735708353681126,-0.028782119918165924,1.1945167662679559,-0.5463535479408848
2.078318432578258,16.52240850507454,-0.028243160531758012,1.175481551582995,-0.5298345996540103
2.0732826322239495,16.31251092379686,-0.027710176738339466,1.1567137959467768,-0.513911512255819
2.0683422124648683,16.10596818506739,-0.02718337614034286,1.1382055232695771,-0.4985565188828519
2.06349604487721,15.902734273939164,-0.026662930389187895,1.1199490448218103,-0.48374338152746005
2.0587429730474964,15.702764534776811,-0.02614897882985611,1.1019369458709842,-0.46944729303518357
2.0540818180912757,15.506015623073836,-0.0256416317948163,1.084162073050956,-0.455644786228569
2.049511383607377,15.31244545948175,-0.025140973581841725,1.0666175224166365,-0.4423136495784176
2.0450304601218083,15.12201318593159,-0.024647065146692775,1.0492966281406988,-0.4294328488953575
2.040637829070145,14.934679123735847,-0.0241599465384605,1.0321929518119721,-0.4169824545614529
2.0363322663624555,14.750404733565944,-0.023679639102532225,1.0153002722980848,-0.4049435738638446
2.0321125455706026,14.569152577206737,-0.02320614747361138,0.9986125761375565,-0.39329828803063205
2.0279808196151237,14.39110538849307,-0.02270191869837541,0.9796895206809754,-0.43023024648400815
2.023936190194358,14.216455001319243,-0.022238408199018574,0.9608703368059793,-0.46838029371069606
2.0199714407401235,14.045182951851995,-0.021814363514698787,0.9421524350523218,-0.5076461635344163
2.0160795823730004,13.87727123326437,-0.021428507231112472,0.9235333270324153,-0.5479270226822952
2.0122538580908187,13.712702277772099,-0.02107954034868573,0.9050106228817133,-0.5891232498688614
2.008487746382781,13.551458939097156,-0.02076614529617621,0.8865820290620865,-0.6311362157728724
2.004774964331229,13.39352447529485,-0.020486988609958033,0.8682453465190859,-0.6738680629459743
2.001109470259634,13.23888253188042,-0.02024072329665383,0.8499984691967843,-0.7172214846663205
1.9974854659824552,13.087517125190193,-0.020025990894221714,0.8318393829168624,-0.7610995017162794
1.9938973987100082,12.939412625910812,-0.019841423244077207,0.8137661646318042,-0.8054052360207192
1.9903399626594538,12.79455374270805,-0.01968564398430513,0.7957769820655364,-0.8500416800304165
1.9868081004214342,12.652925505883875,-0.01955726977146892,0.7778700937586455,-0.8949114606731737
1.9832970041307685,12.514513250987044,-0.019454911235926384,0.7600438495394923,-0.9399165966224011
1.9798021164889759,12.379302602298242,-0.019377173672882574,0.7422966914472012,-0.9849582475482653
1.9763191316862405,12.247279456105602,-0.019322657468619796,0.7246271551376995,-1.0299364539189755
1.9728439962708082,12.118429963680324,-0.019289958258407586,0.7070338718098313,-1.07474986580819
1.9693729100146988,11.992740513854873,-0.019277666809472935,0.6895155706951703,-1.1192954590376154
1.9659023268261306,11.870197715097671,-0.01928436861906172,0.6720710821626413,-1.1634682368402707
1.9624289557611552,11.750788376968252,-0.019308643213998892,0.6546993414975797,-1.2071609150681977
1.9589497621898169,11.63449949082526,-0.019349063134205504,0.6373993934245762,-1.250263588787187
1.9554619691756916,11.521318209646136,-0.01940419257829658,0.6201703974545746,-1.2926633778990089
1.951963059132031,11.411231826801775,-0.01947258568459901,0.6030116341494318,-1.3342440492075158
1.9484507758230114,11.304227753611265,-0.019552784415618772,0.5859225124117753,-1.374885612098001
1.9449231267848797,11.200293495480974,-0.019643316008067135,0.5689025779247889,-1.4144638847291529
1.9413783862492,11.099416626408015,-0.019742689943929376,0.5519515228858566,-1.4528500273445752
1.9378150986590907,11.001584761600274,-0.019849394390616764,0.5350691972001516,-1.4899100389984408
1.9342320828794484,10.90678552793295,-0.01996189204985486,0.5182556213256772,-1.525504213661911
1.9306284372138682,10.815006531924507,-0.02007861534548037,0.5015110009903483,-1.5594865513414229
1.9270035453545138,10.726235324872235,-0.020197960869569407,0.4848357440348786,-1.5917041195096393
1.9233570834067841,10.640459364738536,-0.020318282994092964,0.4682304796728739,-1.6219963598448899
1.9196890281485954,10.557665974322802,-0.020437886541336197,0.4516960805019348,-1.6501943350258492
1.9159996667047474,10.477842295189411,-0.020555018390308887,0.4352336876468335,-1.676119910180778
1.9122896078406078,10.400975236749101,-0.020667857877909864,0.4188447394677286,-1.6995848636125868
1.9085597951067022,10.327051419808015,-0.020774505832151516,0.40253100432212024,-1.7203899217117367
1.9048115220973472,10.256057113805586,-0.020872972049571514,0.3862946179270864,-1.7383237136738823
1.9010464501229731,10.187978166858894,-0.02096116099902796,0.37013812592505646,-1.7531616429700057
1.89726662863825,10.122799927618065,-0.02103685549789589,0.35406453230636303,-1.7646646747817822
1.8934745188178572,10.060507157816673,-0.021097698062023607,0.3380773543757866,-1.7725780422624189
1.8896730207305925,10.001083934277059,-0.021141169574249583,0.32218068495324576,-1.7766298801656728
1.8858655046330859,9.944513539011048,-0.02116456484249211,0.30637926244686814,-1.7765298030535592
1.8820558469905564,9.890778335954497,-0.02116496451894663,0.2906785492925713,-1.7719674583320197
1.8782484719396662,9.83985963281176,-0.021139202713167566,0.275084818960063,-1.7626111037955088
1.8744483990466287,9.7917375264981,-0.021083829431692923,0.2596052511917086,-1.7481062881371952
1.870661298396647,9.746390730809974,-0.020995066679214164,0.24424803423191935,-1.7280747553040163
1.8668935543013911,9.703796385310781,-0.020868756601405115,0.2290224713146606,-1.7021137558992032
1.8631523392668132,9.663929845125697,-0.02070029933835077,0.21393908629737166,-1.669796040089837
1.8594457003851081,9.626764452594209,-0.02048457712503893,0.1990097196080538,-1.6306709395458387
1.8557826611027117,9.592271293833122,-0.020215859346032587,0.18424759995958195,-1.5842671387999543
1.8521733425377154,9.560418946654512,-0.019887680265038055,0.1696673686916462,-1.5300980132046489
1.8486291104522317,9.531173231582176,-0.019492676240336276,0.15528502100094688,-1.4676708013974011
1.8451627570882838,9.50449698574484,-0.01902236113686271,0.1411177105250206,-1.3965014163962663
1.8417887321102469,9.480349891187458,-0.018466805285768318,0.12718334011254157,-1.3161373989035898
1.8385234451079642,9.458688405543818,-0.01781416140626286,0.11349983370568248,-1.2261923423066328
1.8353856755131572,9.439465864131197,-0.017049945202703372,0.10008395976787146,-1.1263958841627812
1.832397147564838,9.422632845753231,-0.01615592088973393,0.08694957776508995,-1.0166635258053753
1.8295833631977096,9.408137910533199,-0.015108349856135999,0.07410525801306114,-0.8971888613886627
1.826974842921536,9.39592880345252,-0.013875208768013734,0.0615514873278243,-0.7685548415298434
1.82460902121813,9.385954122653665,-0.012411699047610527,0.049278299326117304,-0.6318468071957757
1.8225332275191153,9.378165188043134,-0.010652675385886247,0.037265418568650996,-0.4887253998321757
1.8208096386678445,9.372517259558741,-0.00849831185045557,0.025489342369055902,-0.3413868856583255
1.8195246533616038,9.368967922484597,-0.005779302663329738,0.01394773623255131,-0.19232286745571217
1.8188133927552688,9.36746539719626,-0.0021235929626155134,0.0027469891934133964,-0.04383335744747244
