x,y,v_x,v_y,omega
2.375,32.48,0.0,2.3076923076923075,-2.7346938775510203
2.374385302848896,31.9549203821391,-0.005345192618296596,2.2582174128372303,-2.5806495007387125
2.3726229594607684,31.44102068436766,-0.009979532495856982,2.210475611262238,-2.439349432052299
2.3698662012243514,30.937913657815365,-0.013992278255592277,2.164368097888174,-2.3094099016876037
2.366249126046589,30.44523389590036,-0.017460549377124067,2.119803744851019,-2.1896257983893523
2.361889281386502,29.962636158636766,-0.020451143319287168,2.0766983183106302,-2.078944356392827
2.356889863722748,29.489793865345757,-0.023022053756834897,2.034973797263376,-1.9764431718560245
2.351341597008841,29.026397734200955,-0.02522374375539759,1.9945577779087864,-1.8813117629129392
2.3453243415073017,28.572154550459363,-0.02710021712755437,1.9553829502789974,-1.7928360435550024
2.3389084754043687,28.12678604800227,-0.02868992289794793,1.917386636304417,-1.7103852039062222
2.33215608432979,27.69002789107798,-0.030026521228823575,1.8805103804285432,-1.633400585984971
2.3251219879871323,27.261628745004973,-0.031139533924724107,1.8446995854236765,-1.5613862206395894
2.3178546282641763,26.841349426142926,-0.03205489844880506,1.809903187289779,-1.493900752453496
2.3103968392256014,26.42896212273193,-0.0327954410170625,1.7760733641101785,-1.4305505284178834
2.3027865161226573,26.024249679286882,-0.03338128161723528,1.7431652745424089,-1.3709836656529353
2.295057197853555,25.62700493815231,-0.03383018159234625,1.711136822279964,-1.3148849454147016
2.287238575067903,25.237030132603536,-0.034157842630717,1.6799484433615555,-1.2619714065994447
2.2793569342440225,24.854136326546964,-0.03437816453346153,1.6495629136520975,-1.2119885331552833
2.271435546511535,24.47814289644485,-0.03450346792295255,1.619945174192368,-1.1647069471771312
2.2634950086883823,24.108877051583697,-0.034544687060984514,1.5910621724263816,-1.1199195337398844
2.2555535429072067,23.746173389233164,-0.03451153712315097,1.5628827175782438,-1.0774389353062812
2.247627260284706,23.389873481614323,-0.03441265959424886,1.535377348672542,-1.0370953632991131
2.239730393309866,23.03982549192063,-0.034255748882619105,1.508518213881294,-0.9987346825274181
2.2318755009688314,22.69588381691947,-0.03404766277855129,1.482278960041853,-0.9622167309038443
2.2240890420472703,22.357910492328145,-0.033660675669803325,1.4566195146653247,-0.9240527880709465
2.21639450823454,22.025773035540894,-0.03324831400611301,1.4315322834846986,-0.8878384455027868
2.2087972793152417,21.699342424375402,-0.03281454616169922,1.4069947701282568,-0.8534489644382495
2.201301874437797,21.378494679226996,-0.032362887555214326,1.3829856224665775,-0.8207690955185922
2.193912050431093,21.063110608283857,-0.03189645163351296,1.3594845596476635,-0.7896922436549016
2.186630889085713,20.753075568885073,-0.03141799484805321,1.3364723046896223,-0.7601197161017252
2.179460874694883,20.448279243800005,-0.030929956376556676,1.31393052213704,-0.7319600444987907
2.172403962988755,20.148615431315438,-0.03043449324194541,1.2918417603374552,-0.705128372771741
2.165461642455586,19.853981848113666,-0.02993351139430542,1.270189397938822,-0.6795459037614107
2.1586349889217757,19.56427994401215,-0.02942869324752346,1.2489575942482933,-0.6551393983010212
2.1519247141569853,19.27941472771391,-0.028921522098481443,1.2281312431276936,-0.6318407212001054
2.1453312091784604,18.999294602789018,-0.028413303801736546,1.2076959301322345,-0.6095864292384955
2.138854582848366,18.723831213171724,-0.02790518602517204,1.1876378926268405,-0.5883173968365129
2.1324946962877966,18.45293929751612,-0.027398175371082845,1.167943982639283,-0.5679784755597705
2.1262511935697836,18.186536551805975,-0.026893152611637,1.1486016322315469,-0.5485181840483211
2.120123529099908,17.924543499662413,-0.026390886256847223,1.129598821190759,-0.5298884253383966
2.114110992046031,17.666883369836704,-0.025892044646430825,1.1109240468588872,-0.5120442288777012
2.1082127281373197,17.413481980415234,-0.025397206733666088,1.0925662959364686,-0.494943514828115
2.102427759116403,17.164267629299882,-0.024906871709086904,1.0745150181100938,-0.47854687850790917
2.096755000096527,16.919170990560087,-0.024421467594183795,1.0567601013663952,-0.46281739305358904
2.091193275047414,16.67812501628324,-0.02394135891984668,1.0392918488670537,-0.4477204285831021
2.0857413306086903,16.441064843577482,-0.023466853590791703,1.0221009572699635,-0.43322348632067775
2.080397848407828,16.207927706406437,-0.02299820902540274,1.0051784963913148,-0.4192960463018626
2.075161456040149,15.97865285195855,-0.02253563765006597,0.988515890112064,-0.4059094274178633
2.070034407514314,15.753289032230516,-0.022047393009368577,0.9711694988273791,-0.4118232144321718
2.065017089118318,15.531900037537152,-0.021581462607985116,0.9539521941584019,-0.42014082732990243
2.0601042913189795,15.314456624097097,-0.021138518255828388,0.9368600966246957,-0.4307315687125348
2.055290668659865,15.100930421975772,-0.02071907008430017,0.9198894870389931,-0.44346897073144675
2.0505707753810944,14.89129389909328,-0.020323480165877497,0.9030367988957236,-0.45823049157325696
2.045939098030563,14.685520326917906,-0.019951975056134677,0.8862986113249159,-0.4748972242689588
2.0413900853050952,14.483583747718768,-0.019604657339237656,0.8696716425806478,-0.49335361659462035
2.036918175342189,14.285458943257783,-0.019281516251251737,0.8531527440366018,-0.5134872008852127
2.0325178206666115,14.091121404807154,-0.018982437449422476,0.8367388946645073,-0.5351883326285971
2.0281835109810933,13.900547304383686,-0.01870721198986869,0.8204271959743415,-0.5583499367441525
2.0239097939766144,13.713713467095847,-0.018455544570816416,0.804214867398159,-0.5828672604801735
2.019691294325211,13.530597344503288,-0.01822706109355829,0.7880992421023455,-0.6086376318861435
2.0155227310067514,13.35117698889168,-0.018021315588702132,0.7720777632159901,-0.6355602228303409
2.011398933110693,13.175431028368255,-0.01783779655093673,0.756147980465958,-0.6635358155399266
2.0073148542443677,13.003338642685268,-0.01767593272145497,0.7403075472121793,-0.6924665716395842
2.003265585670771,12.834879539699706,-0.017535098353299687,0.7245542178796605,-0.7222558026557179
1.9992463682911532,12.670033932378058,-0.017414617991202287,0.708885845786835,-0.7528077409358804
1.9952526035808624,12.508782516254662,-0.017313770793935358,0.6933003813731256,-0.7840273099071174
1.9912798635808266,12.351106447251066,-0.017231794423765878,0.6777958708320475,-0.8158198925617849
1.9873239000418057,12.196987319761991,-0.01716788852424281,0.6623704551598957,-0.8480910970145589
1.9833806528140292,12.046407144910685,-0.01712121780424884,0.6470223696340741,-0.880746517919117
1.9794462575711005,11.899348328872719,-0.017090914742957194,0.6317499437395329,-0.9136914924665382
1.9755170529540524,11.75579365116251,-0.017076081927025498,0.6165516015666298,-0.9468308496089529
1.9715895872192255,11.615726242770798,-0.017075794027992395,0.6014258627091348,-0.9800686510603552
1.9676606244722026,11.479129564034075,-0.017089099424379806,0.5863713436971397,-1.0133079225206805
1.9637271505694178,11.345987382108163,-0.017115021469401248,0.5713867600064383,-1.0464503734480317
1.959786378769277,11.216283747907653,-0.01715255940138847,0.556470928693638,-1.0793961035660853
1.9558357552157646,11.090002972360658,-0.017200688890023626,0.5416227717150105,-1.1120432941379088
1.95187296433959,10.96712960181377,-0.01725836220714616,0.5268413199970513,-1.1442878818624782
1.947895934265052,10.847648392405226,-0.017324508006229533,0.5121257183381159,-1.1760232130549781
1.9439028423150404,10.731544283204485,-0.017398030689522937,0.4974752312335469,-1.2071396755557187
1.9398921207120767,10.618802367893483,-0.017477809336247596,0.482889249731679,-1.2375243055749179
1.935862462580119,10.50940786473813,-0.017562696159036526,0.4683672994452956,-1.267060366422234
1.9318128283602054,10.403346084567694,-0.01765151444890784,0.45390904986284014,-1.2956268957926393
1.9277424527630262,10.300602396443942,-0.01774305596134666,0.43951432512631744,-1.323098217987859
1.9236508523934202,10.201162190660511,-0.017836077687401922,0.4251831164687297,-1.3493434171519472
1.919537834195818,10.105010838665258,-0.017929297943920196,0.41091559653346066,-1.3742257673018576
1.9154035048860836,10.012133649443275,-0.018021391705945692,0.39671213583160475,-1.3976021146566537
1.9112482815543566,9.922515821835063,-0.018110985091678924,0.3825733216311071,-1.4193222075392904
1.9070729036457836,9.836142392191892,-0.018196648895912774,0.36849997961385494,-1.4392279689831975
1.902878446551868,9.752998176687715,-0.018276891051178676,0.35449319868335133,-1.4571527071824646
1.8986663370751917,9.673067707513233,-0.01835014787644198,0.3405543593556184,-1.4729202591680843
1.894438371065104,9.596335162072268,-0.01841477395040811,0.3266851662179917,-1.486344063703732
1.8901967335625773,9.522784284183167,-0.01846903041938768,0.31288768499159003,-1.497226160563447
1.885944021839912,9.452398296159611,-0.018511071516834433,0.29916438477845675,-1.505356115358484
1.8816832717769056,9.385159800507981,-0.018538929031044586,0.28551818610527985,-1.5105098723274553
1.8774179880816548,9.321050669837334,-0.018550494405920208,0.27195251537860193,-1.5124485425854
1.873152178944371,9.260051923442013,-0.01854349809219793,0.2584713663198399,-1.5109171431096886
1.8688903958111138,9.202143588901144,-0.018515485675257366,0.24507936881815007,-1.5056433134906866
1.8646377790880035,9.147304546969266,-0.0184637901778753,0.23178186537208995,-1.496336055047794
1.8604001107461317,9.095512358048886,-0.018385499751445076,0.21858499480514382,-1.4826845630231755
1.856183875009982,9.046743068703659,-0.018277419693334372,0.20549578210986522,-1.464357261189777
1.8519963286051608,9.000970997091382,-0.01813602730511133,0.1925222319099392,-1.4410012051412344
1.847845582459131,8.958168497024815,-0.01795741744297362,0.17967342084280882,-1.412242104161107
1.8437406973647255,8.918305701843263,-0.017737235551858212,0.16695958073590184,-1.3776853339000683
1.8396917970516982,8.881350251753865,-0.0174705932570746,0.1543921591718946,-1.3369184899042084
1.8357102035681032,8.847267012299458,-0.01715195877418629,0.14198383608383178,-1.289516287854408
1.8318086021868516,8.816017797864934,-0.016775009758437386,0.12974846334681817,-1.2350489780935843
1.828001246782745,8.78756112362601,-0.016332428538141788,0.11770087786121282,-1.1730959383867823
1.824304222698006,8.76185202323309,-0.015815606981326877,0.1058565168598396,-1.1032667540460939
1.8207357940492281,8.738841988822518,-0.015214207355872377,0.09423073888425376,-1.0252328470010346
1.8173168786817278,8.71847911455146,-0.014515491491957142,0.08283773303800152,-0.9387733815385646
1.814071720457929,8.70070855114475,-0.01370327567150788,0.07168890528122052,-0.8438392081420685
1.8110288715064784,8.685473394674219,-0.012756280428065045,0.060790716201656374,-0.7406367554277878
1.8082226671209338,8.672716107597765,-0.011645496837540287,0.05014221489794123,-0.6297276520319113
1.8056954959906866,8.662380441194443,-0.010329904295044021,0.03973314513095284,-0.5121260140255897
1.8035014067712698,8.65441348375252,-0.008749132395535998,0.029544745668368323,-0.38935168299554035
1.8017122168587596,8.648766696672759,-0.006809040756726457,0.019557750677395333,-0.2633704636264188
1.8004296124048467,8.64539296633918,-0.004344041451213877,0.009779034831988083,-0.13634315375916264
1.79982081015488,8.644228214432651,-0.0009498911571912219,0.0003492426160929575,-0.01017203361594285
