x,y,v_x,v_y,omega
2.375,32.48,0.0,2.564102564102564,-4.816326530612245
2.374003104488449,31.947329485020045,-0.009494242967151926,2.5089499595160274,-4.5424810486042855
2.371144737587913,31.426030904013746,-0.017728298942714785,2.4557984310201584,-4.291659831821596
2.3666728394460943,30.915696722722707,-0.02486120716984502,2.404527105084966,-4.061323406860162
2.3608042491967427,30.415943697137426,-0.03103012853826538,2.3550255195367567,-3.8492665452333235
2.353728948185435,29.92641081614827,-0.036353690617048295,2.3071923946456883,-3.65356772035859
2.3456136605901836,29.446757482468172,-0.04093476267105808,2.260934592783815,-3.4725471886102097
2.3366049197669154,28.97666189593863,-0.04486276897911589,2.216166231307073,-3.3047320511565084
2.3268316883113416,28.515819609949542,-0.04821562583587266,2.172807920969952,-3.1488270004476795
2.3164076037404664,28.06394223690822,-0.05106137007722517,2.13078610799503,-3.00368972159368
2.305432908873076,27.62075628281973,-0.053459533421730696,2.090032502371513,-2.8683101250258174
2.2939961156954674,27.186002094339347,-0.05546230636501771,2.050483578394045,-2.7417927476488306
2.2821754431844803,26.7594329043146,-0.05711552707295503,2.012080136127379,-2.6233417860531496
2.2700400628052146,26.34081396399041,-0.058459524158144954,1.9747669145791893,-2.512248325322202
2.2576511798839505,25.929921751812593,-0.0595298369967534,1.938492249019058,-2.407879406548324
2.245062974528869,25.526543250214743,-0.06035783305164023,1.9032077661985771,-2.309668639890232
2.232323422038169,25.13047528297427,-0.060971238288361616,1.8688681122820903,-2.2171081213032555
2.2194750096446105,24.741523906724144,-0.06139459403124119,1.8354307091476998,-2.129741452581647
2.206555363876929,24.359503851045808,-0.0616496513752509,1.8028555354078983,-2.0471576980985335
2.1935978006759633,23.98423800227644,-0.061755712443466476,1.7711049290622423,-1.968986139187443
2.1806318086100656,23.615556926763432,-0.06172992627936952,1.740143409156917,-1.894891709709116
2.1676834740285673,23.25329842981011,-0.06158754592537529,1.7099375142080318,-1.8245710149543068
2.154775855723939,22.897307146994677,-0.06134215221394339,1.6804556554627699,-1.7577488514104047
2.1419293156021526,22.547434164920645,-0.061005848945927844,1.6516679833375,-1.6941751576729347
2.1291618109536437,22.203536668782803,-0.06058943342082512,1.623546265594364,-1.633622337395852
2.1164891531470196,21.865477614414818,-0.06010254568987961,1.5960637760054825,-1.5758829040347466
2.1039252369120462,21.533125422730883,-0.05955379940510512,1.5691951924129344,-1.5207674045568524
2.0914822438190614,21.206353694688584,-0.058950896718559014,1.5429165032280363,-1.4681025855235825
2.0791708230836328,20.885040945089074,-0.05830072933314027,1.5172049215292132,-1.417729770200166
2.067000252415342,20.56907035369671,-0.057609467507726046,1.4920388060171177,-1.3695034197798732
2.0549960177017104,20.25833315155633,-0.056716577384002806,1.46736311912937,-1.3187186894441592
2.043180609095065,19.95272456397484,-0.055811123631668166,1.4431948578372105,-1.2703471020425054
2.0315563088501825,19.652140001582413,-0.05489649774816403,1.419515260185885,-1.2242446277517638
2.0201247288910906,19.356478720829728,-0.053975692338428125,1.3963064612682552,-1.1802774657198862
2.00888689000714,19.065643641290656,-0.05305134465157726,1.3735514391038646,-1.138321202505831
1.997843292418919,18.779541173918624,-0.052125775236240846,1.351233964439337,-1.0982600490026602
1.9869939786784765,18.498081059468177,-0.0512010222917842,1.3293385541363285,-1.0599861476757144
1.9763385897547292,18.22117621636003,-0.05027887222009478,1.3078504278460337,-1.0233989428850327
1.9658764150555452,17.948742597327865,-0.049360886819752474,1.2867554676983584,-0.9884046078809998
1.9556064370509334,17.68069905423976,-0.04844842750988326,1.2660401807597819,-0.9549155227805034
1.9455273710854146,17.416967210536097,-0.04754267692362936,1.2456916640370312,-0.9228497984612956
1.9356377009005876,17.157471340770655,-0.046644658169959906,1.225697571824325,-0.8921308418664328
1.9259357103299442,16.902138256782006,-0.04575525202664364,1.2060460852104125,-0.8626869586986108
1.916419511576079,16.650897200059205,-0.04487521229588309,1.1867258835781829,-0.8344509899144839
1.9070870704347027,16.403679739899324,-0.04400517952674821,1.1677261179444858,-0.8073599788090576
1.8979362287895096,16.160419676985033,-0.04314569328461481,1.1490363860011639,-0.7813548658163266
1.8889647246663053,15.921052952038224,-0.04229720312685353,1.1306467087303376,-0.7563802084499937
1.8801702101032938,15.685517559231364,-0.04146007842563738,1.112547508477841,-0.7323839240721153
1.8715502670665285,15.453753464061446,-0.040634617162602374,1.0947295883785089,-0.709317053411988
1.8631024216148342,15.225702525412935,-0.039821053805917335,1.0771841130358903,-0.6871335429660995
1.8548241564965893,15.001308421555631,-0.0390195663678431,1.0599025903669934,-0.6657900445956395
1.846712922341329,14.780516579841454,-0.03823028272987349,1.0428768545299523,-0.6452457308035935
1.838766147591842,14.563274109880602,-0.03745328631286152,1.0260990498591214,-0.6254621243212096
1.8309812473070881,14.349529739992892,-0.0366886211609825,1.0095616157381169,-0.6064029407656866
1.823355630952598,14.139233756743977,-0.03593629650083029,0.9932572723467942,-0.5880339432490942
1.8158929015292637,13.93248352249747,-0.03513731705473339,0.9757925776199414,-0.598064619967203
1.8085943251599481,13.729388370302924,-0.03437293408160516,0.9584469670900143,-0.610207077993552
1.8014526613322628,13.529923647389602,-0.03364291189635124,0.9412170606559251,-0.6243412377790778
1.7944607292515575,13.334065396496094,-0.03294691744369857,0.9240996145203456,-0.6403504398572256
1.787611427369771,13.141790327859528,-0.0322845290495066,0.9070915153517173,-0.6581211806246283
1.7808977511506225,12.953075792382563,-0.03165524446619183,0.8901897749051084,-0.677542857253036
1.7743128092140381,12.767899755884002,-0.031058488263185254,0.873391525081195,-0.6985075206908566
1.7678498379924446,12.586240774342912,-0.030493618609134236,0.8566940134053715,-0.7209096357477851
1.7615022150221789,12.408077970049625,-0.02995993348863435,0.8400945989116465,-0.7446458472841524
1.7552634709846489,12.233391008579954,-0.02945667639260272,0.8235907484185729,-0.7696147515479782
1.7491273006040404,12.062160076511365,-0.02898304151795332,0.8071800331870373,-0.7957166717173411
1.7430875725012125,11.894365859801734,-0.02853817850898006,0.7908601259523057,-0.8228534367136037
1.7371383380969438,11.729989522752582,-0.02812119676976939,0.7746287983253308,-0.8509281623522071
1.7312738396518452,11.569012687479518,-0.02773116937402631,0.7584839185610002,-0.8798450338920457
1.725488517525005,11.411417413812767,-0.02736713659588173,0.7424234496937675,-0.9095090890316769
1.7197770167287714,11.257186179550299,-0.0270281090825322,0.7264454480440156,-0.9398260003805458
1.714134192852979,11.106301860985013,-0.026713070686921206,0.710548062101568,-0.9707018564056877
1.7085551174283635,10.958747713625762,-0.02642098097608143,0.6947295317960573,-1.0020429398186235
1.7030350827959144,10.814507353029597,-0.026150777428195705,0.6789881881674109,-1.0337555023228957
1.6975696065464219,10.673564735659394,-0.02590137732887582,0.6633224534535864,-1.0657455345894031
1.6921544355925593,10.535904139676987,-0.0256716793745779,0.6477308416169455,-1.0979185302637395
1.686785549934442,10.401510145576996,-0.025460564988442957,0.6322119593353562,-1.1301792427365072
1.6814591661787854,10.270367616560403,-0.025266899351143256,0.6167645074893517,-1.1624314333233137
1.676171740871533,10.142461678539856,-0.02508953214649801,0.601387283182529,-1.1945776094051792
1.6709199737041913,10.017777699660101,-0.02492729801866216,0.5860791823389512,-1.2265187509716178
1.6657008106551037,9.896301269206994,-0.02477901673455297,0.5708392029287399,-1.258154023887061
1.6605114471285845,9.778018175766924,-0.024643493041820355,0.5556664488814365,-1.2893804780659877
1.6553493311572438,9.66291438448497,-0.024519516209043503,0.5405601347562302,-1.3200927285927664
1.6502121667360499,9.550976013254427,-0.02440585923089856,0.5255195912489617,-1.3501826176588274
1.6450979173607485,9.442189307652335,-0.02430127767673325,0.5105442716280943,-1.379538855012897
1.6400048098482862,9.336540614414773,-0.024204508156241165,0.49563375920581654,-1.408046634431075
1.6349313385229598,9.234016353221698,-0.024114266370677685,0.4807877759663153,-1.4355872235151388
1.6298762698592557,9.13460298653365,-0.024029244712217408,0.4660061924912643,-1.462037523924073
1.6248386476808832,9.038286987191057,-0.023948109367521286,0.4512890393429511,-1.4872695989424984
1.619817799025498,8.945054803450763,-0.023869496874243754,0.4366365200884237,-1.511150165101226
1.614813340796255,8.854892821093234,-0.023792010070925684,0.4220490261737502,-1.533540044405695
1.60982518733482,8.767787322186958,-0.02371421337131432,0.40752715388603344,-1.5542935736213028
1.6048535590660742,8.683724440043353,-0.02363462728340725,0.3930717236721282,-1.5732579670450844
1.5998989923827958,8.602690109835521,-0.023551722081149275,0.37868380211673475,-1.5902726293106384
1.5949623509594297,8.524670014286883,-0.02346391052233801,0.36436472691791616,-1.6051684150991306
1.5900448387081978,8.449649523760968,-0.023369539489393056,0.35011613523366997,-1.6177668332660136
1.5851480146188168,8.37761363000175,-0.023266880409474652,0.3359399958064854,-1.627879193987109
1.5802738097557993,8.308546872685596,-0.0231541182859296,0.3218386452997567,-1.635305699287854
1.575424546725803,8.242433257853254,-0.023029339142607033,0.30781482929397097,-1.639834480044264
1.5706029619732271,8.179256167197323,-0.0228905156438294,0.29387174838155034,-1.6412405866599389
1.5658122313174094,8.118998257093367,-0.022735490602052457,0.28001310975136534,-1.639284946740093
1.56105599921243,8.061641346192435,-0.022561958016800658,0.26624318454323376,-1.6337133120739322
1.5563384122953619,8.0071662903559,-0.02236744119337209,0.2525668710428109,-1.6242552303506448
1.551664157897898,7.955552843736935,-0.022149267353900944,0.23898976342351164,-1.6106230960612484
1.5470385083405636,7.906779504937457,-0.021904537954047537,0.22551822514293857,-1.5925113625369653
1.5424673720253304,7.86082334745711,-0.02163009361960081,0.21215946514608125,-1.5695960366897812
1.5379573526184527,7.817659834195094,-0.021322472160188084,0.19892161353979837,-1.5415346349114403
1.5335158180138364,7.77726261670491,-0.020977857407586054,0.18581379112862773,-1.5079668599691
1.5291509813574145,7.73960332143913,-0.02059201551071699,0.17284616378356973,-1.4685163744974636
1.5248719973060019,7.704651327646943,-0.020160213550354716,0.16002996757058416,-1.4227942099032715
1.5206890780692934,7.672373545306947,-0.019677112513536495,0.14737748328650596,-1.3704045763514383
1.516613635929763,7.642734207029893,-0.019136622148656378,0.134901928875903,-1.3109541474061095
1.512658462315264,7.615694695907241,-0.01853169798943257,0.12261722467315578,-1.2440662940863425
1.5088379588494187,7.591213442472171,-0.017854049304331213,0.11053756994655012,-1.1694022278624387
1.5051684442813298,7.569245938596598,-0.01709370848699118,0.09867675267796337,-1.0866915103205004
1.5016685745836313,7.54974493338257,-0.01623838387204106,0.08704710650326203,-0.9957746881698162
1.498359934528642,7.532660891963115,-0.015272473794525272,0.0756580498724979,-0.896660416793865
1.4952678919295994,7.517942802000057,-0.014175550958261458,0.06451423548994853,-0.78959733366327
1.4924228577763075,7.505539381378,-0.012920012406424132,0.05361357995821556,-0.6751554306893359
1.489862183073966,7.495400630582022,-0.01146736571111331,0.042945951432058975,-0.554300689206057
1.4876330960983477,7.4874794121840935,-0.009762034056679868,0.03249422378632259,-0.42842980764336414
1.485797528415136,7.481732201533713,-0.0077195629262900665,0.02224111574110862,-0.299314441858006
1.4844412309737407,7.478116931199235,-0.005197555563187994,0.012190030301551052,-0.16890096747061803
1.4836977132687064,7.476580950274219,-0.0018835654371390123,0.002438359460494855,-0.03895054084081681
