x,y,v_x,v_y,omega
2.375,32.48,0.0,2.9743589743589745,-5.918367346938775
2.3739573510322196,31.95033767352378,-0.011584988530893884,2.910777986487865,-5.583903178122221
2.3709667902286164,31.431912620161615,-0.02164346484247582,2.849500384202856,-5.277416097616662
2.366285856631235,30.924322795016728,-0.03036690846176377,2.790386561851457,-4.995834830759823
2.360139982844516,30.42719018836522,-0.037920578057331664,2.7333090676097576,-4.736490865292491
2.3527268548201166,29.94015876909115,-0.04444751110266409,2.6781511465465777,-4.497057672666635
2.3442201130861813,29.462892669946882,-0.050071841496614165,2.624805510611935,-4.275500299709258
2.334772506475639,28.995074577662116,-0.0549015652871906,2.57317329255214,-4.0700333501901955
2.3245185884804083,28.536404297821075,-0.05903085688203789,2.523163150126084,-3.8790857960527645
2.313577029834765,28.08659746984011,-0.06254201695844731,2.474690494106868,-3.7012713799095684
2.3020526077803423,27.645384411661283,-0.06550711697958343,2.4276768189912032,-3.5353636190884687
2.2900379219228437,27.21250907719418,-0.06798939254817706,2.3820491195321623,-3.3802746152333816
2.2776148780831864,26.78772811228408,-0.07004442789245845,2.3377393794689816,-3.2350370255051573
2.2648559746392216,26.370809997207846,-0.071721165929371,2.2946841213780282,-3.0987886715880517
2.2518254202161443,25.96153426551163,-0.0730627721048247,2.2528240085799003,-2.9707593582851555
2.2385801069578477,25.559690790492372,-0.07410737520957841,2.2121034916341205,-2.8502595499667325
2.2251704597983464,25.165079131854693,-0.07488870434043927,2.172470493228977,-2.736670614676301
2.2116411789955457,24.777507936097017,-0.07543663791289983,2.1338761263007466,-2.629436395476853
2.1980318905657033,24.396794385035648,-0.07577767797424108,2.0962744410478042,-2.5280559090786796
2.1843777170676875,24.02276368759494,-0.07593536089260067,2.0596221971822968,-2.432077004825649
2.1707097793532957,23.6552486106,-0.07593061371174872,2.023878658317011,-2.341090844206574
2.157055638360304,23.29408904482565,-0.07578206398816249,1.9890054058424491,-2.2547270833625586
2.143439684727731,22.939131602997293,-0.07550630970709257,1.954966170028204,-2.172649659495622
2.1298834829166453,22.59022924681888,-0.07511815486052502,1.9217266763985756,-2.094553097375109
2.116406075590983,22.247240940430288,-0.07463081542461573,1.8892545056969086,-2.0201592648659825
2.1030242532237295,21.910031327979745,-0.07405609976708481,1.857518965975772,-1.9492145170315294
2.089752793221727,21.57847043324347,-0.07340456692183596,1.8264909755383947,-1.8814871772662107
2.0766046722885547,21.25243337943951,-0.07268566566896244,1.7961429556167219,-1.816765311394588
2.0635912552539954,20.931800127571293,-0.07190785693725524,1.766448731807939,-1.754854756974861
2.0507224631775225,20.616455231801837,-0.07107872169022114,1.7373834434082434,-1.6955773753704249
2.03800692317148,20.3062876105056,-0.07020505615469676,1.7089234598832357,-1.6387694986635224
2.025452102078046,20.001190331774005,-0.06929295599456407,1.6810463038011592,-1.584280547315632
2.013064425865317,19.701060412265157,-0.06834789081353485,1.6537305796304926,-1.5319717977401963
2.0008493863755,19.405798628390215,-0.06737477018443327,1.6269559078688596,-1.4817152817358343
1.9888116368570445,19.11530933891956,-0.06637800224285302,1.6007028640273293,-1.4333928021078877
1.9769550775380191,18.829500318173125,-0.06536154574631825,1.5749529220441776,-1.386895050845791
1.9652829323464116,18.548282599032003,-0.0643289563826535,1.5496884017460466,-1.3421208179756448
1.9537978177510507,18.271570325073682,-0.06328342801024486,1.5248924200130813,-1.29897628071519
1.942501804581806,17.99928061119202,-0.06222782942580787,1.500548845338714,-1.257374363858721
1.9313964735872737,17.731333412116093,-0.06116473718010538,1.4766422555049445,-1.217234163443068
1.9204879081609691,17.467654245992794,-0.06004154533439126,1.4531262569761543,-1.1765509439210704
1.909780737839088,17.208171075736626,-0.058927013797620345,1.4300200792034932,-1.137571819348557
1.89927329846731,16.952811359567065,-0.057822312555468935,1.4073101004583244,-1.1002063650626184
1.8889637299576232,16.701504955962015,-0.05672844866327315,1.3849832729310907,-1.064369859917798
1.878850004050865,16.454184023115317,-0.05564628363403941,1.3630270920322112,-1.0299828688043242
1.8689299491136988,16.210782923743484,-0.05457654900114202,1.3414295676548422,-0.9969708598298594
1.8592012722807059,15.97123813490181,-0.053519860254335555,1.3201791972526256,-0.9652638529508741
1.8496615792185718,15.735488162495237,-0.05247672932493182,1.2992649405981773,-0.9347960971683904
1.8403083917594896,15.503473460192449,-0.051447575775980026,1.278676196099461,-0.905505773694765
1.8311391636244396,15.275136352472963,-0.05043273683568731,1.258402778561492,-0.877334722757859
1.8221512944335143,15.050420961556316,-0.049432476396817936,1.2384348982901385,-0.8502281919402173
1.8133421421795974,14.829273137980312,-0.04844699309114747,1.2187631414432327,-0.8241346041571311
1.8047090343231549,14.611640394611651,-0.04747642753599239,1.1993784515418715,-0.7990053435616047
1.7962492776493888,14.397471843887324,-0.046520868839186075,1.180272112061749,-0.7747945578288719
1.7879601670143108,14.186718138099003,-0.045580360439455944,1.1614357300307006,-0.7514589754204397
1.779838993093186,13.979331412545445,-0.044654905350822054,1.142861220564404,-0.7289577365596516
1.771883049233109,13.775265231389678,-0.043744470872254006,1.124540792277446,-0.707252236769181
1.7640896375010515,13.57447453606865,-0.04284899281727554,1.1064669335117623,-0.6863059819272106
1.7564560740093813,13.376915596112994,-0.041968379312395145,1.0886323993288474,-0.6660844538946498
1.7489796935925386,13.182545962243946,-0.04110251420807871,1.0710301992161382,-0.6465549858517762
1.7416578539010863,12.991324421622945,-0.040251260141390514,1.053653585461656,-0.6276866465601898
1.7344879389726802,12.803210955137505,-0.03941446128534474,1.0364960421543519,-0.609450132835857
1.7274673623335257,12.61816669661425,-0.038591945816372236,1.0195512747706919,-0.5918176695821086
1.7205935696785262,12.436153893856911,-0.03778352812806565,1.0028132003108539,-0.5747629167884556
1.7138640411735175,12.25713587141339,-0.03698901081647414,0.9862759379505135,-0.5582608829526413
1.7072828768911592,12.081305948341551,-0.036135036765285324,0.9673898739587787,-0.5929056814898794
1.7008509579377198,11.908866178099192,-0.035330729384042234,0.9486075731785358,-0.6287794638403531
1.6945594956719892,11.739798114913356,-0.03457440690185333,0.9299264622196552,-0.6657763000847864
1.6884000048277055,11.574083766838495,-0.033864380256854655,0.9113440719454725,-0.703791742766298
1.6823643046058185,11.411705577217802,-0.033198955541889036,0.8928580349511134,-0.7427225928900975
1.6764445193541613,11.252646406564427,-0.032576436143190016,0.874466083419706,-0.7824666670778192
1.6706330788882162,11.096889514794437,-0.03199512458953262,0.8561660473579737,-0.8229225648407523
1.6649227185037403,10.944418543742799,-0.031453324126866675,0.8379558532157705,-0.863989434912186
1.6593064787295284,10.795217499892615,-0.030949340031043916,0.8198335228973775,-0.9055667395464524
1.6537777048665365,10.649270737246024,-0.0304814806688638,0.8017971731758783,-0.947554015650526
1.6483300463579644,10.506562940262878,-0.030048058315271912,0.7838450155257228,-0.9898506315626519
1.6429574560336988,10.367079106790218,-0.029647389732123296,0.7659753563927395,-1.0323555382307494
1.6376541892717777,10.230804530901583,-0.029277796511444888,0.7481865979254207,-1.074967013470515
1.6324148031192265,10.097724785560622,-0.028937605183568353,0.7304772391963812,-1.1175823978983754
1.627234155414801,9.967825705017578,-0.02862514708782597,0.712845877948543,-1.1600978210367878
1.622107403956836,9.841093366840582,-0.02833875800067512,0.6952912129069547,-1.2024079159778398
1.6170300057605957,9.71751407347557,-0.028076777513104622,0.6778120467043036,-1.2444055208646265
1.611997716451282,9.597074333219318,-0.0278375481459387,0.660407289476278,-1.285981365307404
1.6070065898412143,9.479760840479162,-0.027619414188147152,0.643075963192124,-1.3270237396920193
1.6020529777427308,9.365560455180216,-0.027420720239443915,0.6258172067961923,-1.3674181451607081
1.5971335300720981,9.25446018116622,-0.027239809434254653,0.6086302822481914,-1.4070469218493646
1.5922451953042605,9.14644714342317,-0.027075021319495143,0.5915145815634609,-1.4457888527505993
1.5873852213436952,9.041508563935146,-0.026924689353454774,0.5744696349701243,-1.4835187403387553
1.5825511568830233,8.939631735959239,-0.02678713798734275,0.5574951203177265,-1.5201069528430031
1.577740853328545,8.840803996480343,-0.026660679284636012,0.5405908738922334,-1.5554189367907405
1.5729524673805737,8.745012696576659,-0.026543609026159955,0.523756902815364,-1.5893146921710755
1.5681844643665552,8.652245169392351,-0.026434202240710122,0.5069933992324887,-1.6216482062958564
1.563435622436626,8.562488695374352,-0.026330708091836227,0.4903007565230457,-1.6522668421770237
1.5587050377446727,8.475730464385197,-0.026231344040978363,0.47367958780088293,-1.6810106770144506
1.5539921307534126,8.391957534252285,-0.026134289195246928,0.4571307470092524,-1.7077117862283588
1.5492966538197361,8.311156785255381,-0.02603767673449056,0.44065535295633274,-1.7321934684195652
1.5446187002369438,8.233314869987957,-0.025939585296533473,0.4242548166817204,-1.7542694067644016
1.5399587149339575,8.158418157953381,-0.02583802918109264,0.40793087259135796,-1.773742762743572
1.535317507058649,8.08645267417402,-0.02573094721122592,0.39168561384599043,-1.790405198901773
1.5306962647037665,8.017404030999895,-0.025616190065245202,0.37552153253316933,-1.8040358287340108
1.526096572070455,7.951257352204845,-0.02549150586043814,0.35944156518959314,-1.8144000940779317
1.521520429407265,7.887997188354351,-0.025354523730559634,0.34344914426032214,-1.8212485739661808
1.5169702761135364,7.827607422324608,-0.025202735088648624,0.32754825607014904,-1.8243157343450822
1.5124490174575322,7.770071163754643,-0.025033472200287003,0.3117435058183354,-1.8233186362410425
1.5079600554353196,7.7153706311348245,-0.024843883602074304,0.29604018995742903,-1.8179556320736125
1.5035073243915325,7.663487020196083,-0.024630905773340303,0.2804443760286013,-1.8079050976349336
1.499095332146199,7.614400357296528,-0.02439123028591923,0.2649629895219881,-1.792824273321179
1.4947292075358334,7.56808933665512,-0.024121265384810787,0.24960390649365566,-1.7723483261762012
1.4904147555026714,7.5245311406313355,-0.023817090539211487,0.23437604932615536,-1.7460897994519027
1.4861585211864736,7.483701242910133,-0.023474401862984388,0.21928948090942296,-1.7136386962037822
1.481967864942181,7.445573195594022,-0.023088445295822293,0.2043554892695779,-1.6745635584764036
1.4778510509107554,7.410118403081508,-0.022653932831129528,0.1895866497583734,-1.6284140684041335
1.4738173528512009,7.377305888586953,-0.022164934497254755,0.17499684462557202,-1.574725931216302
1.4698771826297066,7.347102063738262,-0.02161473463045991,0.16060120924876342,-1.5130291260934787
1.4660422494326226,7.319470518543817,-0.020995634226027904,0.14641595957841666,-1.4428610530576786
1.4623257620315981,7.294371858941709,-0.020298670229800267,0.1324580360005663,-1.3637866753280443
1.4587426932562648,7.271763632858889,-0.019513205051682518,0.11874447603075136,-1.2754284278200447
1.4553101367611627,7.251600403318442,-0.01862631156056094,0.10529140775199677,-1.1775092933512226
1.45204780359634,7.233834046774707,-0.01762183471524854,0.09211255384504692,-1.0699126440693636
1.4489787336781692,7.218414369838417,-0.016478942153315076,0.07921718989150747,-0.9527613033555281
1.446130340895837,7.205290131044258,-0.015169866539264186,0.06660768559912998,-0.8265140491836243
1.4435359814624784,7.194410491078017,-0.013656349386943838,0.05427720291466602,-0.6920677341918587
1.4412373623144092,7.185726731469735,-0.011883863369378588,0.042209014955137875,-0.5508348284428028
1.4392883906971554,7.179193673832369,-0.009771376822332475,0.030380514348947344,-0.4047415026055645
1.437761928760941,7.174769373577682,-0.00718931135782667,0.018778377369802167,-0.256073682677044
1.4367646265432916,7.172409204135022,-0.0038918243938346744,0.007445727548661733,-0.10711235177553438
