x,y,v_x,v_y,omega
2.375,32.48,0.0,2.4615384615384617,-6.163265306122449
2.3735425527081606,31.92025277420036,-0.012673454711646872,2.4058287193279306,-5.79511360409595
2.369372041608371,31.37306814830394,-0.023591859199568993,2.352298462380081,-5.459590961872317
2.3628654038027976,30.837961633398507,-0.03298759997932783,2.3008016672323817,-5.152896301225397
2.354350016408046,30.314480663887068,-0.04105924693155445,2.251206763301876,-4.871759688486819
2.3441108377143816,29.802201502244426,-0.04797708953509506,2.2033946422862973,-4.613356382890395
2.3323963929938607,29.300726561134,-0.05388764716508514,2.1572570195435077,-4.375236733037069
2.319423816150211,28.80968207045583,-0.058917368866651554,2.112695073310162,-4.155268625723209
2.3053831147259203,28.328716031918653,-0.06317568699674485,2.069618305273978,-3.9515899574554707
2.2904407922874426,27.85749641522014,-0.06675755159871363,2.027943579060887,-3.762569167976149
2.2747429362463483,27.39570955879082,-0.06974554441080376,1.9875943029332128,-3.5867723025435616
2.258417858851929,26.943058744966173,-0.07221165032328007,1.9484997303245752,-3.4229353941349
2.241578363042165,26.499262924877467,-0.07421874802249093,1.9105943574033204,-3.26994120535241
2.2243236920639817,26.06405557264751,-0.07582186917910042,1.873817401118032,-3.126799562021352
2.2067412115283154,25.637183651905175,-0.07706926591365276,1.8381123444674894,-2.992630660282898
2.1889078642945563,25.218406680387524,-0.07800331872773018,1.8034265382947208,-2.86665084663963
2.170891431861182,24.80749588062923,-0.07866131112769642,1.7697108509078272,-2.7481604634557537
2.152751630452721,24.404233406557648,-0.07907609242413972,1.736919358410276,-2.636533426473574
2.13454106548908,24.00841163730447,-0.07927664639013123,1.7050090698782494,-2.5312082602112205
2.1163060644083247,23.619832530777988,-0.07928858039904454,1.6739396825259214,-2.4316803648606014
2.098087404736621,23.23830703056472,-0.0791345471809849,1.6436733628068314,-2.337495326959729
2.0799209517395383,22.863654520585822,-0.07883460931539121,1.6141745500531672,-2.2482431175568607
2.0618382178521326,22.49570232265418,-0.07840655492291906,1.5854097797872084,-2.1635530472782425
2.043866854295135,22.134285232686974,-0.07786617165966543,1.5573475242754349,-2.0830893687984706
2.026031083779943,21.779245091845944,-0.07722748499417756,1.5299580482552633,-2.0065474345889753
2.0083520819366005,21.430430389319437,-0.07650296581749783,1.5032132780621947,-1.9336503321939422
1.9908483140263447,21.087695893839467,-0.07570371166298817,1.4770866826331908,-1.8641459312161586
1.9735688353352605,20.750909795112428,-0.07455262478122252,1.4514880889062898,-1.7903437742300132
1.9565571831555408,20.419945411857736,-0.07337478547720916,1.4264630698301481,-1.7203052004424262
1.9398188142999457,20.094673447344867,-0.0721762480497054,1.4019887954991332,-1.653789564183146
1.9233578772939872,19.774969719204428,-0.07096233461080273,1.378043623113397,-1.5905745349703504
1.9071773711536246,19.460714895399846,-0.06973771878365431,1.3546070186655843,-1.5304544827533806
1.8912792860487275,19.15179424749099,-0.06850649951979976,1.3316594848896643,-1.473239024608975
1.8756647279829144,18.84809741981769,-0.06727226626987817,1.3091824948781643,-1.4187517148592788
1.860334029355493,18.549518213360145,-0.0660381565772637,1.2871584308395974,-1.3668288628036387
1.845286847041431,18.255954383148207,-0.06480690702327646,1.2655705275251055,-1.317318464179755
1.8305222494256252,17.96730744819392,-0.06358089833155615,1.244402819903472,-1.2700792341371896
1.8160387936539764,17.683482513013637,-0.0623621953349568,1.2236400947076762,-1.2249797309546007
1.801834594212337,17.40438809988804,-0.0611525824184288,1.2032678455149237,-1.1818975609926452
1.787907383812243,17.12993599108235,-0.059953594973694554,1.1832722310562838,-1.1407186564737002
1.7742545674468209,16.860041080315412,-0.058766547334323335,1.1636400364823105,-1.1013366186398486
1.7608732703791934,16.594621232826093,-0.05759255760156887,1.1443586373378367,-1.063652119680985
1.7477603807371231,16.333597153439605,-0.0564325697207791,1.12541596602294,-1.0275723575616817
1.7349125873099456,16.076892262085064,-0.0552873731242429,1.1068004805382743,-0.993010558522469
1.722326413075578,15.824432576259998,-0.05415762021808482,1.088501135331859,-0.9598855226002905
1.7099982449253888,15.576146599977484,-0.05304384195747394,1.0705073540812993,-0.9281212080142751
1.6979243600018687,15.331965218768175,-0.051946461725308805,1.0528090042605212,-0.89764635070535
1.6861009490174863,15.091821600342545,-0.050865807704104184,1.0353963733536522,-0.868394115709141
1.6745241368820312,14.85565110054893,-0.049802123908548726,1.0182601465908405,-0.840301777387552
1.663190000929477,14.623391174290433,-0.048755580026703445,1.001391386091746,-0.813310425850995
1.652094587003325,14.394981291088968,-0.047726280200708154,0.9847815113122951,-0.7873646971753112
1.6412434156482218,14.17048651716938,-0.04663173158279719,0.9673469575536915,-0.7840299205836495
1.6306397087612932,13.94998622103451,-0.04557441526006015,0.9500469218799523,-0.7833859374666053
1.6202748906503008,13.733449941251532,-0.044554437879004746,0.9328772501459461,-0.7852864759516641
1.6101403775793806,13.520848151082408,-0.043571762737692345,0.9158339687160153,-0.7895902935636244
1.6002276092541732,13.31215221799049,-0.04262622269889344,0.8989132755615332,-0.7961608166281007
1.5905280774579136,13.107334365116628,-0.041717532051189964,0.8821115320372768,-0.8048657960593623
1.5810333520712243,12.906367634573186,-0.04084529739828152,0.8654252552969913,-0.8155769779520949
1.5717351046906571,12.709225852413056,-0.04000902765012895,0.8488511113128291,-0.8281697874822614
1.5626251300447946,12.51588359513833,-0.03920814318345668,0.8323859084673927,-0.8425230246964334
1.5536953653918468,12.32631615762012,-0.03844198423348275,0.8160265916909701,-0.8585185708324237
1.5449379080690433,12.140499522306833,-0.03770981857350349,0.7997702371202298,-0.8760411038673144
1.5363450313516707,11.95841032960331,-0.03701084853408493,0.783614047258207,-0.8949778220324751
1.5279091987682085,11.780025849307446,-0.0363442174090644,0.7675553466188899,-0.9152181740692232
1.519623077007666,11.605323952994311,-0.035709015291305886,0.7515915778431411,-0.9366535950236149
1.511479547545794,11.434283087240598,-0.03510428437714628,0.7357202982761178,-0.959177246394587
1.5034717171083334,11.266882247583865,-0.03452902377468331,0.7199391769998083,-0.9826837594563353
1.4955929270817871,11.103100953112335,-0.03398219384745793,0.7042459923178415,-1.0070689805733366
1.4878367619753408,10.942919221581043,-0.033462720121643245,0.6886386296933875,-1.032229717314657
1.4801970570314746,10.78631754494965,-0.032969496781538876,0.673115080144798,-1.0580634841528915
1.472667905077478,10.633276865235612,-0.03250138977495407,0.6576734391077035,-1.0844682465019138
1.465243662705463,10.483778550573913,-0.032057239546914806,0.6423119057766319,-1.1113421618061923
1.4579189558646106,10.33780437137105,-0.031635863417019815,0.6270287829439231,-1.1385833163422425
1.4506886849461966,10.195336476436232,-0.031236057612666058,0.6118224773588473,-1.1660894563293127
1.4435480294395082,10.056357368966882,-0.030856598967233938,0.5966915006354904,-1.1937577118710254
1.4364924522350262,9.920849882258214,-0.030496246289131872,0.581634470744225,-1.221484312161815
1.42951770365028,9.788797154997841,-0.03015374140431259,0.5666501141285667,-1.249164290290995
1.4226198252535673,9.6601826059959,-0.029827809871450648,0.5517372684970218,-1.2766911758626114
1.4157951535613331,9.534989908188685,-0.029517161365369513,0.536894886348326,-1.303956673520486
1.4090403236864604,9.413202961739312,-0.029220489720480754,0.5221220392983804,-1.3308503253248565
1.402352273017087,9.294805866041834,-0.02893647262189548,0.5074179232884022,-1.357259154770031
1.3957282450089143,9.17978289041552,-0.02866377092743185,0.49278186476650315,-1.3830672900623484
1.3891657931783854,9.068118443253205,-0.02840102759890664,0.47821332794929305,-1.4081555640962875
1.3826627853896953,8.9597970393611,-0.028146866215789258,0.4637119232863971,-1.4324010883769758
1.3762174085354606,8.854803265197205,-0.027899889038427064,0.44927741726920645,-1.4556767979448126
1.3698281737191667,8.75312174168046,-0.027658674581519903,0.43490974374595937,-1.477850964170517
1.363493922057403,8.654737084202889,-0.02742177465120871,0.4206090169285796,-1.4987866721188627
1.3572138312315605,8.55963385943129,-0.027187710790899888,0.4063755463027102,-1.5183412590447534
1.3509874229323742,8.467796538433152,-0.026954970071589163,0.39220985368110606,-1.5363657105126214
1.3448145713566915,8.379209445602566,-0.02672200015173936,0.37811269267182174,-1.5527040106577052
1.3386955129345113,8.293856702795718,-0.02648720351939266,0.3640850708659907,-1.5671924432908222
1.3326308574860863,8.211722168011416,-0.026248930814736362,0.3501282750844672,-1.5796588409659233
1.3266216010342586,8.13278936787021,-0.026005473114199765,0.3362439000564684,-1.5899217798951828
1.3206691405269289,8.05704142305634,-0.025755053036493836,0.3224338809336865,-1.5977897198712758
1.3147752907595907,7.984460965791445,-0.02549581450557696,0.3087005300654092,-1.6030600903715868
1.3089423038294974,7.915030048310275,-0.02522581097349457,0.29504657846651006,-1.6055183271038382
1.3031728915031167,7.848730041211876,-0.024942991864598446,0.2814752223891235,-1.6049368678778364
1.2974702509397256,7.78554152047273,-0.02464518694749896,0.26799017534257,-1.6010741235269226
1.2918380942902254,7.72544414184507,-0.024330088265545346,0.2545957257675222,-1.5936734496187372
1.2862806827874202,7.668416501345167,-0.023995229150151367,0.24129680031859133,-1.5824621592672041
1.2808028660711195,7.614435980595964,-0.023637959687245736,0.22809903228318182,-1.5671506384592462
1.2754101276624992,7.563478575976561,-0.023255417779017244,0.2150088339724975,-1.5474316557574643
1.2701086377390862,7.515518710924411,-0.022844494598486847,0.2020334708287945,-1.5229800020372146
1.2649053146991847,7.470529031448891,-0.02240179270500598,0.18918113330616942,-1.4934526587058372
1.2598078974976903,7.428480186116193,-0.021923574264509308,0.1764610000216295,-1.4584897824716594
1.2548250314722733,7.389340593700698,-0.021405695521724395,0.1638832818522364,-1.4177169217998873
1.249966371501358,7.353076204715606,-0.02084352161666895,0.15145923106159676,-1.370749058472785
1.2452427080702992,7.319650267614442,-0.020231812566450562,0.13920109155722718,-1.3171973135383837
1.2406661245330828,7.289023117214185,-0.01956456601803964,0.12712195540151344,-1.256679486381527
1.236250198121774,7.261152012547587,-0.018834794080297156,0.11523547648195537,-1.188836015351689
1.2320102639838546,7.235991064534058,-0.018034198423349933,0.10355537580960712,-1.1133534335646451
1.2279637721253824,7.213491310584949,-0.01715268730249542,0.09209465853047105,-1.0299978390465592
1.2241307837422186,7.193601011727257,-0.016177646464146767,0.08086446197119747,-0.9386610210900813
1.2205346792469505,7.176266261901432,-0.015092827407750344,0.06987249303597025,-0.8394210531521282
1.2172031903771714,7.161431993695949,-0.013876641025112126,0.059121143533443235,-0.7326161732307966
1.214169932418123,7.149043408882314,-0.012499515140526822,0.04860568093294767,-0.6189237719455158
1.2114767233506305,7.139047700385426,-0.0109196941420166,0.03831352338781089,-0.49942352361994236
1.2091772136308012,7.131395575448678,-0.009076042552151404,0.02822669345346581,-0.375606149221445
1.2073430276602657,7.126041361026228,-0.006873400669896949,0.018331692828701698,-0.249275361399278
1.2060762779838947,7.122938604625048,-0.004141813907242874,0.008648797616339195,-0.12229625975552075
