x,y,v_x,v_y,omega
2.375,32.48,0.0,2.1025641025641026,-6.408163265306122
2.37397284641532,32.0427251505747,-0.009782415092192067,2.061958272914942,-6.099190059893952
2.371009180466861,31.613844267361824,-0.0184429748931318,2.022621567207652,-5.811790199001953
2.366331896726325,31.193098376422554,-0.02610258454054176,1.984482156023487,-5.543940156609322
2.3601400168790154,30.780242946936852,-0.03286769971954892,1.947474315268938,-5.29384776827059
2.3526115167660535,30.375046685292983,-0.038832301356279054,1.911537700386947,-5.059921171029323
2.343905771391961,29.977290470058296,-0.04407955934936428,1.8766167304195804,-4.84074255980773
2.334165677283068,29.586766406824395,-0.04868324168771426,1.842660062284261,-4.635045907469777
2.3235195009703205,29.20327698562858,-0.05270891367178329,1.8096201395806295,-4.441697966166425
2.3120824939182794,28.826634326623388,-0.056214963014324035,1.7774528033259764,-4.259682000050594
2.299958307437364,28.4566595020587,-0.05925347966105842,1.7461169544329602,-4.088083803274459
2.287240235629635,28.093181924580055,-0.06187101374588547,1.7155742596493713,-3.926079639168325
2.274012309950616,27.736038793426662,-0.06410923081620078,1.6857888941924664,-3.772925801704134
2.2603502653082517,27.385074591407083,-0.0660054800634614,1.6567273155178055,-3.627949552550187
2.246322394601485,27.04014062659642,-0.06759328857240862,1.6283580636314008,-3.4905412290821083
2.231990306098428,26.701094613580892,-0.06890279240908845,1.6006515841354836,-3.3601473528003334
2.21740959596862,26.367800289809338,-0.06996111358907926,1.5735800708316963,-3.2362645953817233
2.202630446537574,26.040127063223753,-0.07079269051612463,1.547117325221501,-3.1184344823481758
2.187698159362859,25.717949687855583,-0.071419568290682,1.521238630665834,-3.006238733068205
2.17265363099023,25.401147964507796,-0.07186165430578728,1.4959206393131013,-2.8992951513009957
2.157559744406591,25.08961598736253,-0.07188964649077424,1.4710505715941735,-2.791233799532581
2.142472328929637,24.783251922394424,-0.07180002471831079,1.4467024281021104,-2.6883508244313883
2.1274147843169002,24.481948263114255,-0.07160516206965814,1.4228562317090208,-2.5903340111890185
2.1124080364621816,24.18560159176231,-0.07131624607052063,1.3994930192618689,-2.4968936100270014
2.097470774002271,23.894112373395323,-0.07094339640481588,1.3765947747094467,-2.4077604549571405
2.0826196615212487,23.60738476344187,-0.07049577008111332,1.3541443677043736,-2.3226842623503106
2.067869531834649,23.325326427633414,-0.06998165550554941,1.332125497138068,-2.241432089952243
2.053233559549839,23.047848373325294,-0.06940855673073526,1.3105226391297327,-2.1637869393111604
2.038723417849,22.77486479131694,-0.06878326899154272,1.289320999045083,-2.089546486598853
2.0243494202222037,22.506292907364557,-0.06811194650175538,1.2685064671680806,-2.0185219285592857
2.0101206486859704,22.24205284265442,-0.06740016336713194,1.2480655776903595,-1.9505369318451313
1.996045069853811,21.982067482571416,-0.0666529683677204,1.227985470719223,-1.8854266753348594
1.9821296400765358,21.726262353157033,-0.065874934272996,1.2082538570368044,-1.823036976188254
1.968380400738928,21.47456550470423,-0.06507020227564934,1.1888589853708242,-1.76322349141947
1.9548025646834746,21.2269074019843,-0.06424252206200312,1.1697896119618887,-1.7058509876634917
1.9414005946293045,20.983220820643737,-0.06339528797771184,1.1510349722339013,-1.6507926726007685
1.9281782743636242,20.743440749347883,-0.06253157169543537,1.13258475439328,-1.5979295822000676
1.9151387734023173,20.50750429728263,-0.061654151745581406,1.1144290747996257,-1.5471500185533975
1.9022847057447618,20.275350606657287,-0.060765540231138206,1.096558454965531,-1.4983490336196363
1.8896181832841963,20.04692076987996,-0.059868007012342996,1.0789638000566217,-1.4514279546742712
1.877140864378238,19.822157751102658,-0.058963601615832154,1.0616363787748566,-1.4062939476891276
1.864853998033552,19.60100631185682,-0.058054173095462486,1.0445678045187883,-1.3628596152448742
1.852758464113518,19.383412940521325,-0.05714138804771884,1.0277500177240337,-1.3210426259162085
1.8408548099373783,19.169325785384245,-0.05622674696313399,1.0111752692957658,-1.2807653723699974
1.8291432836032588,18.958694591077656,-0.05531159907609913,0.99483610505273,-1.241954655684636
1.8176322928787085,18.751633502938184,-0.054316884014856015,0.9771742581803194,-1.2350548330023239
1.8063274230762765,18.54826779877854,-0.05334854267497439,0.9596419719115368,-1.2307289803235646
1.795223093654466,18.3485706726416,-0.05240697562798387,0.9422354198688441,-1.2288365022937722
1.7843136549960468,18.152516104859938,-0.051492440166483376,0.9249509399565264,-1.2292411372971879
1.7735934172767434,17.96007882833127,-0.05060506192212187,0.9077850269831547,-1.2318106390271328
1.7630566769874367,17.77123429628275,-0.04974484559508316,0.8907343258599237,-1.2364164707135716
1.752697741289794,17.585958651406123,-0.048911684858657344,0.8737956253460233,-1.2429335107155428
1.7425109503724103,17.404228696251646,-0.04810537149737553,0.8569658523156602,-1.2512397682446441
1.7324906979627785,17.22602186477341,-0.04732560383245284,0.8402420665246724,-1.2612161080357176
1.7226314501395628,17.051316194923245,-0.04657199448388793,0.8236214558578681,-1.2727459828225924
1.7129277625797352,16.880090302193828,-0.045844077514468645,0.807101332041349,-1.2857151725105302
1.7033742963660206,16.712323354014735,-0.04514131499709969,0.7906791268071365,-1.3000115289631353
1.693965832471782,16.547995044907438,-0.044463103043269024,0.7743523885004742,-1.3155247253401217
1.6846972850328956,16.387085572306948,-0.04380877732707604,0.7581187791232453,-1.332146008933589
1.6755637135092696,16.22957561295895,-0.04317761813602948,0.7419760718100572,-1.3497679564543903
1.6665603338324266,16.075446299801534,-0.0425688549767614,0.7259221487367491,-1.368284230716787
1.6576825286299752,15.924679199240412,-0.041981670760869914,0.7099549994644093,-1.3875893376588078
1.64892585661279,15.777256288725475,-0.04141520559327469,0.6940727197254793,-1.4075783826174582
1.6402860612063104,15.633159934534767,-0.04086856018272113,0.678273510662233,-1.4281468247520308
1.63175907850353,15.492372869669385,-0.04034079889137903,0.662555678531883,-1.449190228475055
1.6233410446139636,15.354878171759367,-0.03983095243782473,0.6469176348968544,-1.4706040107087368
1.615028302480162,15.220659240876238,-0.039338020265049074,0.6313578973234169,-1.4922831827348852
1.6068174082311721,15.089699777142496,-0.0388609725824713,0.6158750906169691,-1.5141220853481718
1.598705137140748,14.961983758021788,-0.03839875208823534,0.600467948627875,-1.5360141159560496
1.5906884892570776,14.837495415165726,-0.03795027537529197,0.5851353166679533,-1.5578514461938526
1.5827646947703724,14.716219210684208,-0.037514434021898475,0.5698761545846032,-1.5795247285407494
1.574931219184836,14.598139812695369,-0.03709009536416377,0.5546895405472017,-1.6009227903319294
1.5671857683623638,14.483242069998973,-0.03667610294509677,0.539574675608937,-1.62193231346566
1.5595262935068486,14.371510985702773,-0.03627127663123836,0.5245308891167555,-1.642437498002319
1.551950996160214,14.26293168961498,-0.03587441238432868,0.5095576450527007,-1.662319707748731
1.5444583332843487,14.157489409197265,-0.035484281671529366,0.49465454940172865,-1.6814570958189177
1.5370470225070285,14.055169438851394,-0.0350996304934251,0.47982135865417874,-1.699724208067254
1.5297160476147675,13.95595710728832,-0.03471917800429849,0.465057989565553,-1.7169915622099874
1.5224646643814546,13.859837742701163,-0.03434161469391965,0.4503645303121284,-1.733125200397421
1.515292406828701,13.76679663543258,-0.03396560009420874,0.4357412531981744,-1.7479862129877568
1.508199094022224,13.676818997792424,-0.0335897599674781,0.421188629089017,-1.7614302313269155
1.501184837518476,13.589889920642904,-0.03321268292536076,0.40670734376357265,-1.7733068874877433
1.494250049587345,13.505994326325762,-0.03283291641874342,0.39229831639968965,-1.7834592392101194
1.4873954523503616,13.4251169174592,-0.03244896202871793,0.3779627204247187,-1.7917231587706375
1.480622087989836,13.347242121081635,-0.032059269976288045,0.36370200698064475,-1.7979266852800182
1.4739313302031902,13.272354027565793,-0.03166223275367115,0.34951793126545355,-1.8018893410736425
1.4673248970990884,13.200436323671184,-0.03125617776158401,0.33541258201653845,-1.8034214145856704
1.4608048657587012,13.131472219048241,-0.03083935881353285,0.3213884143924214,-1.802323214602204
1.4543736887178085,13.06544436545687,-0.03040994633782506,0.30744828647777483,-1.798384304382196
1.448034212665221,13.002334767921663,-0.02996601606777071,0.2935954995717933,-1.791382729244543
1.4417896997027446,12.942124687024705,-0.029505535955814358,0.27983384230399333,-1.7810842584410067
1.435643851575402,12.884794531547712,-0.02902635097125855,0.26616763842928864,-1.7672416722935913
1.4296008373634201,12.83032374073846,-0.02852616533332942,0.25260179784929676,-1.7495941398176897
1.42366532523799,12.778690655620885,-0.028002521575530716,0.2391418699371381,-1.7278667519633144
1.4178425190336323,12.729872379036365,-0.027452775608826085,0.22579409753448842,-1.7017703033654197
1.4121382006004395,12.683844624556695,-0.026874066612059398,0.21256546893857295,-1.6710014540711775
1.4065587791989005,12.640581555133817,-0.026263280069264854,0.19946376366027083,-1.6352434560958886
1.4011113496336958,12.60005561346977,-0.025617001504113692,0.18649758552111595,-1.5941677030765469
1.3958037614601735,12.5622373477703,-0.024931457291335335,0.1736763735214782,-1.547436461311038
1.390644702545081,12.527095239011278,-0.02420243713811822,0.16101037656443976,-1.4947072747358454
1.3856438016853567,12.494595539383624,-0.023425190097350584,0.14851057227035044,-1.4356397124370157
1.3808117571354543,12.464702136521655,-0.02259428180648023,0.13618850260555024,-1.3699053492715183
1.3761605011427585,12.43737646478261,-0.02170339431443392,0.12405599014726305,-1.2972021313508693
1.3717034155061698,12.412577493381441,-0.020745040319742773,0.11212468986385993,-1.217274544967508
1.3674556205822461,12.390261831216208,-0.019710149431911617,0.10040542599549457,-1.129941188920618
1.36343437126145,12.370383998107712,-0.01858746314709798,0.08890727027588201,-1.035131243377241
1.359659609955173,12.352896917679725,-0.017362644531730927,0.07763635284780929,-0.9329305381664911
1.3561547512494545,12.337752679175708,-0.016016962189397774,0.06659449004758858,-0.8236357798135656
1.3529478105997208,12.324903577275776,-0.014525329712827965,0.05577790899937865,-0.7078110851761381
1.3500730526650115,12.314303342583042,-0.012853317284402598,0.045176707121888385,-0.5863335643911393
1.3475734619500166,12.305908278506536,-0.01095230857269128,0.03477628408293194,-0.46040501689064517
1.3455046640664985,12.299677646801065,-0.008750528413195555,0.024563065492984905,-0.33149892934125935
1.3439419983302776,12.295571832401176,-0.006132002407956475,0.014539928791654663,-0.20121349163449048
1.342997346315337,12.293543864281236,-0.00286468344862056,0.004774053302996014,-0.07102368174898666
