x,y,v_x,v_y,omega
2.375,32.48,0.0,2.9743589743589745,-3.7142857142857144
2.3738898749751844,31.80466825153367,-0.009653261085352636,2.898091012304743,-3.45204746775188
2.3707401835599593,31.14648207464564,-0.017735359916606033,2.8252670475911574,-3.2176286521414195
2.3658840576956464,30.50467766827699,-0.024491821512200015,2.7556408338753644,-3.0072231447584468
2.3596029326079173,29.878545092087798,-0.03012665751153035,2.6889902634219527,-2.8176383381837944
2.3521352094630767,29.267423072867583,-0.03481006548708515,2.6251142515364365,-2.6461829495859877
2.3436833270369055,28.67069446843847,-0.038684564305708984,2.5638301348036756,-2.490577650412814
2.3344195622258397,28.08778228288267,-0.0418699123122544,2.504971478725028,-2.348883414572827
2.3244908090980054,27.518146148061,-0.04446707140804168,2.448386215376446,-2.2194437269600042
2.314022532776663,26.96127920254923,-0.046561418342764345,2.393935049943306,-2.1008377092177106
2.3031220534404993,26.41670531163389,-0.04822535849344278,2.3414900884509544,-1.9918418997043443
2.291881283997978,25.883976581817898,-0.049520462745870554,2.2909336490793915,-1.8913989347356832
2.280379020277063,25.36267113106021,-0.05049922178382512,2.242157227074426,-1.7985917640544633
2.2686828631960974,24.85239108219927,-0.05120649196370338,2.1950605891076576,-1.7126223276502501
2.2568508371040292,24.3527607520439,-0.05168069144558411,2.1495509774607915,-1.6327938469324772
2.2449327563666097,23.863425012721684,-0.051954793227628616,2.1055424079497835,-1.5584960578629565
2.232971382625044,23.384047805252706,-0.05205715235120176,2.0629550483021757,-1.4891928494653028
2.2210034074281793,22.914310788115685,-0.05201219718675267,2.021714665932825,-1.424411877385308
2.209060288727127,22.45391210590963,-0.05184100890935625,1.9817521358589587,-1.3637358057682627
2.1971689647047645,22.00256526517636,-0.05156180867640216,1.943003000952055,-1.3067948968233072
2.1853524643454287,21.559998106106715,-0.05119036836129985,1.905407077914433,-1.2532607199774033
2.1736304308400713,21.125951860261523,-0.05074035777224521,1.8689081033480808,-1.20284079446431
2.16201957121848,20.7001802856406,-0.05022363893724287,1.8334534150947637,-1.1552740128311068
2.1505340433840825,20.28244887146388,-0.04965051614447676,1.7989936647027578,-1.110326719935895
2.13918578990436,19.872534105917197,-0.04902994889658654,1.7654825574423405,-1.067789343918103
2.1279848264063386,19.470222800882812,-0.04836973369490601,1.7328766167696792,-1.0274734934081884
2.1169394911823023,19.07531146834185,-0.04767665955758048,1.7011349705430023,-0.9892094497363023
2.1060566615781298,18.687605743715956,-0.04695664134827102,1.670219156638711,-0.952843994751772
2.095341941876975,18.306919851923006,-0.046214834313941744,1.6400929459086717,-0.9182385245917647
2.0847998266735375,17.933076112366273,-0.04545573267247291,1.6107221806716456,-0.8852674077462165
2.0744338431336606,17.565904479466965,-0.044683254630802666,1.5820746271484094,-0.8538165523816891
2.064246675030234,17.205242115694624,-0.043900815833774816,1.5541198404371694,-0.8237821533686758
2.0542402710226013,16.85093299435374,-0.04311139292825083,1.526829040787899,-0.7950695940129943
2.0444159392894274,16.502827529654503,-0.04231757866456452,1.5001750000750316,-0.767592481289692
2.0347744303230697,16.16078223183445,-0.04152162973854916,1.4741319374906368,-0.741271796552526
2.0253323382094974,15.824661023193602,-0.040583519075120755,1.4486611811254377,-0.7120509546123589
2.016104320151005,15.494333182725704,-0.03966011621611858,1.423754822943254,-0.6843104036434956
2.007086901995041,15.169671436674456,-0.03875221557487398,1.3993907948936748,-0.6579561679897196
1.9982764467856193,14.850553458818258,-0.03786043842009597,1.3755481429863208,-0.6329013675587252
1.9896691918700502,14.536861622326263,-0.036985256497895413,1.3522069569440707,-0.6090655979372064
1.981261280924702,14.228482767186428,-0.03612701259208949,1.3293483051414676,-0.5863743718097545
1.973048791557281,13.925307982042892,-0.0352859384289622,1.3069541743675386,-0.564758614928142
1.9650277590561798,13.627232399380858,-0.03446217027626753,1.2850074139979526,-0.5441542106959041
1.957194196782525,13.334155003087858,-0.033655762538120915,1.2634916842020458,-0.5245015881434857
1.949544113635921,13.045978447502286,-0.03286669960626026,1.2423914078463953,-0.5057453486869925
1.9420735289690174,12.762608887134231,-0.032094906192902214,1.2216917257888695,-0.4878339276017963
1.934778485277713,12.483955816310637,-0.03134025634017988,1.2013784552858742,-0.4707192866119723
1.9276550589519474,12.209931918057713,-0.030602581275172045,1.1814380512612845,-0.4543566344072003
1.9206993693357262,11.940452921588673,-0.02988167625718824,1.1618575702086291,-0.438704172258365
1.913907586313506,11.675437467815016,-0.02917730654472511,1.1426246365188089,-0.4237228622185083
1.9072759366126786,11.414806982345265,-0.02848921259290548,1.1237274110442352,-0.4093762156728768
1.9008007089880392,11.15848555547657,-0.02781711457787049,1.1051545617270209,-0.3956301002456084
1.894478258433382,10.90639982872256,-0.02716071633219302,1.0868952361339341,-0.38245256328543487
1.888305009547246,10.658478887455395,-0.026519708764642082,1.0689390357544395,-0.3698136703423606
1.8822774591640554,10.414654159271635,-0.025893772828318676,1.0512759919304309,-0.35768535721482086
1.876392178348092,10.174859317720436,-0.02528258209310437,1.0338965432973817,-0.3460412942950957
1.8706458138356803,9.939030191059167,-0.024685804971344073,1.016791514626695,-0.334856762072155
1.8650350890004241,9.707104675725759,-0.024103106639578962,0.9999520969681577,-0.32410853676770784
1.859556804407082,9.479022654239458,-0.023534150693829203,0.9833698289996773,-0.31377478518483826
1.8542125700511105,9.254834598648369,-0.022937452401575843,0.9660915239663215,-0.3228183092792806
1.8490021849934513,9.034606017465368,-0.022370243751983362,0.9489396167554214,-0.3341682928912532
1.843918838209822,8.818308272469892,-0.021832771757836773,0.9319103397269909,-0.3476974398179744
1.8389556775332856,8.605913574229184,-0.021325147168565126,0.9150000797574273,-0.36328252550089746
1.8341058396083807,8.397394947396762,-0.020847356526259186,0.8982053709592795,-0.38080409985775676
1.8293624771846462,8.192726197622527,-0.020399273245346464,0.881522887947124,-0.4001462020138479
1.824718783965601,7.991881879952288,-0.019980667789829792,0.8649494396201809,-0.42119608571417716
1.820168017212948,7.7948372686008724,-0.019591217015848403,0.8484819634356089,-0.44384395425002454
1.8157035182908374,7.601568327988577,-0.01923051274163376,0.8321175201495624,-0.46798270377702034
1.811318731321359,7.412051684935673,-0.01889806960165798,0.8158532890061283,-0.49350767393733874
1.8070072201099288,7.22626460191389,-0.018593332236866426,0.7996865633572013,-0.5203164047262396
1.8027626834878339,7.0441849512573995,-0.01831568186830661,0.7836147466992469,-0.548308398563069
1.7985789692088034,6.865791190238674,-0.018064442297175097,0.7676353491157626,-0.5773848865389737
1.7944500865270476,6.691062336916893,-0.01783888537026642,0.751745984117126,-0.6074485978179432
1.7903702175756782,6.519977946668092,-0.017638235945988994,0.7359443658724354,-0.6384035311642112
1.7863337276567544,6.352518089307203,-0.017461676392479766,0.7202283068309514,-0.6701547275572945
1.7823351745473441,6.188663326712248,-0.01730835064586999,0.7045957157338725,-0.702608042835691
1.7783693169199284,6.028394690860498,-0.01717736785339739,0.6890445960204692,-0.7356699192810693
1.7744311219701663,5.871693662184992,-0.017067805622794058,0.6735730446361102,-0.76924715501614
1.7705157723404852,5.718542148157688,-0.01697871289617251,0.6581792512534911,-0.8032466700406576
1.7666186724241282,5.568922462002451,-0.016909112463452298,0.6428614979224901,-0.8375752676704243
1.7627354541312052,5.422817301436975,-0.01685800312718251,0.6276181591685939,-0.8721393900728911
1.75886198219593,5.280209727337631,-0.01682436152738597,0.6124477025648325,-0.9068448665089843
1.7549943591026302,5.141083142214786,-0.016807143631741104,0.5973486898077481,-0.9415966527930516
1.7511289297072865,5.005421268378463,-0.01680528589298711,0.5823197783341799,-0.9762985603700881
1.7472622856313311,4.87320812566492,-0.01681770607184272,0.5673597235227194,-1.0108529732803815
1.7433912695052785,4.744428008583661,-0.016843303719920672,0.552467381531709,-1.045160551135007
1.7395129791414872,4.619065462731513,-0.016880960313045614,0.5376417128347903,-1.0791199160598057
1.735624771718074,4.497105260305087,-0.01692953902098345,0.5228817865254366,-1.1126273213791962
1.7317242680597589,4.378532374525168,-0.01698788409479895,0.5081867854738654,-1.1455762996031802
1.7278093571063597,4.263331952765828,-0.017054819847801453,0.4935560124334416,-1.1778572870502255
1.723878200665836,4.151489288156895,-0.017129149200231553,0.4789888972094576,-1.2093572221849545
1.7199292385563996,4.042989789400355,-0.01720965175138911,0.46448500502132384,-1.2399591144731603
1.715961194251385,3.9378189485087454,-0.017295081335695094,0.45004404621007316,-1.2695415802594454
1.7119730811515046,3.8359623061358725,-0.017384163011090695,0.43566588746707563,-1.2979783418586464
1.7079642096220375,3.7374054141266093,-0.01747558941905938,0.4213505647873806,-1.3251376857282546
1.7039341949476432,3.6421337948620653,-0.01756801644523821,0.4070982983825751,-1.3508818752670233
1.6998829663751873,3.550132896918324,-0.017660058097856778,0.39290950982386424,-1.3750665134835263
1.6958107774355307,3.4613880464900255,-0.017750280507853263,0.37878484172655114,-1.3975398505263446
1.691718217759125,3.3758843939532497,-0.01783719493915279,0.3647251803323642,-1.4181420309082697
1.6876062266279397,3.2936068548544917,-0.017919249679850358,0.3507316813959639,-1.4367042752553207
1.6834761085383527,3.214540044512848,-0.017994820664385524,0.33680579983573233,-1.4530479916635892
1.6793295510869108,3.1386682053102675,-0.01806220065249927,0.3229493236649566,-1.4669838123945198
1.6751686455342671,3.0659751256197154,-0.018119586761793396,0.30916441277463125,-1.4783105528900442
1.6709959104533711,2.996444049184035,-0.01816506611556299,0.29545364318782186,-1.486814092247787
1.6668143189278237,2.930057573611993,-0.018196599323980173,0.28182005743862903,-1.4922661778098694
1.6626273298375294,2.8667975365074625,-0.018212001461187753,0.2682672217312117,-1.4944231620413684
1.65843892385478,2.806644887602946,-0.018208920127937532,0.25479929048197175,-1.4930246883668512
1.6542536448796799,2.7495795451466982,-0.01818481009032477,0.24142107870279353,-1.4877923555067414
1.6500766477770323,2.6955802347215325,-0.018136903845741487,0.22813814238561084,-1.4784284091842612
1.6459137534493942,2.644624308698976,-0.018062177264154378,0.21495686650617052,-1.4646145389091734
1.6417715125120211,2.5966875447271747,-0.017957309147785712,0.20188455933556967,-1.4460109003677837
1.6376572791556812,2.5517439221288143,-0.017818633081256398,0.1889295502154005,-1.4222555473195828
1.633579297243326,2.5097653760226706,-0.01764207920009252,0.17610128549019985,-1.3929645503533379
1.6295468013698922,2.4707215306482624,-0.017423102308027603,0.1634104134177051,-1.357733217059885
1.6255701366602686,2.4345794161715197,-0.01715659081913354,0.15086884290180397,-1.3161390282648668
1.6216609027215987,2.401303177772661,-0.016836747777997037,0.1384897518708913,-1.2677471935288507
1.617832129793063,2.370853792900924,-0.016456929861443318,0.12628750788334606,-1.2121201375077144
1.6140984994026246,2.3431888233282514,-0.016009421359759676,0.11427744492249747,-1.1488327879656597
1.6104766288333472,2.3182622443210477,-0.01548510532960969,0.10247541600972425,-1.0774962567829112
1.6069854502118512,2.2960244148857427,-0.014872969639921484,0.09089701386249098,-0.9977933242734269
1.603646733959394,2.2764222801067895,-0.014159345598834916,0.07955633204146503,-0.9095297950502051
1.6004858373253006,2.2593999239623024,-0.01332671208893659,0.06846415617146193,-0.8127055817291381
1.597532809219032,2.244899602483965,-0.012351793182962489,0.057625595814089735,-0.7076067026278389
1.5948240658224464,2.2328633438164402,-0.011202497222130087,0.047037523033950916,-0.5949113268475218
1.5924049981188118,2.223235025264316,-0.009832874113822752,0.03668698611497197,-0.4757857211120806
1.5903341823534494,2.215962389893715,-0.008174219498024956,0.02655332145545658,-0.3519183430167075
1.5886907559080647,2.2109974781918247,-0.0061164452444495,0.016619823778369413,-0.22541279693419533
1.5875902496484522,2.2082912926120954,-0.0034531744043560216,0.006912224740999978,-0.09846049848513452
