x,y,v_x,v_y,omega
2.375,32.48,0.0,3.4871794871794872,-7.755102040816326
2.37317777141846,31.82573728415782,-0.019181353489895626,3.399796469053958,-7.223853774695055
2.3679964020634445,31.187701735231848,-0.03535937656289592,3.316367203850992,-6.7474260779586
2.3599833939239225,30.56517031020975,-0.048988077537337,3.236595164802679,-6.318486591907692
2.3495871170156533,29.95747322226102,-0.06044641623392035,3.1602162872892268,-5.930868427053503
2.337189754375738,29.363988239670064,-0.07005213787044966,3.0869940557734576,-5.579357365952207
2.323117889990919,28.7841358273415,-0.07807275039080126,3.0167155476850853,-5.259522973889994
2.307651219574274,28.21737497025199,-0.08473430662651621,2.949188211151919,-4.967583480009494
2.291029754712111,27.66319955501099,-0.09022848139625002,2.8842372124375224,-4.700296889480526
2.273459809374311,27.121135212900537,-0.09471831163322705,2.82170323083042,-4.454872652373025
2.2551189962337164,26.5907365481305,-0.09834287932040164,2.7614406088541785,-4.228899572522085
2.2361604132421853,26.071584690468526,-0.1012211521693967,2.7033157875876554,-4.020286640472758
2.216716164655403,25.56328512321145,-0.10345514874410024,2.6472059730131146,-3.827214220833712
2.196900332474161,25.065465746601348,-0.10513255842686833,2.5929979913037724,-3.6480935866225095
2.1768114921173307,24.577775143930047,-0.10632891901345005,2.540587299973069,-3.481533220852913
2.156534848626566,24.099881023211395,-0.10710943352091724,2.4898771286443027,-3.32631063374676
2.1361440557616658,23.631468811788835,-0.10753049137276839,2.440777728435284,-3.181348697726912
2.115702769181858,23.172240384852508,-0.10764094630941799,2.3932057129997433,-3.0456957000562674
2.095265975919098,22.721912911762345,-0.10748319329858244,2.3470834774230216,-2.918508468062037
2.0748811350744085,22.280217806460282,-0.10709407875078183,2.302338683651331,-2.799038044282465
2.054589158752756,21.846899770218755,-0.10650567200345569,2.2589038031015813,-2.6866174860445318
2.034425257420919,21.42171591660034,-0.10574592096324863,2.2167157086712006,-2.5806514415455855
2.0144196699113834,21.0044349698614,-0.1048392107160706,2.17571530963344,-2.4806072167413937
1.9945982950345895,20.59483652917283,-0.1038068406186029,2.1358472239304196,-2.3860070975086947
1.9749832390682944,20.192710391994055,-0.10266743271081846,2.097059483214628,-2.296421732173335
1.9555932911602496,19.797855930754178,-0.10143728211070784,2.059303266678798,-2.211464412530983
1.9364443368239772,19.4100815176927,-0.10013065827110663,2.0225326602841425,-2.1307861184618795
1.9175497181591352,19.029203993310933,-0.09876006451670288,1.9867044384712877,-2.0540712133508787
1.8989205481328666,18.65504817440182,-0.09733646207559957,1.9517778658351537,-1.981033695712788
1.8805659851722663,18.287446398072483,-0.09586946382545602,1.9177145165789469,-1.9114139274383772
1.8624934734045686,17.92623809856223,-0.09436750215030718,1.88447810984476,-1.8449757715134731
1.844708953111441,17.571269413997456,-0.09283797461945939,1.852034359258121,-1.781504082398067
1.8272170453128114,17.222392820521222,-0.091287370629272,1.8203508352285285,-1.7208025008661523
1.8100212138442033,16.879466791495787,-0.08972138167186522,1.7893968387234307,-1.6626915123078834
1.7931239078233134,16.542355479705577,-0.08814499749539814,1.7591432853840476,-1.607006733532499
1.776526687003161,16.21092842069082,-0.08656259008515296,1.729562598981815,-1.5535973981853906
1.760230332169401,15.88506025552146,-0.08497798711231994,1.7006286133272375,-1.502325015170323
1.7442349424491104,15.564630471480456,-0.08339453625916217,1.6723164818412217,-1.4530621780826605
1.7285400211498483,15.24952315926749,-0.08181516162780683,1.6446025940847238,-1.40569150672182
1.713144551534631,14.93962678546077,-0.08024241326921581,1.6174644986175826,-1.3601047043517434
1.698047063755281,14.63483397908789,-0.07867851072394261,1.5908808316232783,-1.3162017165917808
1.6832456940089258,14.335041331258221,-0.07712538134295271,1.5648312507943054,-1.2738899797088477
1.6687382368464392,14.040149206900484,-0.07558469405164313,1.539296374023981,-1.2330837476963834
1.654522191444146,13.750061567731112,-0.07405788913039085,1.5142577224957174,-1.1937034889091565
1.6405948025484882,13.464685805652937,-0.0725462045081135,1.4896976678008726,-1.1556753442108985
1.6269647760173838,13.1839359965707,-0.07092775897719666,1.4655634804331918,-1.1154871635735608
1.6136391776547447,12.907729136886996,-0.06934169747163244,1.4418771478163102,-1.077062380389333
1.6006118589250282,12.63598160720067,-0.06778797336749057,1.4186231646713419,-1.0403032721063794
1.5878766894189298,12.368612669025929,-0.06626644248617752,1.395786710852262,-1.0051185586127325
1.575427574058894,12.105544338253118,-0.06477687709314489,1.3733536130720696,-0.9714229096251145
1.5632584678061558,11.846701265639044,-0.0633189781988365,1.3513103091813479,-0.9391364947923163
1.5513633881725206,11.592010623860773,-0.06189238636574642,1.329643814800439,-0.9081845723796251
1.5397364258037571,11.341402000702935,-0.060496691200184624,1.3083416921241717,-0.878497112841588
1.528371753369631,11.094807297981408,-0.059131439685352276,1.287392020734003,-0.8500084539799191
1.5172636329676719,10.85216063583633,-0.057796143493165975,1.2667833702667946,-0.8226569847280446
1.5064064222232432,10.613398262054758,-0.056490285395556984,1.2465047748023819,-0.7963848549092283
1.4957945792469343,10.378458466108373,-0.0552133248813787,1.2265457088437866,-0.7711377085862529
1.4854226665913348,10.147281497614635,-0.053964703072300564,1.206896064774497,-0.7468644388614591
1.475285354332575,9.919809488950811,-0.05274384701990702,1.1875461316868152,-0.7235169622001983
1.4653774223873213,9.69598638176959,-0.05155017345644653,1.168486575483947,-0.7010500105416111
1.4556937621629638,9.475757857182806,-0.05038309206310785,1.1497084201664016,-0.6794209396308772
1.4462293776273112,9.25907126939606,-0.04924200831218278,1.1312030302204152,-0.6585895521590884
1.436979385874031,9.045875582592018,-0.04812632593287273,1.1129620940326457,-0.6385179344328047
1.4279390172511621,8.836121310874091,-0.04703544904469269,1.0949776082613076,-0.6191703054169978
1.4191036151121708,8.629760461094829,-0.045968783997321266,1.0772418630993394,-0.6005128771040951
1.4104686352420566,8.426746478405228,-0.04492574095125042,1.0597474283701303,-0.5825137252596213
1.4020296450048733,8.227034194371985,-0.04390573522962802,1.0424871404008504,-0.5651426696827623
1.3937823222535801,8.030579777519762,-0.04290818846819435,1.0254540896225595,-0.5483711631991242
1.3857224540383242,7.837340686164865,-0.04193252958713173,1.0086416088500447,-0.5321721886740209
1.3778459351449837,7.647275623415318,-0.04097819560592543,0.9920432621978096,-0.516520163398634
1.3701573267988851,7.460551014155282,-0.039954523826689445,0.9734789405394109,-0.5449224949369179
1.3626581252308416,7.277343236249564,-0.03898444004745328,0.9550239847839356,-0.5748430809577721
1.355338305076845,7.097631781558455,-0.038066298415669365,0.9366755382803691,-0.6061704682106644
1.348188155211379,6.921396673809106,-0.037198437010288805,0.9184308590812044,-0.6387953794925535
1.3411982814714813,6.748618447148889,-0.03637918130442394,0.9002873162894954,-0.6726104648225962
1.3343596087588647,6.579278125354367,-0.0356068472494358,0.8822423868107206,-0.7075100567713124
1.3276633825896016,6.413357201619572,-0.03487974400596641,0.8642936525029296,-0.7433899288818543
1.3211011701562942,6.250837618848244,-0.03419617634463693,0.846438797721576,-0.7801470561194876
1.3146648609635916,6.09170175037514,-0.03355444673644265,0.82867560725846,-0.817679376275616
1.3083466670943538,5.935932381041237,-0.03295285715027111,0.8110019646773498,-0.8558855512344287
1.3021391231606976,5.7835126885469315,-0.03238971057242661,0.793415851052182,-0.8946647269831652
1.2960350859915657,5.634426225005832,-0.03186331226053945,0.7759153441172822,-0.933916291210642
1.2900277341063484,5.488656898619617,-0.03137197074174662,0.7584986178428683,-0.9735396272925395
1.2841105670224424,5.3461889553914865,-0.030913998562526725,0.7411639424532568,-1.0134338634053897
1.2782774044434746,5.207006960792,-0.030487712795029095,0.7239096849097469,-1.0534976154435107
1.272522385374245,5.0710957812864805,-0.030091435302126743,0.7067343098851974,-1.0936287223335073
1.266839967208275,4.93844056562741,-0.029723492760714145,0.6896363812629096,-1.1337239722484977
1.2612249248342138,4.8090267258085575,-0.029382216439931327,0.6726145641987052,-1.1736788181179942
1.2556723498082614,4.682839917569428,-0.02906594172798883,0.655667627792131,-1.2133870807083187
1.2501776496412873,4.55986602032921,-0.02877300739805453,0.6387944484206881,-1.252740637411588
1.244736547251453,4.440091116418245,-0.028501754600199127,0.6219940138000024,-1.2916290947276325
1.239345080635984,4.323501469462151,-0.028250525562633924,0.6052654278431037,-1.3299394422518773
1.2339996028193048,4.21008350175871,-0.028017661981357616,0.5886079164036584,-1.3675556857925608
1.2286967821391601,4.099823770470238,-0.02780150307279746,0.5720208340013193,-1.404358457032479
1.223433602937638,3.9927089424340707,-0.02760038325901486,0.5555036716425583,-1.4402245969241383
1.2182073667303321,3.8887257673705946,-0.027412629449467693,0.5390560658677155,-1.4750267097642138
1.213015693934309,3.787861049241556,-0.02723655787709111,0.5226778091748127,-1.5086326846364935
1.2078565262442358,3.6901016154805895,-0.02707047043947071,0.5063688619932617,-1.5409051806472156
1.2027281297561248,3.595434283782634,-0.026912650488014275,0.4901293664062643,-1.5717010721113447
1.1976290989498455,3.5038458260983134,-0.026761357999135458,0.4739596618497539,-1.6008708495960244
1.1925583616550477,3.4153229294329854,-0.026614824051368422,0.4578603030484229,-1.6282579725082102
1.18751518514069,3.32985215299723,-0.02647124452081905,0.44183208048586053,-1.6536981687570274
1.182499183486268,3.2474198811951993,-0.02632877289414962,0.42587604374604093,-1.677018676971472
1.177510326413436,3.168012271869163,-0.026185512083029293,0.4099935281069615,-1.698037426874428
1.172548949780461,3.0916151991417493,-0.026039505106178213,0.39418618481319506,-1.7165621537970055
1.167615767969383,3.0182141901119337,-0.02588872448411719,0.37845601550065333,-1.732389444096465
1.1627118884275696,2.9477943545667493,-0.02573106016655095,0.3628054112907464,-1.745303709608883
1.157838828662499,2.8803403067689644,-0.025564305781560635,0.3472371971069882,-1.755076091501508
1.1529985360323012,2.8158360782741063,-0.02538614295736353,0.33175468178624945,-1.7614632973887332
1.1481934107266307,2.7542650206225865,-0.02519412341811484,0.3163617145455529,-1.7642063809152855
1.143426332395349,2.6956096966520597,-0.024985648490112724,0.30106274830210716,-1.7630294810207048
1.1387006909600164,2.6398517590947286,-0.02475794556602188,0.28586291019613286,-1.7576385499789922
1.1340204222409982,2.586971815084766,-0.024508040949957836,0.2707680793824197,-1.74772011678772
1.1293900491598194,2.53694927523566,-0.02423272832560771,0.2557849716607905,-1.7329401580625252
1.124814729445898,2.489762186107118,-0.023928531820932412,0.24092122969228463,-1.7129431858817787
1.1203003110106493,2.4453870452450133,-0.023591662234318477,0.22618551622461996,-1.6873517162031428
1.1158533964848196,2.403798598664711,-0.023217964353361934,0.2115876056733122,-1.6557663599271604
1.111481418902775,2.364969621836213,-0.022802852299738288,0.19713846620562872,-1.6177668918115884
1.1071927312511185,2.3288706871814213,-0.022341228244016274,0.1828503196342849,-1.5729148145435539
1.1029967137263514,2.2954699241876924,-0.02182737727984857,0.16873665924705566,-1.5207581652228737
1.0989039043083975,2.2647327830047175,-0.02125482711966659,0.15481219531057844,-1.4608396323024777
1.094926161045903,2.236621819517648,-0.020616154590801804,0.14109268350066181,-1.3927094861127125
1.0910768688997938,2.2110965301988514,-0.019902710105083855,0.12759457248668798,-1.3159453874495946
1.0873712111191183,2.1881132792775055,-0.019104213902026896,0.11433438458011548,-1.2301817962634034
1.0838265365279027,2.1676253790076174,-0.01820815021603265,0.1013277235239542,-1.1351523143916846
1.0804628722589749,2.149583404047899,-0.017198842088470098,0.08858780236782554,-1.03074846603336
1.0773036601773214,2.1339358360762795,-0.016056021928934634,0.07612343943870206,-0.9170972426432379
1.0743768405719354,2.120630126940881,-0.014752605496181749,0.063936656723376,-0.7946554662938219
1.0717164802908894,2.1096142007857317,-0.013251186935882439,0.052020460699232184,-0.6643089692972317
1.069365275050678,2.1008382211540777,-0.01149834190844852,0.040358272265555814,-0.5274463431361549
1.0673785549760542,2.0942560187783457,-0.00941450098232716,0.028928068531636437,-0.38595281531628584
1.0658313433876836,2.089824668392442,-0.006871936789994036,0.017717725004203037,-0.24205319171100592
1.0648340505408984,2.0874980478243153,-0.003625882649849501,0.006773017818172128,-0.09794803512862416
