x,y,v_x,v_y,omega
2.375,32.48,0.0,3.8974358974358974,-5.061224489795919
2.372979803368531,31.597912246180396,-0.017566927230164057,3.7728923966475794,-4.601362526281379
2.3673348576786744,30.743623244658657,-0.03151955702945982,3.655707616584947,-4.205052143181453
2.358813740996313,29.91551809126387,-0.042577109773685645,3.5452067607610287,-3.8611383662723164
2.3480173474508037,29.112127328855387,-0.05130457323073945,3.4407998688779613,-3.5607523421526066
2.3354302107407863,28.33210904619793,-0.058148789465064216,3.341967806404243,-3.2967834401523763
2.3214445853561245,27.574233860991832,-0.06346534431460295,3.248251195387918,-3.063486118224056
2.3063791083083838,26.83737219731345,-0.06753880392662043,3.1592415322501974,-2.8561839619242364
2.290493366533596,26.120483415223564,-0.0705980810715341,3.0745739641835983,-2.671044671814225
2.2739993443990962,25.4226064545781,-0.07282819835890002,2.9939213457769345,-2.5049074375690887
2.257070475141324,24.742851730387702,-0.07437936040433368,2.9169892993569824,-2.3551493904374854
2.2398488388362696,24.080394072544102,-0.07537399877005688,2.8435120731960524,-2.2195814808300423
2.222450917044817,23.434466544327563,-0.07591227767735859,2.7732490417303626,-2.096366704813069
2.2049722165254475,22.8043550058118,-0.07607642249107006,2.7059817279719587,-1.9839554419576435
2.1874910016390907,22.18939331280154,-0.07593414173811958,2.6415112547259514,-1.8810339931808884
2.1700713204654116,21.588959061152405,-0.07554134672865323,2.579656150918683,-1.7864833733122158
2.1527654683690636,21.002469801559805,-0.07494432367437243,2.520250454234365,-1.6993461233767428
2.1356160013313534,20.429379662115707,-0.07418147665354217,2.463142062670811,-1.6187994342221261
2.118657387288851,19.869176325813406,-0.07328473241169724,2.408191296479659,-1.5441332667094314
2.1019173651648906,19.32137831824435,-0.07228067736187352,2.3552696389034278,-1.4747324500498673
2.0854180668958042,18.785532567363294,-0.07119148149974586,2.3042586296274807,-1.410061964586648
2.0691769465428482,18.261212202690217,-0.07003565200421934,2.2550488892688394,-1.3496547868459783
2.05320755179813,17.74801456589507,-0.06882865012376568,2.207539256775947,-1.293101806428218
2.037520166278824,17.245559408548267,-0.06758339787020164,2.161636024500563,-1.2400434261093194
2.0221223455355903,16.753487256053127,-0.06631069554921908,2.117252258065881,-1.190162535629142
2.0070193653568893,16.271457919513917,-0.06501956687426634,2.07430719010118,-1.1431786114497913
1.9922145974850074,15.799149139621822,-0.06371754505514261,2.0327256785257384,-1.0988427433080001
1.9777098250832665,15.336255348629471,-0.0624109106121685,1.9924377214077473,-1.056933426697811
1.963505508061192,14.882486538189543,-0.06110488957978463,1.9533780215481613,-1.01725299080317
1.9496010065622074,14.437567222299755,-0.05980381910703944,1.9154855948847742,-0.9796245556060152
1.9359947694585027,14.00123548586284,-0.058511286142565865,1.878703417610157,-0.9438894312650381
1.9226844935109777,13.573242110466662,-0.05723024383591243,1.8429781075739917,-0.9099048884257023
1.909667257884303,13.153349769942267,-0.055963109439520375,1.8082596361163943,-0.8775422406816942
1.8969396379152896,12.741332289087243,-0.054711846812768396,1.7745010669707735,-0.8466851905822448
1.884497801382914,12.33697395966653,-0.05347803607745555,1.7416583192962958,-0.8172283988531875
1.8723375899934784,11.94006890843729,-0.052262932526330894,1.7096899522623072,-0.7890762432521505
1.8604545883529262,11.550420512501397,-0.051067516521951524,1.6785569689193696,-0.7621417390091643
1.8488441823329342,11.167840857779094,-0.04989253582580415,1.648222637361518,-0.7363455973498756
1.8375016084342306,10.79215023682941,-0.04873854155422878,1.618652327418337,-0.7116154023473941
1.826421995498338,10.423176682624646,-0.0476059187578793,1.5898133613187546,-0.6878848894503528
1.8156003999086285,10.060755535224253,-0.04649491245698582,1.5616748769455497,-0.665093311608862
1.8050318352457473,9.704729038593285,-0.04540564982893917,1.534207702454177,-0.6431848810629069
1.7947112972151937,9.354945965077103,-0.04433815913239384,1.5073842411647944,-0.6221082766469022
1.7846337845411937,9.011261265281327,-0.04329238585891046,1.481178365755005,-0.6018162079622658
1.7748108256911919,8.673537122661813,-0.042124647619368495,1.4555533091972828,-0.5780611076529785
1.7652525671044064,8.341641163704246,-0.04099064443963452,1.430498507825033,-0.5555099501665497
1.7559513396943882,8.015444800035738,-0.03988959390834942,1.405991611031569,-0.5340862604246938
1.746899657936803,7.694824453889527,-0.038820682244565315,1.3820113989354919,-0.5137193424684302
1.738090225973473,7.379661306257578,-0.03778307395830478,1.3585377109075385,-0.49434377405069185
1.7295159416738075,7.0698410608646896,-0.03677591995183018,1.3355513794654,-0.47589895127133747
1.7211698989857505,6.765253722783161,-0.03579836429214352,1.3130341690696343,-0.45832867773491237
1.7130453888592867,6.465793390609168,-0.0348495498510203,1.2909687193998658,-0.44158079338110984
1.7051358989837297,6.171358061214068,-0.03392862297990866,1.269338492731428,-0.42560683871906135
1.6974351125443574,5.881849446167003,-0.033034737362458926,1.2481277250691405,-0.41036175070193204
1.6899369061735168,5.59717279900039,-0.032167057166590976,1.2273213807274936,-0.39580358691850265
1.6826353472453273,5.317236752558028,-0.03132475960027385,1.2069051100756638,-0.3818932751625482
1.6755246906408843,5.041953165727261,-0.03050703696009861,1.1868652101918646,-0.36859438577659076
1.668599375091854,4.771236978912778,-0.029713098248862375,1.1671885881949269,-0.3558729244605887
1.6618540191940827,4.505006077660532,-0.028942170427408046,1.1478627270419979,-0.34369714349393676
1.6552834171689228,4.243181163886689,-0.02819349935659214,1.128875653600122,-0.3320373695456091
1.6488825344380318,3.9856856342087816,-0.02746635047724174,1.1102159088164587,-0.320865846446492
1.6426465030672017,3.732445464914761,-0.026760009269106023,1.091872519827201,-0.31015659147347036
1.6365706171260017,3.483389103140837,-0.02607378152393709,1.073834973859081,-0.2998852638496984
1.6306503280025266,3.238447363861212,-0.025406993462802688,1.0560931937898312,-0.2900290443023269
1.6248812397061114,2.997553332322177,-0.02475899172341756,1.038637515245261,-0.2805665246400406
1.6192591041853672,2.7606422715800747,-0.02412914323957548,1.0214586651208406,-0.2714776064200489
1.613779816684184,2.52765153482731,-0.023516835031582643,1.0045477414249508,-0.26274340786936357
1.608439411154308,2.298520482213263,-0.02292147392385912,0.9878961943493761,-0.2543461783097676
1.6032390344558138,2.0732931531108427,-0.022299193019570448,0.9706023195847132,-0.26422354505591783
1.598178151277708,1.8520288697241156,-0.02170848679004566,0.9534349272563817,-0.2764025682038772
1.5932494817244496,1.6346989744742828,-0.02114950932524482,0.9363902488291278,-0.29075647223985096
1.5884457255753777,1.4212756588266728,-0.020622283275380935,0.9194646698457385,-0.30716256669302167
1.5837595911554345,1.2117319286921173,-0.020126711680646843,0.9026547226286692,-0.32550194936807275
1.5791838215960314,1.006041571444257,-0.019662588835902155,0.8859570795266409,-0.34565922159658846
1.5747112186995698,0.8041791244308918,-0.019229610263763987,0.8693685466765398,-0.36752221428811693
1.5703346646049425,0.6061198448638514,-0.018827381863431056,0.8528860582542425,-0.39098172361470157
1.5660471414365027,0.4118396809776357,-0.018455428296915186,0.8365066711911288,-0.415931255207348
1.5618417491054097,0.2213152443520059,-0.0181132006691097,0.8202275603360561,-0.44226677577948964
1.5577117214198388,0.03452378329812689,-0.017800083553246755,0.8040460140454884,-0.4698864711212577
1.5536504406492098,-0.14855684278865056,-0.017515401408744805,0.7879594301873339,-0.49869050942937015
1.5496514506772727,-0.3279481882030879,-0.01725842443418512,0.7719653125468794,-0.5285808089507653
1.5457084688695146,-0.5036712449229768,-0.01702837389414724,0.7560612676260368,-0.5594608089236723
1.5418153967718806,-0.6757464659104215,-0.016824426954843156,0.7402450018299974,-0.5912352427974968
1.5379663297501867,-0.8441937878102763,-0.016645721059886723,0.7245143190383307,-0.6238099127024751
1.5341555656727799,-1.009032653134156,-0.016491357874086274,0.708867118560627,-0.6570914641212022
1.53037761273298,-1.1702820320188252,-0.01636040681982371,0.6933013934800007,-0.6909871596864454
1.526627196502555,-1.3279604436490118,-0.016251908227351255,0.6778152293911941,-0.7254046509925962
1.5228992663029355,-1.482085977436526,-0.016164876117166223,0.6624068035436994,-0.7602517472610663
1.5191890009770708,-1.6326763140505491,-0.016098300629482285,0.6470743844043202,-0.7954361796421485
1.5154918141417233,-1.7797487463977149,-0.01605115011266955,0.6318163316579756,-0.8308653598664868
1.5118033589976412,-1.923320200655482,-0.0160223728793501,0.616631096670406,-0.8664461318773358
1.5081195327734251,-2.0634072574683913,-0.016010898635573135,0.6015172234418472,-0.9020845149791449
1.504436480878046,-2.2000261734241846,-0.016015639585114514,0.5864733500868031,-0.9376854369274203
1.500750600836906,-2.3331929029355862,-0.016035491207405588,0.5714982108819014,-0.9731524552579728
1.497058546087112,-2.4629231206641364,-0.016069332703848145,0.5565906389315731,-1.008387465009086
1.4933572297092943,-2.5892322446349354,-0.016116027103263347,0.5417495695101452,-1.0432903908263451
1.489643828175936,-2.7121354602057437,-0.016174421012894187,0.5269740441490391,-1.0777588612553146
1.4859157851998366,-2.8316477450710593,-0.01624334399666779,0.5122632155493513,-1.1116878628205282
1.4821708157711355,-2.9477838955017788,-0.01632160755725219,0.4976163534133958,-1.1449693712590943
1.4784069104773878,-3.0605585540442917,-0.016408003692728844,0.48303285130410395,-1.1774919570228348
1.4746223402086036,-3.1699862389300293,-0.01650130299235262,0.46851223465880415,-1.2091403618841494
1.4708156613581735,-3.27608137547778,-0.016600252228777104,0.4540541701042251,-1.2397950431787594
1.4669857216413056,-3.3788583298077057,-0.016703571396160768,0.43965847624296234,-1.2693316818959932
1.463131666665269,-3.478331445228129,-0.016809950134594416,0.42532513610855266,-1.297620650489865
1.4592529474006102,-3.574515081705087,-0.016918043471133952,0.41105431151716715,-1.3245264359415299
1.4553493287198687,-3.6674236588811695,-0.01702646679618405,0.3968463595791958,-1.3499070132714361
1.4514208991905135,-3.757071703175292,-0.01713378998081634,0.3827018516740489,-1.3736131644022571
1.4474680823322847,-3.8434738995700144,-0.01723853052552179,0.36862159523659904,-1.395487737049054
1.4434916495762955,-3.926645148778917,-0.01733914561351388,0.35460665875383957,-1.4153648382178179
1.439492735194766,-4.006600630584494,-0.017434022921525266,0.34065840042509427,-1.433068957012032
1.435472853506788,-4.083355874248063,-0.017521470017413256,0.3267785009972564,-1.4484140119043167
1.4314339187080087,-4.156926837017487,-0.017599702145884452,0.3129690013455832,-1.461202318611062
1.4273782677216895,-4.2273299918962195,-0.017666828169934628,0.29923234542599425,-1.471223476483634
1.4233086865268147,-4.294582425986128,-0.017720834394194074,0.2855714292688544,-1.4782531742991614
1.4192284404878943,-4.358701950873005,-0.01775956594424441,0.27198965670399194,-1.4820519210834295
1.4151413092938407,-4.419707226679321,-0.017780705308395508,0.258491002481371,-1.4823637149905315
1.4110516272142237,-4.477617901549721,-0.01778174755783928,0.24508008334818368,-1.4789146745686854
1.4069643295070091,-4.5324547684367715,-0.017759971635330003,0.2317622374087814,-1.4714116738312255
1.4028850059729625,-4.584239941078195,-0.017712406921598062,0.21854361164705438,-1.4595410481875353
1.3988199628647324,-4.63299705093867,-0.017635794019534138,0.2054312567048959,-1.4429674765416585
1.394776294649864,-4.678751466529171,-0.017526538283668076,0.19243322669074722,-1.4213332017245526
1.3907619675402203,-4.7215305357576085,-0.01738065397410418,0.1795586796435134,-1.3942578356494901
1.386785917307706,-4.76136385056526,-0.017193695873845397,0.16681797085779962,-1.3613391198488334
1.3828581648282874,-4.798283530697255,-0.016960673512404004,0.15422272594215877,-1.3221551943642436
1.378989954235274,-4.832324519498563,-0.016675940339886508,0.1417858723300725,-1.2762691929827767
1.3751939208591493,-4.863524878335667,-0.016333045539457913,0.1295215958186606,-1.2232373621071597
1.371484299857822,-4.891926056550652,-0.015924528385126632,0.11744517126814433,-1.1626224289250806
1.367877192558388,-4.917573099442045,-0.015441622044735257,0.10557259300482336,-1.0940146455198383
1.3643909176345845,-4.940514736368094,-0.01487381207529381,0.09391990200431466,-1.0170637802605815
1.3610464909458897,-4.960803264424584,-0.014208159130747952,0.08250208109560876,-0.9315261346198234
1.3578683053748823,-4.978494113482476,-0.013428237138880292,0.07133138897299737,-0.8373308809526905
1.35488512708004,-4.9936449578772155,-0.012512443685836327,0.06041508402471395,-0.7346683213590322
1.3521315987401386,-5.006314260444242,-0.01143128100895888,0.04975276438420362,-0.6240964270750788
1.3496505677506607,-5.016559263688258,-0.010142901508239677,0.03933422034634813,-0.5066472375104305
1.347496809558,-5.024433804760605,-0.008585430601854061,0.029140049847954666,-0.38388850576343747
1.3457433772187681,-5.029987149164754,-0.006661807130596732,0.019149901492474503,-0.2578645669881558
1.3444942966924467,-5.033267027222564,-0.004199762663503746,0.009370777271069074,-0.13082802695807602
1.3439229335418237,-5.034339487117634,-0.0007686125593050893,-4.503905305824722e-05,-0.0047493678034208064
