x,y,v_x,v_y,omega
2.375,32.48,0.0,2.2564102564102564,-7.755102040816326
2.3740436933352442,32.077601256537406,-0.010625629608397916,2.2146868931741093,-7.405704718400744
2.3712784638220143,31.682602725757572,-0.020099142760823703,2.174185671046222,-7.0788842840464525
2.366901196386488,31.29479043344587,-0.028537162078355816,2.1348397990838244,-6.772661516757277
2.36108896972083,30.9139619301992,-0.036043134206734405,2.0965880147680473,-6.485270536286225
2.354001273164336,30.5399253537995,-0.04270904975431022,2.059373945228626,-6.215131592761015
2.3457819375099027,30.172498598182113,-0.04861690196161274,2.023145561631236,-5.960827894400651
2.336560822626986,29.811508573664664,-0.05383993007079669,1.9878547107848463,-5.721085785158385
2.3264552973486614,29.45679054569574,-0.0584436841328095,1.9534567110921228,-5.49475771694247
2.3155715411017312,29.108187541482852,-0.062486940833080984,1.9199100023843978,-5.280807565287846
2.304005691937768,28.76554981556907,-0.0660224943220681,1.8871758411020494,-5.078297919744607
2.2918448617020726,28.42873436682671,-0.0690978416301004,1.8552180338130628,-4.886379045842415
2.279168035867956,28.097604500487275,-0.07175577874897575,1.8240027032917958,-4.7042792680552905
2.266046872920401,27.772029429777582,-0.07403492066830193,1.7934980823714464,-4.531296565579549
2.2525464159836592,27.451883912521296,-0.07597015640660558,1.7636743315872871,-4.366791207121513
2.238725727563901,27.137047918723056,-0.07759304825737398,1.7345033772820757,-4.210179278938301
2.224638456751815,26.827406325703443,-0.07893218298802712,1.705958767380251,-4.06092698337331
2.210333346946474,26.522848637816274,-0.0800134815157583,1.678015542477182,-3.918545604080948
2.1958546910774666,26.223268728170616,-0.08086047258432627,1.6506501202523907,-3.782587049828092
2.1812427403824395,25.928564600111457,-0.081494535138198,1.623840191516026,-3.6526399018116495
2.1665340720138273,25.638638166494733,-0.08193511340193857,1.5975646264475811,-3.5283259003329084
2.1517619200788887,25.35339504503297,-0.0821999080973803,1.571803389794244,-3.409296815811099
2.1369564741427873,25.072744368194112,-0.08230504674818703,1.546537463970836,-3.295231656813951
2.122145148730151,24.796598606313236,-0.0822652356144383,1.5217487791500144,-3.185834174284297
2.107352826933855,24.524873402729767,-0.08209389545551982,1.4974201495551922,-3.080830626653109
2.092604540828374,24.25749694966622,-0.0817759501609334,1.4734293289286675,-2.9767285197181086
2.077921253594668,23.994399911978178,-0.08137168576913548,1.4498710898273581,-2.877066851311492
2.0633177226095896,23.73550577738608,-0.08088976962062537,1.42673040564038,-2.7816054661900598
2.048807213729248,23.480740677012157,-0.08033810682761032,1.4039929318476385,-2.690119697642919
2.0344016323103915,23.230033266251915,-0.07972390893746473,1.381644965488356,-2.6023992029144756
2.020111642467792,22.983314612672444,-0.07905375598030845,1.3596734076168808,-2.518246898658397
2.0059467756962266,22.740518090423805,-0.07833365259263697,1.338065728479143,-2.437477986732578
1.99191552986821,22.50157928069528,-0.07756907882977072,1.3168099351711238,-2.359919061693629
1.9780254595145692,22.266435877789,-0.07676503621068285,1.2958945415653316,-2.2854072922721147
1.9642832582025758,22.035027600419948,-0.0759260894781344,1.275308540313003,-2.213789669923302
1.9506948337441994,21.807296107884376,-0.07505640450382273,1.2550413767489224,-2.1449223182667465
1.9372653768939259,21.583184920768126,-0.07415978272144003,1.2350829245427486,-2.078669857863892
1.9239994241303597,21.362639345893257,-0.07323969242929457,1.2154234629558014,-2.0149048213464016
1.9109009150576262,21.145606405225422,-0.07229929726774512,1.1960536555756627,-1.9535071144082643
1.8979732449105227,20.932034768486453,-0.07134148214451619,1.1769645304128764,-1.8943635186195966
1.8852193126007943,20.721874689236373,-0.07036887685246485,1.1581474612546832,-1.8373672324162287
1.8726415647001535,20.51507794420723,-0.06938387759909875,1.1395941501802413,-1.782417446972499
1.8602420357182115,20.31159777568748,-0.0683886666447025,1.1212966111503204,-1.7294189539802398
1.848022384999851,20.111388836770665,-0.06738523022597089,1.1032471545920925,-1.6782817826391647
1.8359839305363288,19.914407139295786,-0.06637537492427566,1.0854383729065336,-1.6289208634166052
1.824127679957178,19.720610004319305,-0.06536074262184635,1.067863126832126,-1.5812557163611858
1.8124543589454616,19.529956014970043,-0.06434282417500065,1.05051453260414,-1.5352101619584995
1.800964437296829,19.342404971548827,-0.06332297192091763,1.0333859498538083,-1.4907120526997661
1.7896581528228641,19.15791784874432,-0.0623024111231365,1.016470970196263,-1.4476930236990688
1.778535533281207,18.976456754845238,-0.06128225045083158,0.999763406460239,-1.406088260843095
1.7675964164986273,18.79798489283735,-0.06026349157783066,0.9832572825162805,-1.3658362850911046
1.7568480024532978,18.62271337598711,-0.05916333114805234,0.9642040158197055,-1.3801764954065587
1.7462941230458964,18.450861146785304,-0.05810199560085406,0.9452651975336945,-1.3961897603070843
1.7359278789271908,18.282407867823174,-0.05707849460698323,0.9264379020455352,-1.4137499744161985
1.7257425540673421,18.11733371661284,-0.056091781613559585,0.9077193336248285,-1.4327332332572034
1.7157316253946147,17.955619362525482,-0.05514075919452329,0.8891068229013696,-1.4530175579405817
1.705888771513934,17.797245944321098,-0.05422428392415266,0.8705978238140052,-1.4744826234802202
1.696207880588501,17.64219504818535,-0.05334117080287996,0.8521899110276513,-1.4970094895879553
1.6866830574626936,17.49044868618914,-0.05249019726164381,0.8338807778191286,-1.5204803327915148
1.6773086301000133,17.34198927508617,-0.05167010676813909,0.8156682344360896,-1.5447781787084016
1.6680791554058825,17.19679961536258,-0.050879612055535595,0.797550206937116,-1.5697866332875472
1.658989424501648,17.054862870450982,-0.050117397991513726,0.7795247365251081,-1.5953896118014743
1.6500344675131613,16.916162546018583,-0.049382124102784315,0.7615899793904178,-1.6214710643340624
1.641209557934827,16.780682469235806,-0.0486724267675982,0.7437442070848609,-1.6479146964626201
1.6325102166279954,16.648406767927415,-0.04798692108608394,0.7259858074528364,-1.6746036837776144
1.623932215511048,16.519319849503038,-0.04732420243555463,0.7083132861513634,-1.701420378818955
1.615471580997483,16.393406379557685,-0.046682847715169604,0.6907252687969874,-1.7282460089340859
1.607124597237783,16.27065126002537,-0.04606141628149621,0.6732205037843034,-1.7549603634803614
1.598887809220828,16.15103960676023,-0.045458450573559184,0.6557978658283825,-1.781441468702552
1.5907580257911507,16.034556726409413,-0.044872476422857556,0.6384563602917784,-1.8075652485164286
1.5827323226394454,15.9211880924302,-0.044302003040534,0.6211951283661385,-1.8332051693222833
1.5748080453254651,15.81091932009025,-0.043745522670357785,0.6040134531888703,-1.858231866859684
1.5669828123948184,15.703736140274426,-0.043201509892382986,0.586910766986938,-1.8825127529994476
1.5592545186542828,15.59962437190385,-0.04266842055801431,0.5698866593528041,-1.9059116002547265
1.5516213386741193,15.498569892752627,-0.04214469033269064,0.552940886771894,-1.9282881016861495
1.5440817305906105,15.400558608424841,-0.041628732817405756,0.5360733835368381,-1.9494974037845239
1.5366344402877177,15.30557641922842,-0.04111893721473515,0.519284274201175,-1.9693896098506776
1.5292785060434984,15.21360918465334,-0.04061366549881364,0.5025738877441542,-1.9878092513724128
1.5220132637348551,15.12464268512889,-0.04011124904166545,0.48594277363862326,-2.0045947249468004
1.5148383527034839,15.03866258069823,-0.039609984640238065,0.46939172003539026,-2.0195776924449578
1.507753722396736,14.955654366208105,-0.03910812987918211,0.4529217742993477,-2.0325824424115506
1.500759639909794,14.8756033225673,-0.03860389775350822,0.43653426615401697,-2.043425211195662
1.4938566985703745,14.798494463579498,-0.03809545046226291,0.4202308337104474,-2.051913463110788
1.4870458277245948,14.72431247780516,-0.03758089226862291,0.40401345267109706,-2.057845130140568
1.480328303903208,14.65304166485425,-0.037058261302342216,0.38788446900566986,-2.0610078135109893
1.4737057635719677,14.584665865458796,-0.036525520155883257,0.37184663538824797,-2.061177952071319
1.4671802176995017,14.519168384624898,-0.03598054509373889,0.35590315165506964,-2.058119966186675
1.460754068412358,14.456531907122951,-0.03542111365230049,0.34005770947766717,-2.05158539119106
1.454430128052107,14.396738404550366,-0.03484489035049075,0.324314541328849,-2.041312021999885
1.4482116410068635,14.339769033204686,-0.034249410152213874,0.30867847362313844,-2.0270231010938984
1.4421023087642846,14.285604022054493,-0.03363205920977277,0.2931549836012183,-2.0084265969511734
1.436106318732329,14.234222550216252,-0.03299005225640156,0.2777502590458956,-1.9852146407633846
1.4302283775089748,14.185602613575135,-0.03232040578086748,0.2624712591887315,-1.9570632181861312
1.424473749469477,14.139720880580537,-0.031619905769107746,0.24732577408459389,-1.9236322530214425
1.4188483018052724,14.096552537879603,-0.030885068277608507,0.23232247814801554,-1.8845662752593524
1.4133585575315737,14.056071127432784,-0.030112090319045708,0.21747097126110324,-1.8394959422707484
1.4080117585412166,14.018248378233483,-0.029296787351586674,0.202781797620012,-1.788040786065025
1.4028159416127854,13.983054037929989,-0.028434511853206747,0.1882664279743873,-1.7298136996121751
1.397780031522717,13.950455712779824,-0.027520044703110973,0.17393718480520634,-1.664427859764225
1.3929139572792506,13.920418728762499,-0.0265474468909584,0.15980708205395594,-1.5915070191370477
1.3882288003156815,13.892906032650863,-0.025509852704254602,0.1458895414086581,-1.5107003807128556
1.3837369877359647,13.86787815959483,-0.024399175959264493,0.13219793699169302,-1.4217035688427109
1.3794525501075534,13.845293303107727,-0.02320568657863748,0.11874491286502042,-1.3242874472899084
1.375391472867229,13.8251075330875,-0.021917393869412133,0.10554142069306592,-1.218336521786421
1.371572184609817,13.807275214392355,-0.02051914232405567,0.09259545369742866,-1.1038980266368328
1.3680162465547254,13.79174967532856,-0.01899128051029609,0.07991053590030793,-0.9812408748748954
1.3647493391536696,13.778484148411348,-0.017307690612547146,0.06748420762428894,-0.8509194922711734
1.3618026929097684,13.767432931582643,-0.015432823208576568,0.055307090472417705,-0.7138302218025621
1.359215206981285,13.758552561066,-0.013317020441237781,0.04336369304581869,-0.5712376748707528
1.3570367292654768,13.751802489575379,-0.010888287512188434,0.03163710129440268,-0.4247384763488713
1.355333674148304,13.747144166209626,-0.008034547123065144,0.020122047213966522,-0.2761279100623987
1.3542009969713735,13.74453563627469,-0.00455075484282829,0.008861618729762568,-0.12715029530078661
