x,y,v_x,v_y,omega
2.375,32.48,0.0,2.564102564102564,-3.591836734693878
2.3743962048778617,31.997719512124288,-0.006355738127769285,2.5125341503785816,-3.404604587900522
2.3726594685625884,31.525078583232194,-0.011925696769848976,2.462633522169791,-3.231622444064328
2.3699304135107866,31.061768809139952,-0.016801198512273463,2.4143114682748603,-3.071459334964976
2.366333404779574,30.607498110264636,-0.021062051289966292,2.367485361991607,-2.9228558422513005
2.361978585451438,30.16198954215835,-0.02477815216409098,2.3220785128114367,-2.784700548862259
2.3569636307750765,29.72498022139118,-0.028010844429190915,2.278019600527152,-2.6560101173560624
2.3513752639180248,29.296220352358954,-0.030814069855564626,2.2352421787594414,-2.5359123758096356
2.3452905690243457,28.87547234283025,-0.033235350077897095,2.193684237332193,-2.4236319083109903
2.3387781313973384,28.46250999787406,-0.035316624943237146,2.15328781483821,-2.318477739509346
2.3318990298139335,28.057117783310254,-0.03709497067154779,2.113998654254502,-2.219832776564351
2.324707702014618,27.659090151066508,-0.03860321668966991,2.075765895679658,-2.127144731201657
2.317252701136089,27.268230919858915,-0.0398704767685296,2.0385418012423866,-2.039918292533742
2.3095773581338555,26.88435270547884,-0.040922607465506855,2.0022815080215364,-1.9577083602240752
2.3017203629756073,26.507276395697815,-0.04178260472657803,1.9669428054629456,-1.8801141793041292
2.293716275491218,26.136830665419616,-0.04247094774067799,1.932485934307587,-1.8067742439342442
2.285595975175608,25.772851528234604,-0.04300589768679557,1.8988734044820195,-1.7373618587585467
2.277387057903081,25.415181920981194,-0.04340375781348912,1.866069829764388,-1.671581264130161
2.2691141863828848,25.06367131830614,-0.04367910029384167,1.8340417773414108,-1.6091642460808728
2.2607994002304244,24.718175374549315,-0.04384496446889673,1.802757630625208,-1.549867164040839
2.2524623907179486,24.37855559056824,-0.043913030399268485,1.7721874639124267,-1.4934683394286075
2.2441207445789684,24.044679003369907,-0.04389377106368239,1.7423029276489899,-1.4397657566911133
2.2357901606526873,23.716417896637573,-0.043796586055066714,1.7130771432176803,-1.3885750354694593
2.227484642652169,23.393649530433652,-0.04362991921355018,1.684484606297251,-1.339727638535823
2.2192166709094905,23.07625588852973,-0.043401362288325404,1.6565010979545653,-1.2930692851823846
2.210997355581614,22.76412344196484,-0.043117746426168856,1.6291036027284513,-1.2484585440020433
2.202836573482829,22.457142927566082,-0.04278522303472133,1.6022702330479728,-1.2057655826118012
2.1947430904356895,22.155209140283453,-0.04240933535621963,1.5759801594007408,-1.1648710549390429
2.186724670795753,21.858220738295998,-0.04199508190627148,1.5502135457303736,-1.125665109305946
2.1787881756007907,21.566080059939836,-0.0415469727775392,1.5249514895976748,-1.0880465027802613
2.17093965061773,21.278692951592628,-0.041069079675734615,1.5001759666886925,-1.0519218091716873
2.1631844054065734,20.995968605724126,-0.04056508044170075,1.4758697792955362,-1.0172047096919798
2.1555317508320138,20.717821104232954,-0.039989178237876004,1.4519986574536559,-0.9819905690554003
2.1479894864046805,20.444167488982853,-0.03940307889194965,1.4285657136000338,-0.948316421587054
2.14055934738139,20.17492593555779,-0.038808910826895505,1.4055559014006154,-0.9160972217199688
2.1332426862970015,19.910017415864388,-0.03820857427193324,1.3829548322141312,-0.8852535067619598
2.1260405141353758,19.649365576622436,-0.037603764271494304,1.3607487387538098,-0.8557109719764469
2.1189535373561874,19.392896624532035,-0.03699599129890688,1.3389244411451078,-0.8274000823284585
2.111982191207643,19.140539217679745,-0.036386599738404024,1.3174693151947945,-0.8002557173648861
2.1051266697080173,18.89222436277945,-0.035776784468185156,1.2963712627030388,-0.7742168460728795
2.098386952637267,18.647885317874504,-0.03516760575023847,1.2756186836648342,-0.7492262288916708
2.091762829843144,18.407457500155417,-0.03456000260894947,1.2552004502203242,-0.725230144346519
2.0852539231336187,18.17087839857306,-0.03395480485973962,1.2351058822255445,-0.702178138033613
2.0788597059985245,17.93808749095067,-0.03335274393072164,1.2153247243258882,-0.6800227919157212
2.0725795213776976,17.7090261653194,-0.0327544626042979,1.195847124424375,-0.6587195120937009
2.0664125976700984,17.483637645221744,-0.032160523791485485,1.1766636134456623,-0.63822633340174
2.0603580631581755,17.261866918745454,-0.03157141843928263,1.1577650863047741,-0.6185037393370976
2.054414959003707,17.043660671066803,-0.03098757266038529,1.139142783996816,-0.5995144959804701
2.048582250955311,16.8289672202977,-0.03040935416483885,1.1207882767305961,-0.5812234986929782
2.0428588398935132,16.617736456444955,-0.02983707806460846,1.102693448035112,-0.5635976304919416
2.037243571326504,16.40991978330315,-0.029271012114436064,1.0848504797733762,-0.5466056311116428
2.0317352439383005,16.205470063114387,-0.028711381445602188,1.0672518380030853,-0.5302179758485522
2.026332617280862,16.00434156383941,-0.028158372843222212,1.0498902596282347,-0.5144067633741987
2.021034418692579,15.80648990889468,-0.027612138612388905,1.0327587397899798,-0.4991456117740923
2.015839349517396,15.611872029219487,-0.027072800073746073,1.015850519948894,-0.4844095621387577
2.0107460906915273,15.420446117545985,-0.026540450724872593,0.9991590766143001,-0.47017498909385486
2.0057571661600018,15.232373011999673,-0.025974544343817404,0.9805578238731975,-0.49846662037721984
2.0008721814483676,15.04782366810062,-0.025446347357597716,0.9620668487484341,-0.5282874886914566
1.996084056130473,14.866777407626483,-0.024954971778133397,0.9436832615056291,-0.5595283127357727
1.9913858833843212,14.689214090605475,-0.024499478181358853,0.9254042860839152,-0.5920819050135293
1.9867709392598942,14.515114094064238,-0.02407888102313593,0.9072272564554295,-0.6258429355954417
1.9822326909826,14.344458291430684,-0.02369215347469778,0.8891496133714443,-0.6607076993945314
1.977764804380656,14.177228032518936,-0.023338231808926062,0.8711689014890681,-0.6965738859752346
1.973361150519076,14.013405124024334,-0.023016019365597655,0.8532827668751601,-0.7333403509123946
1.9690158116178775,13.852971810456935,-0.022724390120703028,0.8354889548869163,-0.7709068877016616
1.9647230863276197,13.695910755441684,-0.022462191882010922,0.8177853084315249,-0.809173999200758
1.960477494431459,13.5422050233127,-0.0222282491302074,0.8001697666103993,-0.8480426675507594
1.9562737810394855,13.391838060927814,-0.022021365522145703,0.782640363756823,-0.8874141214874794
1.9521069203382333,13.24479367962737,-0.021840326069980407,0.7651952288794297,-0.9271895999046624
1.9479721189559014,13.10105603725868,-0.021683899007197464,0.7478325855278587,-0.9672701104722926
1.9438648190019903,12.960609620183916,-0.021550837349762604,0.73055075210122,-1.0075561820441488
1.9397807008387753,12.823439225184948,-0.021439880157763522,0.7133481426247663,-1.047947609507896
1.9357156856412892,12.689529941173177,-0.02134975349998427,0.6962232680254681,-1.0883431896375253
1.931665937802316,12.55886713060616,-0.021279171120787865,0.6791747379431324,-1.1286404464007818
1.9276278672393226,12.431436410505125,-0.021226834805457884,0.6622012631203975,-1.1687353440521915
1.9235981316613158,12.30722363295855,-0.02119143443671903,0.6453016584225043,-1.2085219862042438
1.9195736388553373,12.18621486498651,-0.021171647731475274,0.6284748465463409,-1.2478922989139567
1.9155515490547794,12.068396367628246,-0.02116613964281987,0.6117198624880389,-1.2867356956483185
1.9115292774549488,11.953754574101172,-0.021173561408027994,0.5950358588495696,-1.324938721798885
1.9075044969454311,11.842276066863096,-0.021192549218474833,0.5784221120775549,-1.362384676202394
1.903475141133871,11.733947553390227,-0.021221722482157927,0.5618780297421297,-1.3989532068903126
1.8994394077419183,11.628755840461583,-0.02125968164365938,0.5454031589804339,-1.4345198780362558
1.8953957624613833,11.526687806714833,-0.02130500551986799,0.5289971962484996,-1.4689557047978228
1.8913429433672597,11.427730373209236,-0.021356248102485004,0.512659998547251,-1.5021266524620527
1.8872799659943609,11.331870471697474,-0.021411934770135237,0.4963915963134165,-1.5338930960074384
1.8832061291960511,11.2390950102692,-0.02147055784365117,0.48019220819473046,-1.564109235900215
1.8791210219171806,11.149390835984384,-0.021530571407617,0.4640622579612056,-1.5926224656640062
1.8750245310290696,11.062744694063195,-0.02159038530934172,0.4480023938407805,-1.6192726865236071
1.8709168503925646,10.979143183140518,-0.021648358232814916,0.43201351060842724,-1.64389156426113
1.8667984913361395,10.898572706026457,-0.021702789729555437,0.4160967748027486,-1.6663017233883595
1.8626702947601665,10.821019415338391,-0.021751911070160442,0.4002536534926891,-1.6863158739096438
1.8585334451063753,10.746469153285123,-0.02179387475922,0.38448594706802225,-1.703735866436766
1.8543894864637784,10.674907384788707,-0.021826742531273206,0.36879582657845233,-1.718351672383253
1.850240341119836,10.60631912302538,-0.02184847161548968,0.3531858761934349,-1.7299402876456058
1.8460883309094585,10.540688846354819,-0.021856899020062357,0.33765914139141107,-1.7382645609135199
1.841936201766127,10.478000405489933,-0.021849723541323324,0.3222191835021212,-1.7430719520334532
1.8377871519410796,10.418236919643078,-0.021824485143386255,0.3068701412016242,-1.744093232394775
1.8336448644312877,10.36138066027933,-0.021778541275475103,0.29161679946940533,-1.7410411491521904
1.8295135442494312,10.307412921029492,-0.0217090395861717,0.2764646663183722,-1.733609089748089
1.8253979612863702,10.256313872291738,-0.021612886340786217,0.2614200572369332,-1.721469804841563
1.8213034996696884,10.20806239912351,-0.021486709624285096,0.24649018663914907,-1.7042742795638046
1.8172362147281778,10.162635921260051,-0.021326816075828772,0.23168326455515467,-1.681650889605695
1.8132028989595717,10.120010194594073,-0.021129139383183407,0.21700859508671258,-1.6532050466414374
1.8092111588126785,10.080159094365918,-0.02088917795253475,0.202476670472824,-1.6185196364893775
1.8052695047091976,10.043054381875201,-0.02060191787358044,0.18809925048207307,-1.5771566965459263
1.8013874576662867,10.008665459071775,-0.020261735209691996,0.1738894106066189,-1.5286609846174104
1.7975756773382914,9.976959119400693,-0.019862268242890144,0.15986153329950836,-1.4725663829099822
1.7938461186044992,9.947899309429605,-0.019396244744394716,0.14603120323827096,-1.4084064860561403
1.790212227531093,9.92144692492819,-0.018855240238828255,0.1324149494082159,-1.3357312647476163
1.7866891935142082,9.897559678128204,-0.018229328359958365,0.11902975374952436,-1.2541323765272685
1.7832942840948867,9.876192090492356,-0.017506560264479536,0.10589222136465758,-1.1632804360241582
1.7800473045945502,9.857295686741477,-0.01667217131801106,0.09301729180248597,-1.0629780910874629
1.7769712499090105,9.840819486693679,-0.015707351687669388,0.08041639291116505,-0.9532323967019617
1.7740932561700056,9.826710898690699,-0.014587319249223634,0.0680950597517904,-0.8343472771773578
1.7714460254632676,9.81491708220284,-0.01327826713749113,0.056050376962517225,-0.7070292391712674
1.769070009951955,9.805386709408733,-0.011732422455275678,0.04426933665966651,-0.5724836753317494
1.7670168735652918,9.798071716384552,-0.009879539509598507,0.03273058991065128,-0.43245421832023634
1.7653553813418905,9.79292790962927,-0.007609852315679601,0.021414744355453864,-0.2891324164936834
1.764183287285935,9.789911499732366,-0.004727979852272311,0.010336938769874382,-0.14486265634483078
1.763664187101107,9.788959467064906,-0.0007362326196024595,-0.0003155422703128453,-0.0016659665491498832
