x,y,v_x,v_y,omega
2.375,32.48,0.0,2.6153846153846154,-3.591836734693878
2.3744494569631063,32.01384849882378,-0.006117144854376251,2.564076508795497,-3.4102449688134
2.3728640710158007,31.556788230357444,-0.01149825456012871,2.5143709186083205,-3.242017133670631
2.370368854720323,31.10853821300766,-0.01622637094517695,2.466184829722621,-3.085853007968285
2.3670747877557163,30.6688318750461,-0.020374373106009886,2.419441147628048,-2.9406035479674437
2.3630805225491196,30.237416039512688,-0.0240063514117302,2.3740681360765064,-2.805250752471004
2.3584738610477647,29.814050004136952,-0.027178776381102183,2.3299989236538856,-2.6788905373445266
2.353333036518188,29.398504704818738,-0.02994149616974998,2.287171068770718,-2.5607181208181844
2.347727828735693,28.990561952926026,-0.032338590302419576,2.245526174481646,-2.450015511753285
2.34172053639291,28.590013738078508,-0.03440910239516534,2.2050095460463486,-2.3461407658557842
2.335366826816996,28.196661589253086,-0.0361876706705519,2.1655698853472116,-2.2485187334172894
2.328716479987959,27.810315988019536,-0.03770507187429697,2.12715901724779,-2.156633069574172
2.3218140412753097,27.4307958285287,-0.038988691599590244,2.0897316437614633,-2.0700193166184384
2.314699395160721,27.05792791956155,-0.04006293189583686,2.053245122540249,-1.9882588993700265
2.307408270414143,26.691546524528185,-0.04094956528835897,2.0176592667193574,-1.9109739004342619
2.2999726856779765,26.33149293580063,-0.04166804289127136,1.9829361635868048,-1.8378225034237152
2.292421343138821,25.977615080186155,-0.042235763099348636,1.9490400099073564,-1.7684950097919987
2.2847799768883665,25.629767152711764,-0.042668306350143924,1.9159369620303381,-1.7027103494999045
2.277071661661226,25.287809276204392,-0.04297964061808444,1.8835949991626675,-1.6402130178636745
2.269317086860861,24.951607184423693,-0.04318230160819132,1.8519837984006418,-1.5807703810635767
2.2615348001230102,24.621031926741203,-0.043287551034595174,1.8210746202936887,-1.524170301274636
2.2537414241008036,24.295959592566824,-0.04330551587881328,1.7908402038660876,-1.4702190395084098
2.245951849671892,23.976271053905087,-0.04324531110909019,1.7612546701532066,-1.4187394002590201
2.2381794083527824,23.661851724583432,-0.043115147992129815,1.732293433420769,-1.3695690871188246
2.230436026348635,23.352591334835676,-0.04292242983173086,1.7039331193320844,-1.3225592428250412
2.2227323623592934,23.04838372004875,-0.042673836716509955,1.676151489411529,-1.2775731508462314
2.215077930996856,22.749126622591476,-0.04237540064390638,1.648927371224872,-1.2344850787221378
2.207481213440537,22.45472150574284,-0.042032572204084774,1.6222405937599857,-1.1931792460189665
2.199949756755645,22.165073378825255,-0.041650279850270366,1.5960719275464548,-1.1535489020268406
2.192490263130857,21.880090632727008,-0.04123298264736966,1.5704030291007522,-1.1154955002667357
2.1851086701378413,21.599684885068605,-0.04078471727502837,1.5452163893259716,-1.0789279585405924
2.177810222986536,21.323770834331352,-0.040309139961696126,1.520495285532381,-1.0437619946921621
2.1705995396353472,21.052266122323417,-0.03980956394040112,1.4962237367780082,-1.0099195294823753
2.163483323602734,20.785092726494497,-0.03925950308863216,1.472369550209981,-0.9759116693629383
2.1564670056497683,20.522175237991974,-0.03869958527765888,1.4489358775958572,-0.9433439791539343
2.14955218493488,20.263439227973414,-0.038131755998873675,1.425908678165868,-0.9121392942499402
2.1427401285985006,20.008812741451138,-0.03755775884978964,1.4032745054149942,-0.8822253634409893
2.136031806327266,19.758226193190794,-0.03697915527504063,1.3810204752554935,-0.8535344860182087
2.1294279215443708,19.51161226915936,-0.03639734231268286,1.3591342362048597,-0.8260031792722179
2.1229289395659214,19.268905833169782,-0.035813568558976376,1.337603941457142,-0.7995718735427015
2.1165351130269623,19.030043838395766,-0.03522894854056892,1.316418222698577,-0.7741846322704967
2.1102465048487593,18.79496524345427,-0.03464447566168892,1.2955661655402422,-0.7497888947634911
2.104063008990439,18.563610932775056,-0.03406103387519994,1.2750372864510704,-0.7263352396186372
2.0979843692027846,18.33592364099688,-0.03347940820984815,1.2548215110841991,-0.7037771669479349
2.0920101959794666,18.11184788114845,-0.03290029427146473,1.2349091538983534,-0.6820708977393656
2.086139981880963,17.891329876389047,-0.03232430682302141,1.2152908989838918,-0.6611751888471236
2.080373115388555,17.674317495099565,-0.03175198753706756,1.1959577820103475,-0.6410511622513916
2.0747088934298574,17.460760189128937,-0.031183812004016896,1.1769011732188563,-0.6216621473583739
2.06914653270312,17.250608935014245,-0.030620196070841113,1.1581127613888316,-0.6029735352280989
2.06368517991483,17.043816178005017,-0.030061501576826615,1.1395845387137011,-0.5849526437221839
2.058323921033772,16.84033577873349,-0.029508041546038342,1.1213087865254923,-0.5675685926576811
2.0530617896545373,16.64012296238306,-0.02896008488990464,1.1032780618125964,-0.5507921881374906
2.047897774554344,16.4431342702168,-0.028417860667797255,1.085485184479209,-0.5345958153036916
2.042830826518873,16.249327513336784,-0.027881561948549283,1.0679232252987496,-0.5189533388284268
2.0378598645054717,16.05866172855336,-0.027351349311460982,1.0505854945170556,-0.5038400105185098
2.032983781205512,15.871097136251034,-0.026827354021425796,1.0334655310643537,-0.48923238346542136
2.0282014480617456,15.686595100144828,-0.026309680909312995,1.0165570923379526,-0.47510823222246823
2.023511719791202,15.505118088827583,-0.025798410985620288,0.999854144520308,-0.46144647853616294
2.0189134384593603,15.32662963901479,-0.025293603812618075,0.9833508533995977,-0.448227122199845
2.0144089821717683,15.151322515636181,-0.02475591049395852,0.9645060730293777,-0.4856015932274503
2.0099975823098983,14.979398267544259,-0.024259643526816616,0.9457633502142104,-0.5241250568934523
2.005671903241373,14.810838750858327,-0.023803457234581316,0.9271201685183492,-0.563695614863016
2.0014248533094814,14.645626265670671,-0.023385986453099333,0.9085741113444976,-0.6042126564260252
1.9972495880747307,14.483743538282507,-0.02300584948857559,0.8901228596351245,-0.6455766360141673
1.9931395130538416,14.325173703821509,-0.022661650743524952,0.8717641899315284,-0.6876888509866202
1.9890882860143382,14.169900289176248,-0.0223519830287361,0.8534959727935925,-0.7304512186932804
1.9850898188798518,14.017907196182072,-0.022075429576667017,0.8353161715861389,-0.7737660517932846
1.9811382792987253,13.869178684991635,-0.021830565769183928,0.8172228416409658,-0.8175358307668316
1.9772280919263936,13.723699357561308,-0.0216159605900572,0.7992141298070861,-0.861662972509403
1.9733539394703783,13.581454141182181,-0.02143017781011312,0.7812882744054377,-0.9060495938387293
1.9695107635455336,13.44242827198093,-0.021271776910382654,0.7634436056084617,-0.9505972686754366
1.965693765386463,13.306607278311912,-0.021139313745958732,0.7456785462695148,-0.9952067775773593
1.9618984064637779,13.173976963956758,-0.02103134095054105,0.7279916132321881,-1.039777848213977
1.9581204090511393,13.044523391041881,-0.020946408078778653,0.7103814191553223,-1.0842088852602418
1.954355756790806,12.918232862577266,-0.020883061480478547,0.6928466748959627,-1.128396688066981
1.9506006953067887,12.795091904511647,-0.02083984389749312,0.6753861924998005,-1.1722361543267925
1.9468517329166617,12.675087247189541,-0.020815293770585008,0.6579988888569428,-1.2156199677985804
1.943105641495732,12.558205806084288,-0.020807944239745663,0.6406837900903153,-1.258438267979208
1.9393594575506017,12.444434661668229,-0.02081632181725672,0.6234400367548008,-1.3005782994159598
1.9356104835633134,12.333761038265912,-0.02083894470816896,0.6062668899375906,-1.3419240381374207
1.9318562896722797,12.226172281718732,-0.02087432074776068,0.5891637383644024,-1.382355792442309
1.9280947157621953,12.12165583566901,-0.02092094491984528,0.5721301066324878,-1.4217497750254908
1.9243238740422,12.020199216248184,-0.020977296413434855,0.5551656647100268,-1.459977643138642
1.9205421521998594,11.921789984926619,-0.021041835168127705,0.5382702388629276,-1.4969060031819765
1.9167482172281782,11.826415719251443,-0.02111299785055103,0.5214438241945968,-1.5323958758074487
1.9129410200340684,11.73406398116282,-0.021189193195115065,0.5046865990123196,-1.5663021172904281
1.909119800949623,11.644722282537781,-0.02126879663205501,0.4879989412658729,-1.598472792608259
1.9052840962824733,11.558378047563227,-0.02135014411405377,0.47138144734026993,-1.628748495369429
1.9014337460586614,11.475018571485318,-0.021431525039410468,0.45483495352537334,-1.6569616094952793
1.8975689031312144,11.394630975220277,-0.021511174154445624,0.43836056053061917,-1.6829355074105898
1.8936900438502935,11.317202155240846,-0.02158726230022982,0.42195966146306957,-1.706483679513947
1.8897979805169278,11.242718728072507,-0.021657885848280392,0.4056339737407044,-1.7274087899673294
1.8858938758724513,11.171166968643664,-0.02172105464590078,0.38938557546866914,-1.7455016545036577
1.8819792599106173,11.102532741633986,-0.02177467826336796,0.3732169468610972,-1.7605401372001608
1.8780560493398422,11.036801424855895,-0.021816550300798508,0.35713101733991504,-1.77228796529339
1.874126570070457,10.973957823587458,-0.021844330470147614,0.3411312189760654,-1.7804934645382524
1.8701935831578638,10.913986074654662,-0.02185552411422205,0.3252215469438995,-1.7848882229481058
1.8662603146996475,10.856869538944451,-0.021847458754847417,0.30940662761398263,-1.7851856988818444
1.8623304902665403,10.802590680929114,-0.02181725716856662,0.2936917947786469,-1.7810798016562936
1.85840837454916,10.75113093371791,-0.021761806357880255,0.2780831742347368,-1.7722434910357325
1.8544988170330667,10.702470548155667,-0.021677721598711626,0.2625877764568374,-1.7583274688199595
1.85060730468713,10.656588424611478,-0.02156130446725174,0.2472135962563876,-1.7389590752982644
1.8467400228856499,10.613461926423092,-0.021408493326971978,0.23196971694788793,-1.7137415613348754
1.842903926117308,10.573066674606316,-0.021214804099051684,0.21686641434961554,-1.682253991632139
1.8391068205196803,10.535376324588388,-0.020975258096807697,0.20191525251627018,-1.6440521581586416
1.835357461008499,10.500362327656578,-0.020684292027428535,0.18712915783717785,-1.5986710614245543
1.8316656668976878,10.467993682932043,-0.020335642537140382,0.17252245021321144,-1.5456297735860147
1.828042461680488,10.438236690557154,-0.019922193209526113,0.15811079839664502,-1.484439859353733
1.824500245479045,10.411054724192962,-0.019435764584284417,0.1439110500944002,-1.414619028714407
1.8210530132541238,10.386408051801968,-0.018866815692619117,0.1299408653610741,-1.3357123495035501
1.81771663931608,10.364253748950492,-0.018204005841200736,0.11621805521089729,-1.2473241331117961
1.8145092607944773,10.344545768760607,-0.017433533287719603,0.1027595024544881,-1.1491643721911597
1.8114518123638352,10.327235255210748,-0.016538115941637274,0.08957953698838823,-1.041113905753206
1.8085687961870414,10.312271204112186,-0.01549539713384983,0.07668769744007899,-0.9233112495402144
1.8058894221119348,10.299601568954365,-0.014275425922887441,0.06408602653569562,-0.7962591355338555
1.803449337981359,10.289174834443926,-0.012836619972399948,0.051766579135839,-0.6609368989885367
1.801293326622122,10.2809418609896,-0.011119061796902224,0.03971090369002696,-0.5188828309231812
1.7994797108654015,10.27485730645106,-0.009032224388879403,0.027895257849289274,-0.3721812175794952
1.7980883789582816,10.270878843238766,-0.006427019023565601,0.016309888953981357,-0.22326918257085981
1.7972398849181883,10.268958861749848,-0.0030006925330242035,0.005023238700665327,-0.07450157445201169
