x,y,v_x,v_y,omega
2.375,32.48,0.0,3.230769230769231,-4.204081632653061
2.373860807853068,31.810120970362174,-0.01084944901839798,3.1490310514957343,-3.910277273306905
2.370626456902896,31.157021975244696,-0.01995389336419237,3.0709593781945594,-3.6473925708163977
2.3656350546248675,30.51996040195552,-0.027583271188463786,2.996293700749978,-3.4112337732946614
2.359172768636922,29.89824566947586,-0.0339623096491101,2.924798989532494,-3.198277375600724
2.3514824481892327,29.291234223673655,-0.03927883747174018,2.85626239905994,-3.0055485286276276
2.3427706759734823,28.698325167359755,-0.04369042172588138,2.7904905182152775,-2.830524005392782
2.333213563387633,28.118956422136353,-0.047329698139351145,2.727307055340939,-2.671054266812998
2.3229615341549676,27.552601339619155,-0.050308675505083465,2.666550873394284,-2.5253004940915065
2.3121432891618565,26.998765695371702,-0.05272222919121301,2.608074309914792,-2.391683429948744
2.3008691053628607,26.45698501107647,-0.054650949846840324,2.5517417309921973,-2.2688415967237634
2.2892335905929957,25.926822160004768,-0.056163476532827376,2.4974282792144673,-2.1555970045322237
2.27731799193091,25.40786521839508,-0.05731841548703651,2.4450187837349273,-2.0509268756407963
2.265192136256641,24.89972553138462,-0.05816592426790672,2.394406806840885,-1.9539402265099768
2.252916066640384,24.40203596701169,-0.05874902445835242,2.3454938062346367,-1.8638583914151603
2.2405414262810304,23.91444933577589,-0.05910469324977575,2.29818839601111,-1.7799987592567847
2.2281126322012472,23.43663695650384,-0.059264774176729665,2.252405692294121,-1.701761141390346
2.21566787327807,22.968287351967145,-0.05925673937733551,2.208066731864878,-1.628616302880571
2.2032399610439573,22.509105059949057,-0.05910432951897773,2.1650979540216615,-1.5600962798545417
2.190857056723557,22.05880954734424,-0.05882809258007549,2.1234307374528134,-1.4957861771203502
2.178543293935657,21.617134216469417,-0.05844583873325685,2.08300098516453,-1.4353171971155199
2.1663193131999843,21.183825494115435,-0.057973025416008475,2.043748751540062,-1.3783606967431683
2.1542027216971515,20.75864199502508,-0.05742308413477685,2.005617906463301,-1.3246231051906807
2.1422084895206854,20.341353752470408,-0.05680769849823538,1.96855583215265,-1.273841565293064
2.13034929184036,19.931741509454845,-0.05613704131438404,1.9325131489479437,-1.225780184865072
2.118635804892608,19.529596064801773,-0.05541997723563951,1.8974434667955902,-1.1802268038237576
2.1070769624677634,19.134717669030017,-0.054664236334307136,1.863303159602098,-1.13699019875012
2.095680178528311,18.74691546547313,-0.05387656308904824,1.8300511599873162,-1.0958976594983483
2.0844515407290936,18.366006972585378,-0.053062844522548135,1.7976487722769832,-1.056792883109668
2.0733959788890384,17.99181760380327,-0.05222822062083552,1.766059501838344,-1.019534139066189
2.0625174118594365,17.62418022170581,-0.05137717966108524,1.7352488990898323,-0.9839926671799806
2.051818875725974,17.26293472354662,-0.05051364065760792,1.7051844167119683,-0.9500512754351131
2.0413026358540485,16.90792765552243,-0.0496410247893009,1.6758352787565185,-0.9176031101113752
2.0309702849259184,16.559011853400648,-0.04876231738336547,1.6471723604985553,-0.8865505746997947
2.0208228288127907,16.21604610735781,-0.0478801217892786,1.619168078004672,-0.8568043776190147
2.0108607618659917,15.878894849084507,-0.04699670627547662,1.591796286502978,-0.828282691677391
2.0010841329912905,15.547427859394105,-0.046114044912151896,1.5650321867389443,-0.8009104106954745
1.9914926036830654,15.221519994734816,-0.04523385326142105,1.5388522385876222,-0.7746184907866289
1.9820854990351005,14.901050931149886,-0.04435761957634152,1.5132340812688645,-0.7493433655548125
1.9728618526081294,14.585904924360825,-0.043486632109094946,1.4881564595793162,-0.7250264259613549
1.9638328890282253,14.275972034572664,-0.042503497223325824,1.4635853479269894,-0.6982462972598968
1.9550084206893432,13.971146369473374,-0.04153905838507593,1.4395162244472195,-0.6727306972422951
1.9463844946513933,13.67132444333225,-0.04059357054778046,1.4159306911825214,-0.6484046192138165
1.9379571151526682,13.376406542944402,-0.03966718658293288,1.3928112172731724,-0.6251983497840996
1.9297222635483393,13.086296550918792,-0.038759971553534535,1.370141087732626,-0.6030470362518965
1.921675915440352,12.80090177934547,-0.0378719151892024,1.3479043558228434,-0.5818902940439691
1.913814055352411,12.520132813116803,-0.03700294279118766,1.3260857987358756,-0.5616718500741517
1.9061326892589652,12.24390336223643,-0.0361529247654393,1.3046708763152761,-0.5423392183582242
1.898627855238224,11.972130122502918,-0.03532168495590301,1.283645692575331,-0.5238434046317362
1.8912956324854284,11.70473264400372,-0.0345090079278659,1.2629969597979995,-0.5061386370790647
1.8841321488931606,11.44163320689918,-0.03371464533182726,1.2427119650071372,-0.48918212059944
1.877133587379845,11.182756704016516,-0.03293832146165726,1.2227785386372874,-0.4729338123151371
1.8702961911252065,10.928030529810421,-0.03217973810632797,1.2031850252302791,-0.45735621627342976
1.8636162678519375,10.67738447528048,-0.03143857878194876,1.1839202560072697,-0.442414195511461
1.8570901932757389,10.430750628466146,-0.03071451241994222,1.164973523176873,-0.4280747998455519
1.8507144138309835,10.188063280168137,-0.030007196577727505,1.1463345558517757,-0.4143071079167999
1.844485448766168,9.949258834570728,-0.02931628023003996,1.1279934974568953,-0.4010820821758417
1.8383998916918705,9.714275724462965,-0.028641406191840687,1.1099408845217875,-0.3883724356237377
1.8324544116538881,9.483054330778504,-0.02798221321751409,1.0921676267587754,-0.3761525092451308
1.826645753795412,9.25553690619353,-0.027338337815591897,1.074664988336232,-0.36439815917593066
1.8209707396643602,9.03166750254054,-0.02670941581347275,1.0574245702636913,-0.3530866527423313
1.8154262672151897,8.811391901812588,-0.02609508370243594,1.0404382938120567,-0.3421965725923415
1.8100093105485262,8.594657550548014,-0.025494979789597867,1.023698384898185,-0.33170772821638445
1.8047169194266908,8.3814134974,-0.02490874518026237,1.0071973593686077,-0.3216010742209399
1.7995462185985756,8.171610333708472,-0.024336024611312842,0.9909280091221544,-0.3118586347795682
1.7944991216964499,7.965339353963728,-0.023731564932741183,0.973557512256354,-0.32896654189248387
1.7895753922887254,7.762704142845383,-0.02316109609320453,0.9563016412517075,-0.3479873998282803
1.7847679265479135,7.563680964145114,-0.02262429191452656,0.9391572035127723,-0.36881004266023426
1.7800696981389155,7.368246739022162,-0.022120740552121942,0.9221211309915424,-0.3913263197192891
1.775473775378564,7.176379020392837,-0.02164995240360589,0.9051904750020275,-0.41543085551788644
1.7709733368022602,6.988055968366037,-0.021211367370716567,0.8883624014436884,-0.44102081722445685
1.7665616852686168,6.803256326640724,-0.02080436152112594,0.8716341864164464,-0.4679956887580274
1.762232260723655,6.621959399784693,-0.02042825319279721,0.8550032122124098,-0.4962570505971313
1.7579786517375235,6.44414503131685,-0.020082308579882985,0.8384669636718215,-0.5257083644156886
1.7537946059188854,6.269793582517536,-0.019765746835719248,0.8220230248930762,-0.5562547616708107
1.7496740393049857,6.098885911893419,-0.019477744725229,0.8056690762889961,-0.5878028352735416
1.7456110448189586,5.931403355224763,-0.0192174408559809,0.7894028919839167,-0.6202604334732986
1.7415998998800868,5.767327706123854,-0.01898393951422724,0.7732223375485567,-0.6535364550800657
1.7376350732475006,5.606641197033682,-0.01877631412944861,0.7571253680721468,-0.687540645134991
1.7337112311731437,5.449326480595847,-0.018593610388235645,0.7411100265739096,-0.7221833901196607
1.7298232429357288,5.295366611315917,-0.01843484901571815,0.7251744427587562,-0.7573755117665879
1.725966185823859,5.144745027453119,-0.01829902824018475,0.7093168321250269,-0.7930280584979152
1.72213534963347,4.997445533059285,-0.018185125953997936,0.6935354954353018,-0.8290520934754573
1.7183262407422557,4.853452280089275,-0.018092101581374954,0.6778288185647967,-0.8653584781923778
1.7145345858218013,4.7127497505016755,-0.01801889766104825,0.6621952727456905,-0.9018576504742962
1.7107563352467239,4.57532273826423,-0.017964441149212678,0.6466334152299731,-0.938459395684658
1.7069876662592811,4.4411563311732785,-0.017927644445480586,0.6311418903981315,-0.9750726098448749
1.70322498594762,4.310235892390114,-0.01790740614176864,0.6157194313462901,-1.0116050532830916
1.6994649340961692,4.182547041589764,-0.017902611491097013,0.6003648619903912,-1.0479630933153874
1.6957043859676375,4.058075635608834,-0.017912132590154416,0.5850770997327562,-1.0840514343386902
1.6919404550777277,3.9368077484687696,-0.017934828266129344,0.5698551587440361,-1.1197728335745185
1.6881704960260426,3.8187296506388044,-0.017969543654682403,0.5546981539222927,-1.1550278005457841
1.6843921074498427,3.7038277873888674,-0.0180151094519844,0.5396053056009258,-1.1897142781942711
1.680603135171346,3.5920887560664703,-0.01807034081941185,0.5245759450885671,-1.2237273033532907
1.6768016756142632,3.483499282112774,-0.018134035914709655,0.5096095211371244,-1.2569586440780012
1.6729860795713156,3.3780461936112154,-0.01820497401812508,0.4947056074491348,-1.2892964111052352
1.6691549564117216,3.2757163941370173,-0.018281913216103146,0.47986391135274675,-1.3206246404666517
1.6653071788261868,3.1764968336467874,-0.01836358759851266,0.4650842837923107,-1.3508228440164014
1.6614418882169601,3.0803744771140664,-0.018448703917931908,0.45036673080503564,-1.3797655243623081
1.6575585008522085,2.987336270578158,-0.01853593765113086,0.4357114266798103,-1.4073216504161963
1.6536567149175343,2.8973691042293197,-0.018623928393386037,0.42111872902340536,-1.4333540895176657
1.649736518613155,2.8104597721026856,-0.018711274505466176,0.406589195992151,-1.4577189918566091
1.645798199463397,2.726594927895192,-0.018796526920799445,0.3921236059839801,-1.4802651227535106
1.6418423550260637,2.6457610363536013,-0.01887818200618332,0.3777229801264149,-1.5008331382981683
1.6378699052133445,2.5679443196065996,-0.018954673353046715,0.3633886079402538,-1.5192547999631547
1.6338821064637674,2.4931306977293026,-0.019024362357212537,0.3491220766054223,-1.5353521241947015
1.6298805680368833,2.421305722733944,-0.019085527422635504,0.33492530430276785,-1.5489364637812733
1.6258672707397477,2.3524545050763948,-0.019136351597704673,0.32080057815009433,-1.5598075192127336
1.6218445884378956,2.2865616316555304,-0.01917490841993581,0.30675059728672194,-1.5677522805662427
1.617815312754879,2.2236110741641326,-0.01919914570402955,0.2927785216789644,-1.5725439041172806
1.6137826814255816,2.163586086531396,-0.019206866955947012,0.2788880272042574,-1.5739405334969796
1.6097504108424192,2.1064690900873586,-0.019195710026552973,0.2650833675008515,-1.5716840837026662
1.6057227334246025,2.0522415449945655,-0.019163122524082785,0.25136944290668783,-1.5654990189286961
1.6017044405555463,2.000883806456926,-0.019106333371688957,0.23775187649939883,-1.5550911739265365
1.5977009319827349,1.9523749642705788,-0.019022319702705705,0.2242370967039116,-1.5401466961994061
1.5937182727743469,1.9066926644889932,-0.0189077679962274,0.21083242502549113,-1.5203312268116833
1.5897632592041675,1.8638129124313139,-0.018759027910242015,0.19754616600003355,-1.4952894967618495
1.585843495333577,1.8237098571163592,-0.01857205657157273,0.18438769414237643,-1.4646456020635275
1.5819674826467245,1.786355558675961,-0.018342349969880937,0.17136752909951208,-1.4280043456664306
1.578144725987445,1.7517197427175084,-0.018064856308970343,0.15849738479050937,-1.3849542142973432
1.5743858604339687,1.7197695494379275,-0.01773386324794794,0.14579017025313357,-1.335072814380291
1.5707028059437407,1.6904692911927626,-0.017342846182794976,0.13325990827226103,-1.2779359485655142
1.567108960122956,1.6637802410402074,-0.016884256872296107,0.1209215217520715,-1.213131996585882
1.5636194451712295,1.6396604874630825,-0.0163492188584327,0.10879041707767464,-1.1402838759587914
1.560251434295255,1.6180649077399316,-0.015727075198467437,0.0968817707618669,-1.0590815424335742
1.5570245978710968,1.5989453338293131,-0.015004700269705788,0.0852094093392468,-0.9693285315283661
1.5539617338202447,1.5822510063006625,-0.014165433547931943,0.07378418617171639,-0.8710058739504657
1.5510896855385417,1.5679294219989472,-0.01318740723019247,0.06261185479699208,-0.7643545985606387
1.5484407137762382,1.5559276519459004,-0.012040895267937207,0.05169071713677097,-0.6499717072446203
1.54605459696351,1.5461940820099613,-0.010684026758045006,0.04100994891980238,-0.528900931940897
1.5439819510587318,1.538680213713718,-0.009055458049367566,0.030550701520604774,-0.40267742542590323
1.5422898319389073,1.5333414827381837,-0.0070599621394363665,0.020294355389256842,-0.2732614882526272
1.5410727994215327,1.5301344230276577,-0.0045308237403232435,0.010249070425273177,-0.1427906088354346
1.5404852241644318,1.5289999675805497,-0.0010651310892074483,0.0005552671662195172,-0.013145526686026782
