x,y,v_x,v_y,omega
2.375,32.48,0.0,3.6923076923076925,-3.7142857142857144
2.373591943357043,31.643705262766474,-0.012243970808323715,3.5798204575490287,-3.393752207241074
2.3696447597769255,30.832563094655015,-0.02207936467095726,3.473589699941923,-3.1152214665724345
2.3636597922722045,30.045196193457606,-0.029963831022268288,3.3730790061225004,-2.8716864910042488
2.356043897400831,29.280343502390476,-0.03626134177228346,3.277813959678626,-2.6575057519833143
2.3471285879484114,28.53684701167559,-0.04126308824875739,3.1873729161029956,-2.468103587996666
2.3371849518207224,27.813640484078473,-0.045203312861580774,3.1013794977849822,-2.2997431535449238
2.326435359490732,27.109739753806423,-0.048271403051380134,3.019496417624124,-2.1493527726309596
2.3150627100815546,26.42423432609897,-0.050621200506685726,2.9414203450494227,-2.014392008305544
2.303217777016247,25.756280062280712,-0.05237821745250836,2.8668776011962604,-1.8927475488888337
2.2910250762706017,25.1050927781546,-0.05364526729223454,2.795620521639523,-1.7826516752795845
2.278587578757628,24.469942616497654,-0.05450688499449244,2.7274243623338914,-1.682617969013773
2.2659905129876687,23.850149079877365,-0.05503281735297971,2.662084651755592,-1.5913902839497522
2.2533044477071447,23.245076629972417,-0.05528079378201355,2.599414912635255,-1.5079019948385153
2.2405878016425103,22.65413077542671,-0.05529873721480766,2.5392446921100245,-1.431243262223376
2.2278888951325673,22.076754582972814,-0.05512653678469309,2.4814178509673384,-1.3606345901638432
2.215247633700657,21.512425556848687,-0.05479747566670164,2.42579107185117,-1.2954053536452024
2.2026968945899137,20.960652839930468,-0.054339386165850954,2.3722325535246234,-1.2349762732542382
2.1902636725589026,20.420974696913767,-0.05377558801685191,2.3206208640119392,-1.178845042176447
2.1779700297756017,19.892956245599084,-0.0531256535770686,2.270843930028768,-1.12657448379375
2.1658338856833637,19.376187407107558,-0.05240603418152358,2.2227981438105684,-1.0777827509105382
2.1538696756648745,18.87028104985162,-0.051630574674905345,2.176387571458466,-1.032135179981026
2.142088901762916,18.374871305454526,-0.05081093751603511,2.1315232493858147,-0.9893374930693234
2.13050059429896,17.889612037665113,-0.04995695347488881,2.0881225574786626,-0.9491301021457595
2.1191116997096424,17.414175447739552,-0.049076912519177604,2.046108659265325,-0.9112833188148806
2.1079274071032756,16.948250801833034,-0.04817780579705485,2.0054100007913767,-0.8755933107667028
2.0969514237742777,16.49154326771907,-0.04726552749857889,1.965959861069177,-0.841878676474194
2.0861862080870477,16.043772849681037,-0.04634504369472675,1.9276959479571913,-0.8099775336981591
2.075633166662229,15.604673411737895,-0.04542053391239171,1.890560034157079,-0.7797450365595313
2.065292821597047,15.173991780506753,-0.04449551013266743,1.854497628722415,-0.7510512513384878
2.055164952472131,14.751486919995223,-0.043572917040519576,1.819457680073511,-0.7237793335627184
2.0452487170963134,14.336929171478825,-0.04265521666224075,1.7853923070255882,-0.6978239589764531
2.035542754283804,13.930099552371551,-0.04174445996827774,1.7522565547767968,-0.673089969122944
2.026045271417355,13.530789108656524,-0.04084234756605646,1.720008173179972,-0.6494911989060445
2.0167541191047658,13.138798316021894,-0.039950281239068436,1.6886074149472325,-0.6269494589201403
2.007666854866655,12.753936525355442,-0.03906940778798196,1.6580168517175595,-0.605393649787876
1.9987807974869165,12.376021448699412,-0.03820065638365741,1.6282012061609674,-0.5847589894088863
1.9900930734021771,12.004878682162897,-0.03734477044016404,1.5991271985043805,-0.5649863370489168
1.981600656293827,11.640341262639321,-0.036502334849836754,1.570763406048462,-0.5460216007061554
1.9733004008682773,11.28224925548713,-0.03567379928537812,1.5430801344053566,-0.5278152162756017
1.9651890716619862,10.93044937060781,-0.03485949816063126,1.5160492993278576,-0.5103216887695408
1.9572633675825397,10.584794604600877,-0.03405966774759994,1.4896443181237276,-0.4934991873045549
1.9495332548610909,10.245144794841433,-0.0331587037432587,1.4638322884801236,-0.47394049152735507
1.9420075243446493,9.911365353262877,-0.032282431182320936,1.4385976382899226,-0.4553777908757265
1.9346805473563586,9.583326092661732,-0.031430412194119225,1.413917671285246,-0.43774754035766383
1.927546800847924,9.260901913566375,-0.03060216614009566,1.3897708425874369,-0.4209910174317512
1.92060087613239,8.943972547803146,-0.02979717921237179,1.3661366857884676,-0.40505389854938356
1.9138374855779299,8.632422318203215,-0.02901491256554463,1.3429957455152852,-0.38988587778896694
1.9072514675755488,8.326139913243946,-0.028254809194290038,1.3203295150001018,-0.37544032292192525
1.9008377900483284,8.02501817552287,-0.0275162997380612,1.2981203782266515,-0.3616739648177299
1.8945915527311705,7.728953903056414,-0.026798807367658616,1.276351556264281,-0.34854661658736086
1.888507988417005,7.437847662480532,-0.02610175188595456,1.2550070574390435,-0.3360209192923624
1.8825824633371868,7.151603613307252,-0.025424553155942855,1.2340716310242619,-0.3240621114190806
1.8768104768196556,6.870129342460739,-0.02476663395302345,1.2135307241628044,-0.3126378196424901
1.8711876603477315,6.59333570837962,-0.02412742232457708,1.1933704417599689,-0.3017178686878054
1.8657097761246777,6.321136694029597,-0.023506353528066935,1.173577509109775,-0.2912741083464261
1.8603727152339367,6.053449268222497,-0.0229028716088105,1.1541392370389247,-0.2812802559204625
1.8551724954718811,5.790193254685242,-0.022316430669933635,1.13504348937198,-0.2717117525612189
1.8501052589186813,5.531291208365516,-0.021746495879630786,1.1162786525386805,-0.2625456321350744
1.8451672693032535,5.276668298500173,-0.021192544254524152,1.0978336071599706,-0.2537604013982116
1.8403549092099474,5.026252198008482,-0.02065406525248404,1.0796977014634375,-0.24533593039217594
1.8356646771674967,4.7799729788051515,-0.020130561203610155,1.061860726391623,-0.23725335208754667
1.8310931846546137,4.537763012658118,-0.01962154760406706,1.044312892278217,-0.22949497040497333
1.8266371530513337,4.299556877243699,-0.019126553294021183,1.027044806977597,-0.22204417583315422
1.8222934105606556,4.065291267076869,-0.0186451205379611,1.0100474553426588,-0.2148853679434381
1.8180588891211302,3.8349049090176983,-0.01817680502312838,0.9933121799544845,-0.20800388417187005
1.8139344378874682,3.6084350066102324,-0.017687988313062914,0.975991319240886,-0.21820099881406224
1.8099193308865689,3.385934294055943,-0.017225985607801725,0.958797485579008,-0.23070187251624094
1.806007354516347,3.1673739901981577,-0.016791200220213173,0.9417268957930404,-0.24538062666051522
1.8021922190142392,2.952726166327597,-0.016383891102465485,0.9247759204726915,-0.2621154371222566
1.7984675902113905,2.7419637116543605,-0.016004185444044517,0.9079410766859025,-0.28078824269625097
1.7948271185058005,2.535060300394086,-0.015652090256737968,0.8912190212295206,-0.30128446525072594
1.7912644652785856,2.3319903603480014,-0.015327503023392185,0.8746065443885925,-0.32349274043029785
1.7877733269605942,2.1327290428628274,-0.015030221480879857,0.8581005641781415,-0.3473046577791859
1.7843474569410824,1.9372521940622427,-0.014759952601831978,0.8416981210443416,-0.3726145091983961
1.7809806854959347,1.745536327246576,-0.01451632083423506,0.825396373004938,-0.3993190446852397
1.7776669378999108,1.5575585963616732,-0.014298875652928872,0.8091925912115963,-0.4273172343307105
1.7744002508755075,1.3732967704415806,-0.014107098472318357,0.7930841559196471,-0.45651003556999686
1.7711747875201933,1.1927292089326755,-0.013940408965196476,0.7770685528534353,-0.4868001646937675
1.7679848508439266,1.015834837809333,-0.013798170828425415,0.7611433699582354,-0.5180918716327831
1.7648248960399424,0.8425931263929023,-0.01367969703230686,0.7453062945324723,-0.5502907170257
1.7616895416037504,0.672984064786931,-0.013584254586754241,0.7295551107368422,-0.5833033505694146
1.7585735794080835,0.5069881418420081,-0.013511068853828401,0.7138876974798792,-0.6170372896326217
1.7554719838351232,0.34458632356331975,-0.013459327432781183,0.6983020266826232,-0.6514006970860015
1.7523799200617032,0.185760031873059,-0.013428183640437134,0.6827961619283387,-0.6863021572660976
1.7492927515883054,0.03049112363802209,-0.013416759606500002,0.6673682575067809,-0.721650448943853
1.7462060470985388,-0.12123813012988904,-0.013424149000165234,0.6520165578663487,-0.7573543141122044
1.7431155867323798,-0.2694450649960629,-0.013449419401218594,0.6367393974916822,-0.7933222213392188
1.7400173678537993,-0.4141466438489303,-0.013491614325568798,0.621535201228919,-0.8294621223529991
1.7369076103914947,-0.5553594777751485,-0.013549754911861235,0.606402485086017,-0.8656812004308636
1.7337827618303034,-0.6930998471773009,-0.013622841272410022,0.5913398575413684,-0.9018856090568519
1.7306395019305423,-0.8273837232556147,-0.013709853508123206,0.5763460214005022,-0.9379801991870403
1.7274747472530247,-0.9582267899852042,-0.013809752383332896,0.5614197762481147,-0.973868233319958
1.7242856555689126,-1.08564446673212,-0.01392147965242598,0.546560021551155,-1.0094510844079678
1.7210696302359116,-1.209651931665519,-0.014043958025842983,0.5317657604783886,-1.0446279174631743
1.7178243246257343,-1.3302641461395268,-0.014176090758307289,0.5170361045129854,-1.0792953515065826
1.7145476466922749,-1.4474958802374758,-0.014316760836990676,0.5023702789474652,-1.1133470992803722
1.7112377637757334,-1.5613617396934174,-0.01446482974163072,0.48776762936506207,-1.1466735818890181
1.7078931077450819,-1.6718761944316824,-0.014619135742296915,0.47322762922855593,-1.1791615152549344
1.7045123805899713,-1.7790536089954472,-0.014778491693447391,0.45874988871722105,-1.2106934649685663
1.7010945605835994,-1.8829082751700739,-0.014941682275003693,0.44433416497516537,-1.2411473657831162
1.6976389091504145,-1.9834544471476647,-0.015107460622254217,0.42998037396041533,-1.2703960016543485
1.6941449785870795,-2.0807063796262355,-0.015274544276311605,0.41568860411411823,-1.2983064418636037
1.6906126208021326,-2.1746783692912786,-0.015441610375399904,0.4014591321036679,-1.3247394283998266
1.687041997259629,-2.265384800190482,-0.015607289994199643,0.38729244093287357,-1.3495487094343201
1.6834335903350877,-2.352840193584804,-0.01577016152354887,0.3731892407568623,-1.3725803134315253
1.679788216318832,-2.4370592629426255,-0.0159287429656313,0.3591504927894198,-1.3936717582484115
1.676107040332793,-2.518056974839176,-0.016081482999925716,0.3451774367457735,-1.412651189556237
1.6723915934628164,-2.5958486166321535,-0.01622675065204448,0.3312716223236171,-1.4293364431791835
1.6686437924502426,-2.6704498719074508,-0.016362823370334185,0.3174349452876531,-1.4435340266443057
1.6648659623351567,-2.7418769048257587,-0.01648787328258703,0.3036696887845623,-1.4550380166122627
1.661060862500602,-2.810146454651516,-0.01659995136571692,0.2899785705698526,-1.4636288712563537
1.657231716634139,-2.8752759419065157,-0.016696969212221767,0.2763647968649045,-1.4690721605915649
1.6533822472030426,-2.9372835877558785,-0.016776678014701795,0.2628321235643163,-1.471117223982524
1.6495167151360093,-2.9961885483927873,-0.016836644307327155,0.24938492545227625,-1.4694957736970626
1.6456399655232272,-3.0520110663203113,-0.01687422189077841,0.23602827391747525,-1.4639204780726627
1.641757480296846,-3.1047726405013165,-0.01688651920818884,0.2227680233086494,-1.4540835800710392
1.637875439049159,-3.1544962173071056,-0.01687036120648039,0.20961090543732067,-1.4396556403293514
1.6340007894085251,-3.201206403956057,-0.016822244364249322,0.19656463064054414,-1.420284543622686
1.6301413287597162,-3.244929705560139,-0.016738283016697886,0.18363799200362005,-1.3955949818064246
1.6263057996264432,-3.2856947857784107,-0.01661414422915311,0.1708409664161434,-1.3651887363147415
1.6225040018303702,-3.3235327490898143,-0.016444967041047028,0.15818480150912764,-1.328646245715909
1.6187469257731983,-3.358477439354253,-0.016225259543057667,0.14568207035555183,-1.2855301818720437
1.6150469131443321,-3.3905657439166887,-0.015948763316648726,0.1333466649699451,-1.2353921028268542
1.6114178545239963,-3.419837884016907,-0.015608268164530812,0.12119368372759685,-1.1777837387617978
1.6078754385550529,-3.446337659387119,-0.015195348956716266,0.10923914557860429,-1.1122751332542364
1.6044374759810756,-3.4701125962011687,-0.014699977773520894,0.09749943541314336,-1.0384827071276512
1.6011243361923846,-3.4912139220587335,-0.014109933432488342,0.08599035465264557,-0.9561112286431728
1.5979595577425902,-3.5096962609066367,-0.013409879174418863,0.07472563532912939,-0.8650142685566123
1.5949707336685437,-3.525616912975046,-0.012579895382506822,0.06371481743962354,-0.7652769602190346
1.5921908374455844,-3.539034584072084,-0.011593115251922283,0.05296058340418225,-0.6573205427013689
1.589660265334809,-3.5500075105986255,-0.010411859624384116,0.04245616900050587,-0.542016385133965
1.5874300762410343,-3.5585911996904542,-0.008981089017134933,0.032184605711063616,-0.42077377213798783
1.5855673953880998,-3.5648366591327587,-0.007216135790991383,0.022123737265517647,-0.2955324007345625
1.5841655695676025,-3.5687914939071916,-0.00497365395246421,0.01226613033824266,-0.16856609309692955
1.5833700621294957,-3.570511567147335,-0.0019438020310726558,0.0026910282717141614,-0.04203052572774532
