x,y,v_x,v_y,omega
2.375,32.48,0.0,3.128205128205128,-4.081632653061225
2.3741356627361383,31.892454009185975,-0.009098286988018796,3.0564895119424698,-3.8286284604281122
2.371667248612112,31.31826601248576,-0.01688501958067439,2.987594663849251,-3.599011353744241
2.3678267941332543,30.75691698738914,-0.023540817038883513,2.9213424424309746,-3.3899712872996415
2.3628145796707605,30.207920287056677,-0.029219335197896556,2.857570192647595,-3.1990979314733834
2.3568038317546094,29.67081886733397,-0.034051695498427556,2.7961289623282446,-3.0243159245248656
2.349944659820369,29.14518282757956,-0.038150114335685374,2.7368819824550275,-2.863831834005034
2.34236736431448,28.63060721975647,-0.04161089098946015,2.679703363051172,-2.71609049134756
2.3341852262469858,28.12671008841687,-0.044516878142056016,2.6244769668393513,-2.57973887358076
2.3254968672045933,27.633130710649496,-0.046939532830499786,2.5710954307119454,-2.4535960951147366
2.316388252160319,27.149528010180827,-0.04894062553027595,2.5194593110635406,-2.3366283714716114
2.306934394139284,26.675579123931577,-0.05057366942799271,2.4694763336653955,-2.2279280482216786
2.2972008091707075,26.210978102658917,-0.05188511971491584,2.421060732362602,-2.126695968749275
2.2872447614018543,25.755434730032842,-0.05291538311511773,2.3741326637013414,-2.032226595951796
2.2771163313321505,25.308673446732175,-0.05369967025018476,2.3286176868320156,-1.9438954146142524
2.266859334506758,24.870432368000102,-0.05426871738552784,2.2844462998213735,-1.8611482297823794
2.2565121134255004,24.440462384647258,-0.05464939925929008,2.241553524945407,-1.7834920471073368
2.246108221669631,24.0185263387908,-0.05486525080249116,2.1998785367015388,-1.710487277759314
2.235677016163722,23.60439826671714,-0.05493691241760485,2.1593643272317102,-1.6417410560995702
2.2252441709450483,23.1978627021901,-0.054882510936854825,2.1199574046318266,-1.5769014951700904
2.2148321237065804,22.798714034324252,-0.05471798631017349,2.0816075202718616,-1.515652734999337
2.2044604646308903,22.40675591482826,-0.054457372381303,2.0442674217912433,-1.4577106631299495
2.1941462755758474,22.021800710013853,-0.05411303872441268,2.007892628886714,-1.402819206746598
2.183904426456504,21.643668993477476,-0.05369589937394034,1.9724412293909295,-1.3507471121840486
2.1737478346486476,21.27218907580639,-0.053215593340335085,1.9378736934625922,-1.3012851411114779
2.163687692383784,20.907196568049045,-0.05268064102665,1.9041527039831576,-1.254243623863693
2.15373366638477,20.548533976029148,-0.05209858001560248,1.871243001489416,-1.2094503196580204
2.143894073383112,20.196050322881298,-0.051476083159743995,1.8391112421721734,-1.1667485411459761
2.1341760346442973,19.849600797448737,-0.0508190614593604,1.8077258676442758,-1.1259955071821044
2.1245856121910527,19.509046426416106,-0.050132753837948504,1.7770569853307574,-1.0870608930753127
2.1151279290434197,19.174253768255646,-0.0494218056108226,1.7470762584635908,-1.0498255521045126
2.1058072754784627,18.845094627247846,-0.04869033717819559,1.7177568047763663,-1.0141803858798801
2.0966272030426465,18.521445786000285,-0.04794200425145077,1.689073103092726,-0.9800253443356455
2.087590607819095,18.203188755033057,-0.04718005073330242,1.6610009070886025,-0.9472685388498625
2.078699804254158,17.890209538129163,-0.04640735521340577,1.6335171655839908,-0.9158254542831177
2.0699565906778146,17.582398412263956,-0.045626471905996065,1.6065999487865867,-0.8856182476791423
2.061362307506311,17.279649721032236,-0.04483966674140771,1.5802283799683805,-0.8565751230315447
2.052917888989444,16.981861680584956,-0.0440489492256137,1.5543825721082534,-0.8286297729385488
2.044623909256149,16.6889361971721,-0.04325610059854489,1.5290435690796655,-0.8017208791800378
2.036480623317974,16.400778695464208,-0.042462698750662276,1.504193291003418,-0.7757916652902468
2.028488003608523,16.117297956893808,-0.04167014029619484,1.4798144834218554,-0.75078949509174
2.020651821941847,15.838407249672379,-0.040815982510920154,1.4558771715405365,-0.7247847967743614
2.012976780685623,15.56402282797761,-0.03997392544933418,1.4323798989307233,-0.699916025988426
2.0054605362181603,15.29406251893775,-0.03914443736606235,1.4093075646467548,-0.6761205242155275
1.9981006650843094,15.028446956287532,-0.03832789035868212,1.3866457264081715,-0.6533397421187749
1.9908946811647628,14.767099458662237,-0.037524571952336466,1.3643805643844016,-0.6315189271088653
1.9838400507694582,14.509945914547789,-0.036734695366658625,1.3424988473466257,-0.6106068378375027
1.9769342058908965,14.256914673454201,-0.035958408618200426,1.3209879010069225,-0.5905554830291792
1.9701745558258406,14.00793644291241,-0.03519580259291595,1.299835578380359,-0.571319882336527
1.963558497349848,13.7629441909244,-0.03444691820700326,1.2790302320197462,-0.5528578471469793
1.9570834236079615,13.521873053523905,-0.033711752760225616,1.2585606879854814,-0.5351297794832945
1.950746731866263,13.284660247129967,-0.032990265573441827,1.2384162214243981,-0.5180984873310319
1.9445458302526186,13.051244985398661,-0.03228238299123546,1.2185865336419637,-0.5017290148952804
1.9384781436004526,12.82156840029932,-0.03158800282103894,1.19906173056162,-0.48598848643942455
1.9325411184966304,12.595573467160971,-0.03090699827182539,1.179832302473649,-0.4708459624927167
1.9267322276232342,12.373204933452516,-0.030239221448135963,1.1608891049837553,-0.45627230733287616
1.921048973473026,12.154409251076586,-0.029584506448792548,1.1422233410786626,-0.4422400667565553
1.9154888915095605,11.939134511972025,-0.02894267211400122,1.1238265442325042,-0.42872335524579414
1.91004955283507,11.727330386833987,-0.028313524459583114,1.1056905624836901,-0.4156977517238309
1.904728566422304,11.51894806677339,-0.027696858832691042,1.087807543417335,-0.40314020316999166
1.899523580960345,11.313940207749383,-0.027092461819508667,1.0701699199932582,-0.3910289354318515
1.8944322863589498,11.112260877619434,-0.026500112932020065,1.0527703971640796,-0.3793433706343208
1.889452414951105,10.9138655056618,-0.02591958609792576,1.0356019392320701,-0.36806405064054576
1.8845817424291658,10.718710834434521,-0.025350650975117742,1.0186577578971956,-0.357172566069199
1.8798180885461016,10.52675487384382,-0.024793074109768876,1.0019313009522735,-0.34665149041747834
1.8751593176099481,10.337956857302842,-0.024246619955004114,0.9854162415843449,-0.3364843188794692
1.8706078787188973,10.152483386064912,-0.02366326310868954,0.966936087235989,-0.3697976061276237
1.8661632444087548,9.970511072887625,-0.02312236120859817,0.9485619462091445,-0.40447401306692427
1.8618174641705738,9.792020034688331,-0.022622693930149363,0.9302910874676146,-0.4404092830700705
1.8575628222124516,9.61699089718637,-0.022163010892191956,0.9121208862372351,-0.47750096590469127
1.8533918427926186,9.445404775014243,-0.021742035632365733,0.8940488208377828,-0.5156481899309793
1.8492972948350634,9.277243252395895,-0.021358469184003418,0.8760724698816812,-0.5547514368107622
1.8452721959009968,9.112488364322711,-0.021010993279855804,0.8581895098360252,-0.594712317756594
1.8413098155849286,8.951122578158309,-0.020698273205073017,0.8403977129471663,-0.6354333503354547
1.8374036784001304,8.793128775602984,-0.020418960319119724,0.8226949455299464,-0.6768177348197693
1.8335475662147704,8.638490234948105,-0.020171694263616227,0.8050791666266792,-0.7187691290482833
1.8297355202970336,8.487190613549373,-0.019955104870455962,0.7875484270441941,-0.7611914207203354
1.8259618430250573,8.339213930446004,-0.019767813781926713,0.7701008687807332,-0.8039884959986556
1.8222210993155408,8.194544549050299,-0.019608435791931125,0.7527347248582782,-0.847064003237253
1.8185081178234075,8.053167159828657,-0.01947557991473339,0.7354483195800485,-0.8903211105814269
1.8148179919639402,7.915066762890987,-0.01936785018492305,0.7182400692375228,-0.9336622561054871
1.8111460808083746,7.780228650400257,-0.019283846189451236,0.7011084832964802,-0.9769888890593487
1.8074880099040627,7.648638388707845,-0.019222163329624228,0.6840521660973294,-1.0202012006865981
1.8038396720710077,7.520281800113004,-0.01918139280779537,0.6670698191115015,-1.0631978429526159
1.8001972282279042,7.395144944136121,-0.019160121330136528,0.6501602438030589,-1.1058756333805062
1.7965571083027827,7.273214098185289,-0.019156930513247815,0.6333223451530573,-1.1481292440334765
1.7929160122860737,7.1544757374839385,-0.019170395978426274,0.6165551359137689,-1.189850872503421
1.7892709114873786,7.038916514113403,-0.019199086113102316,0.5998577416708217,-1.2309298925653736
1.7856190500615847,6.9265232350083075,-0.0192415604742006,0.5832294068038638,-1.2712524819348887
1.7819579468752589,6.817282838724118,-0.019296367802915194,0.5666695014507712,-1.310701224319293
1.7782853977906021,6.71118237077458,-0.019362043614522612,0.5501775295969923,-1.3491546826836842
1.7745994784517944,6.608208957311952,-0.01943710732029396,0.5337531384306717,-1.3864869403589668
1.7708985476674028,6.5083497768940575,-0.019520058831198575,0.5173961291261103,-1.4225671063039431
1.767181251492884,6.411592030048965,-0.0196093745847885,0.5011064692432818,-1.4572587805004988
1.7634465281292386,6.317922906309654,-0.019703502927267573,0.4848843069599833,-1.4904194751173663
1.759693613767798,6.22732954834677,-0.019800858772106484,0.4687299873861681,-1.5218999867356973
1.7559220495272245,6.139799012776567,-0.019899817444457964,0.45264407124752404,-1.5515437146074686
1.7521316896473547,6.055318227162619,-0.019998707606801856,0.4366273562677374,-1.5791859196444369
1.748322711125896,5.973873942662685,-0.020095803145394896,0.42068090162630495,-1.6046529186543794
1.7444956250085961,5.895452681695684,-0.02018931387881513,0.4048060559210692,-1.6277612083174136
1.7406512895718869,5.820040679916669,-0.0202773749286507,0.38900448912119295,-1.648316513623711
1.7367909256697551,5.747623821689885,-0.020358034567473947,0.3732782290554806,-1.6661127561150162
1.732916134554527,5.678187568140832,-0.020429240329662198,0.35762970303981284,-1.6809309384909703
1.7290289185253913,5.611716876748481,-0.020488823134924165,0.34206178530069903,-1.692537944256592
1.725131704810186,5.548196111310297,-0.02053447913039811,0.32657785089072133,-1.7006852545361542
1.7212273731471468,5.487608940979534,-0.020563748901590365,0.3111818368015111,-1.705107589598798
1.7173192876066417,5.429938226944298,-0.020573993630043867,0.29587831093781,-1.7055214909642844
1.7134113332823544,5.375165895204056,-0.0205623676782433,0.28067254948579384,-1.7016238725461597
1.709507958592991,5.32327279382422,-0.020525786946632905,0.2655706229335145,-1.6930905881395648
1.7056142240786043,5.274238533048663,-0.02046089215217783,0.25057949049340594,-1.6795750905940778
1.7017358587648637,5.228041306780614,-0.020364005887195644,0.2357071018018609,-1.6607072995045067
1.6978793254276885,5.184657694293616,-0.02023108187254347,0.2209625033244437,-1.6360928554445753
1.6940518964581157,5.14406244174365,-0.020057644122960242,0.20635594456994316,-1.6053130287108492
1.6902617425664863,5.106228224331549,-0.019838712631032658,0.19189897555743313,-1.567925682214344
1.6865180373808253,5.071125392127062,-0.019568710375925783,0.177604521331903,-1.5234678797800822
1.6828310822612587,5.038721706076533,-0.019241343514249092,0.16348691077892497,-1.4714610073427863
1.6792124576616538,5.008982076235821,-0.0188494417447492,0.14956182438646773,-1.4114196663960377
1.6756752106068677,4.981868322688822,-0.018384737779314753,0.13584610768720481,-1.3428661398759651
1.672234093124837,4.957338992010456,-0.017837551505220456,0.1223573731377145,-1.265352941061818
1.6689058751024248,4.935349279528435,-0.017196322414908566,0.10911328456777188,-1.1784968030699208
1.6657097691714622,4.915851130194163,-0.016446897911012576,0.09613039263506919,-1.082028266075539
1.6626680283060515,4.898793615914048,-0.015571426988046871,0.08342238926089321,-0.9758612295990903
1.6598068142748361,4.884123704862947,-0.014546615445798026,0.07099772706649993,-0.8601851814753163
1.65715749608571,4.871787523334337,-0.013340944439742073,0.058856815339918114,-0.7355767817462187
1.654758640738419,4.861732109573563,-0.011910164479109451,0.046989645299805066,-0.6031132471981906
1.65265915703492,4.853907374608255,-0.010189663978775512,0.03537598591394016,-0.46444458701206826
1.6509235479604127,4.84826734814807,-0.00807990522656278,0.023992713666959587,-0.3217502298676821
1.6496419629169283,4.844768321312969,-0.005410463652221034,0.012839147755170977,-0.1774899972617674
1.6489572389598297,4.843355687357146,-0.0017971569488186498,0.0020306833587616507,-0.03390663348190748
