x,y,v_x,v_y,omega
2.375,32.48,0.0,2.051282051282051,-5.918367346938775
2.3741752624753136,32.073556168636046,-0.008247375246862195,2.0131562623574397,-5.649290268880776
2.3717914534762863,31.674627840999772,-0.015590714743411976,1.9761270140053158,-5.397686287891692
2.368020197390203,31.28300144639055,-0.02212184611742085,1.9401369320869084,-5.162023399568757
2.363015782226397,30.898474443241437,-0.027922305520639238,1.9051330994042257,-4.9409335547598126
2.3569170865643603,30.52085447620623,-0.03306465109973017,1.8710665709478358,-4.733192088531962
2.349849263040653,30.1499586234346,-0.03761358413734167,1.8378919567684777,-4.537700124273392
2.3419252136093283,29.785612721633637,-0.041626910175904704,1.8055670612411436,-4.353469462448138
2.3332468859662225,29.42765075854921,-0.04515636625515251,1.7740525696031397,-4.179609554729507
2.3239064157866647,29.075914324156592,-0.04824833554042591,1.7433117743230104,-4.015316236537777
2.313987135554834,28.73025211320497,-0.05094446677787902,1.7133103351932273,-3.8598619487154573
2.3035644675819444,28.390519472874576,-0.053282212951020584,1.6840160681107075,-3.7125872254322942
2.292706716181286,28.056577990226256,-0.05529530105556132,1.6553987583724923,-3.5728932628815366
2.281475771783321,27.7282951148877,-0.05701414292409022,1.62742999501308,-3.44023541378729
2.269927737949106,27.405543813058504,-0.058466195418058725,1.6000830232788676,-3.3141174776361715
2.258113490708825,27.08820224945059,-0.05967627698475375,1.5733326128002922,-3.194086676995499
2.24607917836117,26.77615349423014,-0.060666846491791195,1.5471549394042061,-3.079729227159434
2.233866668776511,26.469285252407317,-0.06145824935480399,1.5215274788240056,-2.970666420360344
2.221513950318117,26.16748961344233,-0.06206893522913324,1.4964289108258755,-2.8665511574376836
2.2090692724953396,25.870670507505736,-0.06237784299864151,1.4717621485400656,-2.7628426863690976
2.196575043979069,25.578735500066642,-0.06256444216406352,1.447587925850899,-2.663931146374633
2.184054541719261,25.291587909033893,-0.06264058043401775,1.423887984476585,-2.5695367423300004
2.171528781185687,25.009134614719326,-0.062617024901719,1.4006449586690806,-2.4793991513552243
2.159016722183041,24.731285887012692,-0.06250356512474246,1.37784231839724,-2.393275944605137
2.1465354551103886,24.457955223470897,-0.06230910560178548,1.3554643170207155,-2.3109411551356134
2.1341003696666796,24.189059197466342,-0.06204174883529993,1.3334959430248268,-2.2321839766030456
2.1217253077808773,23.924517315620356,-0.06170887002272665,1.3119228754350312,-2.1568075793306183
2.109422702349336,23.664251883819674,-0.06131718429268389,1.2907314425717995,-2.0846280318216386
2.0972037031907775,23.408187881178144,-0.06087280729290222,1.2699085838435118,-2.0154733171500805
2.0850782914773376,23.15625284136307,-0.06038130984149689,1.2494418143072186,-1.9491824348392215
2.073055383766162,22.908376740756808,-0.05984776727025838,1.2293191917553965,-1.8856045798740582
2.061142926637508,22.664491892970098,-0.05927680401628435,1.2095292861117013,-1.8245983914019477
2.0493479828403793,22.424532849264864,-0.058672633954999914,1.190061150940655,-1.7660312644754672
2.0376768097536617,22.188436304481236,-0.058039096912173696,1.1709042968955874,-1.709778718896246
2.026134930888057,21.95614100809705,-0.05737969174387441,1.1520486669463152,-1.6557238198408215
2.014727201080617,21.727587680078088,-0.05669760633052466,1.133484613243272,-1.6037566454999919
2.0034578659682123,21.502718931204925,-0.05599574479352366,1.1152028754883536,-1.553773797450773
1.9923306162678933,21.28147918758661,-0.055276752209667136,1.097194560694809,-1.505677949912773
1.9813486373400042,21.0638146190942,-0.05454303706922335,1.0794511242292868,-1.4593774344253347
1.970514654463328,20.849673071467393,-0.053796791697539086,1.0619643520387847,-1.4147858568240474
1.9598309742098712,20.639004001866123,-0.05304001083702743,1.0447263439738885,-1.371821743700271
1.9492995222695721,20.431758417655992,-0.05227450856596453,1.0277294981274394,-1.3304082157995678
1.9389218780417377,20.227888818231772,-0.05150193371237887,1.0109664961147427,-1.2904726860582667
1.9286993062799818,20.027349139697527,-0.050723783905179995,0.9944302892277095,-1.2519465801951286
1.9186388810760708,19.830291906692914,-0.04988046813392999,0.9761420408184158,-1.2533234101087556
1.9087445911642387,19.63687977086066,-0.049062430984391926,0.9579793175041208,-1.2569729739258815
1.8990113648707458,19.447087982940275,-0.048269831950537474,0.9399385616997571,-1.2627599863725434
1.8894341111483848,19.26089248999106,-0.04750270527307397,0.922016367792368,-1.2705527306122282
1.8800077436143392,19.078269905602177,-0.04676097006737994,0.9042094760964823,-1.2802227594603746
1.8707272026410058,18.899197481258888,-0.04604443966595436,0.8865147673364064,-1.29164460578789
1.8615874756514381,18.723653078761664,-0.045352830229722495,0.8689292576358402,-1.3046955009157584
1.8525836157606652,18.551615143598227,-0.04468576867800807,0.8514500939985199,-1.3192550998359
1.84371075889459,18.38306267917169,-0.04404279998274337,0.8340745502668394,-1.3352052121184768
1.8349641395094645,18.21797522179014,-0.043423393868510754,0.8168000235486357,-1.352429537382932
1.8263391050269875,18.05633281632472,-0.04282695095625884,0.7996240311055891,-1.3708134042193487
1.817831129092863,17.89811599244416,-0.04225280838498456,0.782544207700009,-1.390243511448172
1.8094358237601358,17.74330574133414,-0.0417002449422885,0.7655583034001985,-1.4106076705999635
1.80114895069276,17.591883492809302,-0.04116848573146914,0.7486641818481606,-1.431794548482507
1.7929664314796439,17.44383109272477,-0.04065670639969378,0.7318598189971606,-1.4536934086801236
1.7848843571447999,17.29913078059199,-0.04016403694874451,0.7151433023306518,-1.4761938507992838
1.7768989969352396,17.15776516730109,-0.03968956514685942,0.6985128305783583,-1.4991855462352726
1.769006806464829,17.01971721284826,-0.039232339557246455,0.6819667139499389,-1.5225579691865494
1.761204435289513,16.884970203962094,-0.038791372195912215,0.6655033749117131,-1.546200121586269
1.7534887339870726,16.753507731517175,-0.03836564082849251,0.6491213495374714,-1.570000250554003
1.7458567608129467,16.62531366761638,-0.03795409091276644,0.6328192894705047,-1.5938455568948644
1.7383057880026251,16.50037214221525,-0.03755563719044918,0.6165959645407649,-1.6176218930879895
1.7308333077907143,16.378667519152316,-0.03716916492865749,0.6004502660886002,-1.6412134491118586
1.7234370382170399,16.260184371437965,-0.03679353080808962,0.5843812110549109,-1.6645024243507607
1.716114928791089,16.14490745564178,-0.03642756345141693,0.5683879469069564,-1.6873686837158128
1.708865166087787,16.03282168520313,-0.03607006358160441,0.5524697574795295,-1.7096893959969768
1.7016861793500455,15.92391210247288,-0.03571980379581009,0.5366260698229455,-1.731338652342107
1.6945766461768543,15.818163849274349,-0.035375527936101325,0.5208564621623708,-1.7521870626391702
1.687535498379904,15.715562135749352,-0.03503595003340196,0.5051606730875888,-1.772101327464263
1.680561928096987,15.616092207229748,-0.03469975279576828,0.4895386121084346,-1.7909437831594164
1.6736553942567916,15.519739308846013,-0.034365585606186244,0.4739903717289053,-1.8085719175325414
1.666815629497326,15.426488647551889,-0.034032061988468455,0.45851624121233703,-1.824837853644472
1.6600426476492438,15.336325351207563,-0.03369775649235411,0.44311672223090115,-1.8395877991891063
1.6533367519059703,15.249234424323003,-0.03336120094038142,0.42779254661469773,-1.8526614591160746
1.6466985438150075,15.165200700017703,-0.03302087996924669,0.41254469643830755,-1.863891409438581
1.6401289332393998,15.084208787703393,-0.032675225786829035,0.3973744267047804,-1.8731024306781052
1.6336291494554824,15.00624301594221,-0.032322612052345726,0.3822832909070237,-1.8801108002145146
1.6272007535731976,14.931287369875328,-0.031961346770502275,0.36727316976180174,-1.884723544062809
1.6208456524891484,14.85932542255734,-0.03158966406999064,0.3523463034180719,-1.8867376504643985
1.6145661146110721,14.79034025947222,-0.031205714710770906,0.33750532743313455,-1.8859392504096466
1.608364787626893,14.724314395451099,-0.03080755513102345,0.32275331277807356,-1.8821027741452134
1.6022447186337754,14.661229683166802,-0.030393134800149754,0.30809381006490233,-1.8749900983466896
1.5962093769953913,14.601067212354092,-0.029960281583692832,0.2935308980621854,-1.8643497066266899
1.590262680362835,14.543807198912358,-0.02950668474186923,0.2790692363551635,-1.8499158973387677
1.584409024382269,14.489428863109918,-0.02902987506378939,0.2647141216692472,-1.8314080885342883
1.5786533167292638,14.437910296257726,-0.028527201466263818,0.250471546852659,-1.8085302922464948
1.5730010162695074,14.38922831550045,-0.027995803131299624,0.23634826072011086,-1.7809708615191528
1.5674581783687325,14.34335830685093,-0.02743257587645111,0.22235182577508908,-1.748402657197437
1.562031507693146,14.300274057364618,-0.02683413087941302,0.20849066908803465,-1.710483842085484
1.556728420304467,14.25994757854696,-0.02619674300737616,0.19477411908853096,-1.66685959374371
1.551557117536798,14.222348924893655,-0.02551628466931384,0.18121241744452235,-1.6171651416470312
1.54652667516356,14.187446014128248,-0.02478813906306635,0.16781669020956336,-1.5610306886518543
1.5416471529030635,14.155204459539373,-0.0240070835418984,0.1545988556791774,-1.4980889796181458
1.5369297316497068,14.125587430199086,-0.023167128991670317,0.14157143772368136,-1.427986536475982
1.5323868893784915,14.098555562117213,-0.022261293720480985,0.1287472430950688,-1.3503998806992947
1.5280326320906785,14.074066952708524,-0.021281279157648623,0.11613885099182711,-1.2650583700994011
1.5238828043891877,14.052077281855833,-0.020216997857259434,0.10375785753509158,-1.171775475556332
1.5199555166642553,14.032540113404757,-0.01905587939206639,0.09161382697568696,-1.0704901659108592
1.5162717444410339,14.015407436131909,-0.01778184284014857,0.07971294575278669,-0.9613190704588874
1.5128561833620675,14.000630492462037,-0.016373767949514294,0.06805649094594016,-0.8446174305663666
1.5097384866805312,13.988160896720569,-0.014803198865848433,0.05663946646873863,-0.7210414443493002
1.5069550867780852,13.977951929994347,-0.013030800158613381,0.04545020079346129,-0.5915956824765461
1.504551958228765,13.969959665770283,-0.01100048533458838,0.034472441447174124,-0.45763799482637485
1.5025890990125166,13.964143132555503,-0.008628106827894994,0.023692890700639888,-0.32080613491028453
1.5011489691376774,13.960461676880737,-0.0057731919204981556,0.01312166604702506,-0.1828344233381867
1.5003585813501505,13.95886325209801,-0.002130685954770225,0.002862581780246695,-0.04526609871815512
