x,y,v_x,v_y,omega
2.375,32.48,0.0,3.8974358974358974,-3.836734693877551
2.374069257078632,31.787533023612667,-0.010341588015200834,3.7966416179788602,-3.5605418421842296
2.3714313749357308,31.11279148318571,-0.018968213572588308,3.7004866089873456,-3.314370044181311
2.367370397371345,30.45497029516683,-0.026153759365034897,3.6086377023335356,-3.094026434441759
2.362125323325035,29.813321438701678,-0.03212484114951727,3.520794036168169,-2.896006214166803
2.355897811784868,29.18714850447646,-0.037069731519007644,3.436683010778663,-2.717364922907334
2.3488584458166115,28.575801914203875,-0.041145445906062526,3.3560568811389615,-2.5556169911526085
2.341151849535649,27.978674707215344,-0.04448340166018871,3.2786898631780668,-2.4086546558757607
2.332900886828055,27.395198810217675,-0.04719396175752097,3.2043756590182455,-2.2746827669972984
2.3242101211553297,26.824841721455456,-0.049370101272762756,3.132925327228626,-2.1521660776864904
2.3151686778470024,26.267103552433895,-0.051090379930872,3.0641654396776112,-2.0397864031570316
2.3058526210016503,25.721514379813023,-0.05242136279525982,2.9979364783320914,-1.9364076262767258
2.296326934363459,25.187631867669772,-0.05341959985131392,2.934091434370718,-1.8410469769795166
2.2866471777566093,24.665039126468734,-0.05413325133590595,2.8724945789741483,-1.7528513540463657
2.2768608766810536,24.153342780103415,-0.05460342728137643,2.813020380640507,-1.6710777196511928
2.2670086916286207,23.652171216506055,-0.054865295523433125,2.7555525482190437,-1.5950767990556247
2.257125404908995,23.16117300075676,-0.054949001361298724,2.6999831823286238,-1.524279474598582
2.2472407557797447,22.68001543249057,-0.054880433408147064,2.64621202062905,-1.4581853854822404
2.237380149069625,22.20838323181181,-0.05468186337096468,2.59414576469052,-1.3963533408709792
2.227565257974555,21.745977339963225,-0.05437248212981348,2.543697478071511,-1.3383932295506347
2.21781453806242,21.292513822729013,-0.05396885022724018,2.49478604675311,-1.283959169418026
2.208143666568292,20.8477228660294,-0.05348527748529422,2.447335694353696,-1.2327436878645868
2.198565918656835,20.411347854432428,-0.052934143753115455,2.401275545612648,-1.1844727623436646
2.189092490364333,19.983144524400032,-0.05232617060801651,2.356539232525099,-1.1389015811142968
2.179732776322809,19.5628801850291,-0.05167065207558118,2.313064538263018,-1.095810908916196
2.170494609044885,19.150332999866393,-0.05097565101246777,2.27079307465595,-1.0550039623793708
2.161384465456049,18.74529132408808,-0.05024816664126425,2.2296699895475247,-1.0163037162657789
2.152407645457557,18.347553091956136,-0.04949427778642637,2.1896437008074208,-0.9795505749310348
2.143568426553509,17.95692525000764,-0.04871926559188305,2.1506656541758793,-0.9446003542731749
2.1348701979518547,17.573223231910436,-0.04792771887094369,2.1126901024597085,-0.9113225283706087
2.126315577028564,17.19627047133862,-0.04712362472117407,2.075673903893767,-0.8795987023740711
2.1179065106087784,16.825897949591827,-0.04631044660977462,2.0395763377373326,-0.8493212793035906
2.1096443631535386,16.46194377500978,-0.04549119178177765,2.004358935396503,-0.8203922934479748
2.1015299936336347,16.104252791523976,-0.0446684695504902,1.9699853255568425,-0.7927223872611602
2.0935638226133415,15.752676213945751,-0.04384454178610367,1.9364210919789868,-0.7662299121500901
2.085745890848204,15.40707128781948,-0.043021366715425516,1.90363364275735,-0.7408401364763592
2.0780759105159667,15.067300971873891,-0.042200636976093504,1.8715920899714014,-0.7164845465490632
2.070553310042726,14.73323364128693,-0.04138381272658284,1.8402671387726321,-0.6931002284507757
2.0631772733528684,14.404742810142853,-0.04057215049405888,1.8096309850504548,-0.6706293202789845
2.055946774257643,14.081706871606535,-0.039766728341780286,1.7796572209086525,-0.6490185258561841
2.0488606066001003,13.764008854471161,-0.038968467853134854,1.750320747262155,-0.6282186822079107
2.0419174106911093,13.451536194853581,-0.03817815335787663,1.7215976929331638,-0.6081843741661672
2.035115696499999,13.144180521917754,-0.03739644876557227,1.6934653396871244,-0.5888735903563365
2.0284538640023086,12.84183745660258,-0.03662391231987591,1.6659020527037007,-0.5702474155939743
2.0219302210345993,12.544406422416852,-0.03586100954356072,1.6388872160265902,-0.5522697553747151
2.015542998961047,12.251790467442309,-0.035108124607017836,1.6124011725794551,-0.5349070887032596
2.00929036641751,11.963896096756493,-0.03436557032117197,1.5864251683740462,-0.5181282459905461
2.0031704413650298,11.680633114551409,-0.03363359692860868,1.5609413005713277,-0.501904209163827
1.9971813016555444,11.401914475282112,-0.032912399843451984,1.535932469087534,-0.4862079314926385
1.9913209942872816,11.127656143232382,-0.03220212647057987,1.5113823314650159,-0.4710141749430515
1.9855875435053436,10.857776959932774,-0.03150288221762016,1.487275260752838,-0.4562993631403338
1.9799826205041429,10.592199065887897,-0.030774040017944936,1.4635902286346771,-0.4410099667159551
1.97450736453543,10.330847203458813,-0.03006213741219676,1.4403193539107184,-0.4263614218456391
1.9691587538231765,10.073648059936748,-0.029366870501730348,1.4174489074455734,-0.4123197223010121
1.9639338225983023,9.820530742142996,-0.028687920885761366,1.3949657347072326,-0.3988530067417627
1.9588296634194162,9.571426675731246,-0.028024958879639534,1.372857225423333,-0.38593140176974955
1.9538434289526152,9.326269509780815,-0.027377646307037616,1.3511112851370197,-0.3735268780052808
1.948972333282309,9.08499502635128,-0.026745638918587625,1.3297163085244665,-0.36161311797983076
1.9442136528161706,8.847541054692805,-0.026128588482948953,1.3086611543474822,-0.3501653947624566
1.939564726839552,8.613847389828287,-0.025526144590592305,1.2879351219249389,-0.33916046034649616
1.9350229577678935,8.383855715243591,-0.02493795620561405,1.2675279290161399,-0.3285764429204074
1.9305858111396978,8.157509529440539,-0.024363672996559855,1.2474296910177674,-0.3183927522332861
1.926250815387397,7.9347540761243955,-0.023802946473449778,1.2276309013838251,-0.3085899923429232
1.9220155614188466,7.715536277813197,-0.023255430954886906,1.2081224131850705,-0.29914988110332336
1.9178777020381457,7.499804672670759,-0.022720784386235492,1.188895421730898,-0.29005517581036355
1.9138349512309256,7.28750935437855,-0.022198669027318554,1.1699414481825372,-0.2812896044795554
1.9098850833361394,7.0786019148738575,-0.021688752025862484,1.1512523240918315,-0.27283780227942156
1.9060259321236248,6.873035389793159,-0.021190705890966857,1.1328201768048016,-0.2646852526884537
1.9022553897943129,6.670764206470093,-0.020704208879166842,1.1146374156737244,-0.25681823298355033
1.898571405917814,6.471744134347151,-0.020228945304152833,1.0966967190256078,-0.2492237637037312
1.89497198632025,6.275932237669359,-0.01976460577989109,1.078991021838749,-0.24188956176524318
1.8914551919335445,6.083286830336441,-0.019310887405727513,1.061513504082559,-0.2348039969332853
1.8880191376159359,5.8937674327978975,-0.018867493901034354,1.044257579679049,-0.22795605138183933
1.8846619909521976,5.707334730882522,-0.018434135696059395,1.0272168860473332,-0.22133528209679737
1.881381971040916,5.523950536460692,-0.018010529984844013,1.0103852741952173,-0.21493178589899933
1.8781773472751961,5.34357774984392,-0.017596400745377397,0.9937567993244554,-0.20873616688316732
1.8750499971497647,5.166397982040845,-0.017151933981638823,0.9749072873763877,-0.25068250221574717
1.8719987515676164,4.9926020592135,-0.016750794708897895,0.9561585218163243,-0.29372013386673435
1.8690159412738026,4.822172070519375,-0.016391541889033166,0.9375080192294971,-0.33775160110869956
1.8660941574020327,4.655090543596085,-0.016072723352856873,0.9189533910292897,-0.38268067435663033
1.8632262532515358,4.491340427695377,-0.015792878319328536,0.9004923412008026,-0.42841214289329593
1.860405345637707,4.330905077193311,-0.015550539612105148,0.882122664377717,-0.4748516028082034
1.8576248158695252,4.173768235416389,-0.015344235589913746,0.8638422442547404,-0.521905244202863
1.854878310404001,4.019914018722805,-0.015172491804798405,0.8456490523406583,-0.56947963668382
1.8521597412255795,3.8693269007767483,-0.015033832399887667,0.8275411470599695,-0.6174815121252403
1.8494632859965563,3.7219916969520668,-0.014926781255925642,0.8095166732142615,-0.6658175436341248
1.8467833880231184,3.5778935487991674,-0.014849862893385026,0.7915738618179655,-0.7143941195927186
1.8441147560806082,3.4370179085061245,-0.014801603134505945,0.7737110303269601,-0.7631171115835235
1.8414523641410678,3.2993505232812517,-0.01478052952705183,0.7559265832827405,-0.8118916349215246
1.8387914510460313,3.164877419579838,-0.01478517152891099,0.7382190133996204,-0.8606218004246835
1.8361275201679412,3.033584887092374,-0.014814060449865845,0.7205869031277611,-0.9092104559461729
1.8334563391045056,2.905459462405098,-0.01486572914386323,0.7030289267308522,-0.9575589160688369
1.8307739394517863,2.780487912236154,-0.0149387114419068,0.6855438529240967,-1.0055666782224026
1.8280766167039157,2.658657216141652,-0.015031541312209969,0.6681305481259424,-1.053131123325382
1.825360930330077,2.5399545485755866,-0.015142751730442617,0.6507879803858979,-1.1001471988745934
1.8226237040828526,2.4243672601753694,-0.015270873238718605,0.6335152240609749,-1.1465070822039511
1.8198620265963075,2.3118828581306303,-0.015414432167337557,0.6163114653250179,-1.192099821408729
1.8170732523373148,2.2024889854765988,-0.01557194848813874,0.599176008608681,-1.236810951180161
1.8142550029797517,2.096173399134315,-0.015741933262561812,0.5821082840833742,-1.2805220805164252
1.8114051692784272,1.9929239464979709,-0.01592288564104227,0.5651078563204653,-1.3231104489687713
1.8085219135280557,1.8927285403441303,-0.01611328936308733,0.5481744342777704,-1.364448447745556
1.8056036727024538,1.7955751318080928,-0.01631160869915422,0.5313078827893227,-1.4044031016334386
1.8026491623805772,1.7014516811384688,-0.0165162837661403,0.5145082357620556,-1.4428355073072157
1.7996573815792294,1.6103461259015432,-0.01672572513772357,0.4977757113148761,-1.479600223194269
1.7966276186275456,1.522246346261305,-0.0169383076587631,0.481110729132199,-1.5145446056477037
1.7935594582359249,1.4371401269082789,-0.01715236335924622,0.4645139303458669,-1.547508085782513
1.7904527899323117,1.35501511514952,-0.01736617334756805,0.44798620030699376,-1.57832138097063
1.7873078180619895,1.2758587746022236,-0.017577958544900282,0.4315286946629474,-1.60680563471812
1.7841250735738035,1.1996583338532574,-0.01778586910160964,0.4151428692144631,-1.6327714785283602
1.780905427846529,1.126400729355563,-0.0179879723125504,0.39883051409323567,-1.6560180094892591
1.7776501088446164,1.0560725417288843,-0.018182238819812527,0.38259379286985595,-1.6763316778592752
1.7743607199336053,0.9886599245160532,-0.018366526858089396,0.3664352872726992,-1.693485080085904
1.7710392617331845,0.9241485243176619,-0.018538564257699,0.3503580482649847,-1.707235654794924
1.7676881574415868,0.862523391088569,-0.018695927871162945,0.33436565428047493,-1.717324282814873
1.7643102821306966,0.8037688772334697,-0.018836020027617834,0.3184622774428488,-1.723473797949048
1.7609089965896363,0.747868523992782,-0.01895604153971923,0.30265275856480756,-1.725387424007401
1.7574881863897414,0.6948049334778794,-0.01905296068133348,0.28694269160076136,-1.7227471670820582
1.7540523069617944,0.6445596246184166,-0.019123477406968695,0.27133851794884256,-1.715212212433978
1.7506064356266706,0.5971128712610785,-0.019163981872182462,0.25584763046601094,-1.7024174059632144
1.7471563317182395,0.5524435207681435,-0.019170505999276367,0.24047848612215228,-1.683971945944122
1.7437085062068576,0.5105287917994019,-0.01913866634941131,0.22524072464163397,-1.6594584787087667
1.7402703026132977,0.4713440506698916,-0.01906359580125388,0.21014528790844275,-1.6284328927844873
1.736849991563124,0.43486256698505343,-0.018939860311786554,0.1952045308119587,-1.5904252548881959
1.7334568821822134,0.4010552515092769,-0.018761355031665945,0.18043230780780575,-1.544942549822512
1.7301014548637248,0.3698903829360418,-0.018521170729315955,0.16584400967262067,-1.4914742044179516
1.7267955220639455,0.34133333613628736,-0.01821141593490116,0.1514565103246895,-1.4295018312523773
1.723552427247661,0.31534633357375697,-0.01782297091270265,0.1372879625922829,-1.3585152627969597
1.7203872978100883,0.291888255132001,-0.017345133949217828,0.12335735342725848,-1.2780377887461323
1.7173173772663648,0.2709145607841279,-0.016765094314374472,0.10968369488242571,-1.1876645220545157
1.7143624777159883,0.2523774055639052,-0.016067122912031592,0.09628469645341825,-1.0871187786524363
1.7115456196060528,0.2362260540227723,-0.015231300531694648,0.08317476511474123,-0.9763315841856207
1.7088939686902647,0.2224077200092509,-0.014231487421506452,0.07036227947995716,-0.855547295486929
1.7064402510951615,0.21086893666196715,-0.013032041412973894,0.057846424378712,-0.7254506282431968
1.7042249505066296,0.20155743590706976,-0.011582409570713699,0.045614695120111015,-0.5872922840958938
1.7022998382047465,0.1944241675908387,-0.00980772711687679,0.033643841726926804,-0.4429585836093635
1.7007340422007124,0.18942429911962222,-0.007590006261279951,0.021910252397666335,-0.29489311804678286
1.6996263725533012,0.18651408457475327,-0.004717434265510587,0.010425464767574876,-0.14576548236562528
1.6991439943842002,0.18563069509735186,-0.0006423231689459286,-0.0006100261297720243,0.002108733221231396
