x,y,v_x,v_y,omega
2.375,32.48,0.0,2.5128205128205128,-7.020408163265306
2.3740002848411623,32.03208501711519,-0.011107946209308255,2.4640126303440066,-6.676046350147393
2.371117296454554,31.592816459261538,-0.02092525808633803,2.416749123585468,-6.356243800239999
2.3665706396186406,31.16192416667759,-0.029593151201588556,2.370943016236158,-6.0586588413243
2.360556036070047,30.739152978651717,-0.03723577711612245,2.3265146284957714,-5.7812207332245285
2.3532481851603952,30.32426149721362,-0.04396256632444718,2.2833907208164437,-5.522093027518266
2.3448032359254154,29.91702099336107,-0.049870202953109524,2.241503766434084,-5.279642625051917
2.3353609308858236,29.51721443471244,-0.05504429748680042,2.2007913296618185,-5.052413523346809
2.3250464711909276,29.124635617201186,-0.05956081023426451,2.1611955315743203,-4.839104446730564
2.3139721441680337,28.73908838640958,-0.063487267797891,2.122662588332404,-4.638549708275195
2.3022387474644326,28.360385936538734,-0.06688380668656545,2.0851424102325615,-4.449702775211314
2.289936838397031,27.988350176955766,-0.06980407184011729,2.0485882518004357,-4.271622106391848
2.277147832579694,27.622811157842065,-0.07229599279696204,2.0129564050184796,-4.103458907519904
2.2639449721677516,27.263606547763274,-0.07440245622462123,1.9782059291902676,-3.9444465116701273
2.250394180979234,26.910581157049304,-0.076161890314463,1.9442984120760827,-3.7938911424728796
2.2365548211960573,26.56358650175624,-0.07760877394305557,1.9111977578468466,-3.651163857749118
2.2224803642160236,26.222480403717192,-0.07877408139065252,1.8788699981425836,-3.5156935043406783
2.208218986439555,25.88712662280326,-0.07968567168121939,1.8472831231233013,-3.3869605418910496
2.1938140992711554,25.557394518031856,-0.08036863018988931,1.8164069298923395,-3.264491615575208
2.1793048213447825,25.233158734594646,-0.08084556899203113,1.7862128860766728,-3.1478547761780624
2.1647263999044903,24.914298914246316,-0.0811368914556567,1.7566740066825255,-3.0366552612083373
2.1501105873543436,24.60069942680896,-0.08126102576819627,1.7277647426214637,-2.930531763486427
2.1354859782083064,24.29224912081509,-0.08123463140999856,1.6994608795326305,-2.8291531243218526
2.1208783109999176,23.988841091542398,-0.08107278201653927,1.6717394457195198,-2.7322153973682473
2.1063107391353104,23.690372464891304,-0.080789127590209,1.644578628181497,-2.639439236809132
2.091804074176812,23.39674419572787,-0.0803960386153308,1.6179576958566624,-2.5505675699273853
2.077377004615848,23.107860879463043,-0.07990473428426675,1.5918569293080662,-2.4653635195415204
2.0630462928229485,22.82363057576882,-0.07932539674795032,1.5662575561833,-2.3836085464129306
2.0488269525408986,22.54396464344483,-0.07866727305260739,1.5411416918610585,-2.305100785671671
2.0347324090073577,22.268777585548058,-0.07793876620895716,1.5164922847697497,-2.229653554682427
2.020774643549587,21.997986903985563,-0.07714751665516348,1.49229306592461,-2.157094012666543
2.006968807121281,21.731519259849843,-0.07625066588156963,1.4684585355834079,-2.0844604527294575
1.9933273039269654,21.469303740332577,-0.07532159183304518,1.4450472368306408,-2.0149056858412178
1.9798555171795766,21.21126545623573,-0.07436492758238585,1.4220448086898936,-1.9482644101917062
1.9665580365567017,20.957332047007476,-0.07338485711622499,1.3994375160685135,-1.8843818844718019
1.9534387352313318,20.70743357124053,-0.07238515761010728,1.3772122146753034,-1.8231131438900587
1.9405008396670949,20.461502403269975,-0.07136923754808068,1.3553563183308697,-1.7643222823552343
1.9277469928867998,20.219473135457385,-0.07034017112186425,1.3338577684756936,-1.7078817945680684
1.9151793118492109,19.981282485781612,-0.06930072929578983,1.3127050056995802,-1.6536719724212317
1.9027994395033214,19.746869210386706,-0.06825340788076058,1.2918869431326863,-1.6015803506864195
1.8906085920310147,19.516174020764986,-0.06720045292264784,1.2713929415530887,-1.5515011974816468
1.8786076017370283,19.289139505278094,-0.06614388367720099,1.2512127860790494,-1.503335045468076
1.866796955998811,19.065710054741643,-0.06508551341410264,1.2313366643259467,-1.456988260131295
1.855176832647532,18.84583179181965,-0.06402696826677301,1.2117551459184395,-1.4123726418629747
1.8437471321145886,18.629452503993775,-0.06296970432148762,1.192459163257952,-1.3694050588806375
1.8325075066449488,18.416521579889686,-0.06191502311895389,1.1734399934541417,-1.3280071083104683
1.8214573868491393,18.206989948758505,-0.06086408572337552,1.1546892413367345,-1.2881048030147986
1.810596005839221,18.0008100229258,-0.059817925497940516,1.136198823471093,-1.249628281975558
1.799922421170384,17.797935643033753,-0.05877745971135845,1.117960953107191,-1.2125115422507795
1.7894355347885016,17.598322025914342,-0.0577435000873333,1.099968125997384,-1.1766921907058128
1.7791341111648662,17.40192571494246,-0.05671676239750659,1.0822131070235406,-1.1421112138866585
1.7690167937821453,17.208704532728248,-0.055697875188279775,1.0646889175788192,-1.10871276455186
1.7590821201201405,17.018617536017327,-0.05468738772288405,1.0473888236536393,-1.0764439635135092
1.7493285352760022,16.831624972676362,-0.05368577721198609,1.0303063245793054,-1.0452547155587777
1.7397544043410234,16.647688240649458,-0.05269345539889121,1.0134351423862888,-1.0150975383323746
1.7303580236448188,16.466769848778323,-0.05171077455893449,0.9967692117374162,-0.9859274031587575
1.7211452732700296,16.28906585289985,-0.050653118494280794,0.9777196313567275,-1.008656199930417
1.712118768091274,16.11478076642247,-0.04964138349189069,0.9587813295030265,-1.032926796654812
1.7032703630864012,15.943894814502425,-0.04867422767336112,0.9399514696086056,-1.0586209956419321
1.6945921578647325,15.776388722062219,-0.04775027478962518,0.921227335282565,-1.085622630286868
1.6860765024771571,15.61224369245766,-0.04686811840565866,0.9026063269902976,-1.113817306262941
1.6777160025100364,15.451441386703785,-0.04602632567346023,0.8840859591638833,-1.1430921458819507
1.669503523534736,15.293963903182373,-0.04522344071876525,0.8656638577406778,-1.1733355345261645
1.6614321949802724,15.139793757753957,-0.04445798766416373,0.8473377581306004,-1.2044368680482596
1.653495413492724,14.988913864196764,-0.04372847330859732,0.8291055036159775,-1.2362863000188138
1.6456868458416976,14.841307514894105,-0.043033389480585625,0.8109650441913385,-1.2687744876759208
1.6380004314312488,14.696958361689994,-0.042371215079955754,0.7929144358543381,-1.301792335397758
1.630430384470226,14.55585039683043,-0.04174041782029836,0.7749518403630338,-1.3352307344760768
1.6229711958550348,14.417967933904631,-0.041139455681823686,0.7570755254791597,-1.368980297916209
1.615617634816316,14.28329558869654,-0.04056677808171866,0.7392838657218482,-1.4029310889268112
1.6083647503799778,14.151818259852032,-0.04002082676648364,0.7215753436615594,-1.436972341689698
1.6012078726924717,14.023521109261406,-0.03950003642802853,0.7039485517898473,-1.4709921729162583
1.594142614260124,13.898389542049678,-0.03900283504250142,0.6864021950071272,-1.504877282601614
1.58716487115279,13.776409186059023,-0.038527643927878406,0.6689350937779114,-1.538512642280485
1.5802708242230907,13.657565870698008,-0.03807287751322349,0.6515461880111679,-1.5717811689693977
1.573456940394073,13.541845605021063,-0.03763694280919583,0.634234541732662,-1.6045633828484251
1.566719974070324,13.429234554888737,-0.037218238565793905,0.616999348626508,-1.6367370465924125
1.560056968730453,13.319719019044214,-0.03681515409943487,0.5998399385348482,-1.6681767841075872
1.5534652587624544,13.21328540392448,-0.036426067767218316,0.5827557850177578,-1.698753676266308
1.5469424716078648,13.109920197004751,-0.03604934506155476,0.5657465140903322,-1.7283348310634714
1.5404865302859387,13.009609938452265,-0.03568333629317904,0.5488119142706314,-1.7567829254474294
1.5340956563753179,12.912341190839726,-0.035326373824833224,0.531951948090912,-1.7839557159133148
1.5277683735380485,12.818100506639446,-0.034976768811492955,0.5151667652455252,-1.809705514797949
1.5215035116793918,12.72687439318586,-0.03463280739580343,0.4984567175721137,-1.8338786290984077
1.5153002118468382,12.638649274756421,-0.03429274629923514,0.48182237608830397,-1.856314758572925
1.5091579319832915,12.553411451378427,-0.0339548077401727,0.4652645503338509,-1.876846349904706
1.5030764536627244,12.471147053921584,-0.03361717359946056,0.4487843102977552,-1.8952979038611508
1.4970558899520372,12.391841994983139,-0.033277978741509645,0.43238301124050366,-1.911485232726271
1.4910966945607003,12.31548191501382,-0.03293530338445451,0.41606232175193336,-1.9252146659119376
1.4851996724605145,12.24205212306897,-0.03258716439538825,0.3998242554130793,-1.9362822026897064
1.4793659921820388,12.171537531501095,-0.03223150536545188,0.3836712064521825,-1.9444726126061829
1.4735972000227657,12.103922583838823,-0.031866185293140364,0.3676059897952799,-1.9495584866001487
1.4678952364360325,12.039191175026069,-0.03148896567056283,0.35163188590199745,-1.9512992454795794
1.4622624549105692,11.977326563128784,-0.0310974957234743,0.33575269073449227,-1.9494401177352823
1.4567016437007279,11.918311271562537,-0.030689295496983147,0.3199727711127163,-1.943711106361937
1.4512160508302059,11.86212698086436,-0.030261736397705005,0.30429712553367727,-1.933825975409787
1.4458094128724397,11.808754409045282,-0.029812018688586527,0.28873145023386737,-1.919481302787494
1.4404859881164187,11.758173179643094,-0.029337145267202592,0.2732822097904214,-1.9003556683315375
1.4352505948690497,11.710361676790189,-0.02883389081467527,0.2579567107973969,-1.876109078092115
1.4301086558423628,11.665296886979469,-0.028298765037400562,0.2427631759883745,-1.8463827709878684
1.4250662498537414,11.62295422784274,-0.027727968169506637,0.2277108144197352,-1.8107996177423353
1.4201301724737245,11.583307365280007,-0.027117336052903444,0.21280988072176757,-1.7689654115213536
1.4153080078575035,11.546328021879429,-0.026462270793995175,0.1980717126179977,-1.7204714744296639
1.4106082149011083,11.51198578200237,-0.025757650943730243,0.18350873046042956,-1.664899175895333
1.4060402322415004,11.480247902518581,-0.02499771194080021,0.169134374914988,-1.6018271914833375
1.4016146087377714,11.451079143393684,-0.0241758825450775,0.15496294869498498,-1.530842635857244
1.397343169342958,11.424441639633919,-0.023284555175070706,0.14100931530242486,-1.4515575836653123
1.393239231340431,11.400294845870366,-0.022314755964120712,0.1272883931815111,-1.3636329201849149
1.389317893740847,11.378595597056293,-0.021255661809034317,0.11381437141930667,-1.2668118430254176
1.3855964346505045,11.359298342050423,-0.0200938836392153,0.10059957309038262,-1.1609654229336561
1.3820948697434334,11.342355617121612,-0.01881239310601936,0.08765292611863848,-1.046151903624318
1.3788367528226422,11.327718823832882,-0.01738890601388356,0.07497811042280243,-0.9226889099937533
1.3758503425566515,11.315339340630324,-0.015793430274901776,0.06257170293894175,-0.7912319641573702
1.3731703313137897,11.30516989517935,-0.013984472423561168,0.050422135405190124,-0.6528421811253978
1.3708404744208755,11.297165900613933,-0.011902826386597693,0.03851113754388661,-0.5090110774024097
1.3689178237898838,11.291286019053917,-0.009459958402199854,0.02682087978963179,-0.36159671319010395
1.3674805101897696,11.287490248746767,-0.006510192710180196,0.015354345845357357,-0.21262519753915218
1.3666470536093251,11.28573018303388,-0.0027504359614257197,0.004201939853369387,-0.06394469192685351
