x,y,v_x,v_y,omega
2.375,32.48,0.0,3.230769230769231,-4.326530612244898
2.3740508013698545,31.87335787092495,-0.00999156452784578,3.154937391073377,-4.050454853678522
2.3713436235186287,31.28083093091459,-0.018505044432425566,3.082188293246206,-3.8007206902082924
2.3671394184549475,30.701852533120174,-0.02574974571158755,3.012321157221296,-3.5740678806430575
2.361662422328209,30.135892464732237,-0.03190284509618318,2.945153246862263,-3.367713429488243
2.355105744510576,29.582453723168086,-0.03711481614206298,2.8805177169709286,-3.179272065559979
2.3476360214174754,29.041069669946367,-0.04151384799583988,2.8182617906260954,-3.00669151101157
2.339397306980937,28.511301505432545,-0.04520946186245844,2.758245204256252,-2.8481995057759915
2.330514337072321,27.992736018204262,-0.04829548454402323,2.7003388718309194,-2.70226023427319
2.3210952781732614,27.48498357102968,-0.05085250386713202,2.6444237300068103,-2.567538316311614
2.3112340493854386,26.98767629195252,-0.052949904425738444,2.5903897339632556,-2.442868916615585
2.301012290099551,26.500466444155183,-0.054647561741500914,2.5381349796929458,-2.3272328288989397
2.290501032302866,26.023024952433516,-0.055997257170972675,2.487564933166721,-2.2197356236904238
2.279762125832982,25.55504006749326,-0.05704386356464807,2.4385917504149144,-2.1195901308551353
2.2688494563050927,25.096216152039286,-0.057826341992081295,2.391133675416381,-2.0261016702321974
2.2578099885084595,24.646272574904913,-0.05837858218300589,2.3451145049454643,-1.9386555561609489
2.246684662443248,24.20494270135837,-0.058730113240271734,2.300463111333904,-1.8567064907524817
2.2355091645859124,23.771972969303334,-0.05890670631062784,2.2571130155612495,-1.7797695317633664
2.224314593222369,23.347122042419315,-0.05893088698983046,2.2150020042705196,-1.707412377790077
2.213128033610145,22.930160032412594,-0.05882237208621044,2.1740717852738833,-1.6392487592503433
2.201973056194568,22.52086778350508,-0.05859844281460262,2.1342676769105107,-1.5749327605837795
2.1908701490074547,22.119036213107,-0.058274264418167465,2.095538327279757,-1.5141539290977495
2.1798370936380005,21.724465703322636,-0.0578631605234554,2.057835459924125,-1.4566330503164624
2.1688892927191326,21.33696553854496,-0.05737684914884024,2.0211136429987815,-1.4021184896677559
2.158040055665864,20.95635338492142,-0.05682564614872274,1.9853300793542423,-1.3503830167341588
2.1473008483925793,20.5824548079303,-0.05621864093848598,1.9504444152891378,-1.301221041792121
2.13668151188923,20.21510282470677,-0.05556384857045124,1.9164185660111765,-1.2544462055137051
2.1261904538240888,19.85413748810765,-0.05486834158893177,1.8832165560848344,-1.2098892719459706
2.1158348167400614,19.499405499811274,-0.05413836455872577,1.850804373350715,-1.1673962825651734
2.105620625903912,19.15075985001991,-0.05337943371653253,1.8191498349794109,-1.126826935607673
2.0955529194376523,18.808059481571593,-0.05259642382304241,1.7882224644765632,-1.0880531602346386
2.0856358629961695,18.47116897648033,-0.05179364398203938,1.7579933785893493,-1.0509578595776317
2.075872850944398,18.139958263112156,-0.05097490393134158,1.7284351831808948,-1.0154338004867525
2.0662665957223445,17.814302342372113,-0.05014357209027631,1.6995218772406362,-0.9813826309844669
2.0568192068598146,17.49408103142693,-0.04930262646267064,1.6712287642875765,-0.9487140091164107
2.0475322609088162,17.179178723621973,-0.04845469933730978,1.6435323705014528,-0.9173448291674162
2.03840686339527,16.869484163370707,-0.047602116594756924,1.6164103689855716,-0.8871985331441791
2.0294437037487056,16.564890234902634,-0.04674693231644672,1.5898415096257175,-0.8582044970710606
2.0206431040455386,16.265293763852185,-0.04589095929583614,1.5638055540631952,-0.8302974830485639
2.0120050622953367,15.970595330758158,-0.04503579596944666,1.5382832153476071,-0.8034171492232378
2.0035292909077542,15.6806990956218,-0.044182850215635526,1.5132561018772095,-0.7775076108449381
1.9952152508984102,15.395512632742598,-0.04333336040903693,1.4887066652722765,-0.752517046469001
1.9870688558248288,15.114948104794628,-0.0424181666812934,1.4646041552326627,-0.7263646303800481
1.9790949395097202,14.83892070781204,-0.041517794530377114,1.4409473919524673,-0.7013591964110869
1.9712906547935307,14.567347208337267,-0.04063257090319615,1.4177210235714388,-0.6774372408145258
1.9636531007537585,14.300147225874184,-0.039762734778617005,1.3949103707768,-0.6545394403794813
1.956179338366646,14.037243108631106,-0.03890844824361986,1.3725013896766658,-0.6326103333687731
1.9488664041865598,13.778559816086378,-0.03806980628360229,1.3504806371099438,-0.6115980280586213
1.9417113222729818,13.524024807931283,-0.037246845438271364,1.3288352382068485,-0.5914539362171671
1.93471111456803,13.273567938978754,-0.03643955145595838,1.307552856030295,-0.5721325291411163
1.9278628099037298,13.02712135965729,-0.03564786606299123,1.2866216631430094,-0.5535911141201472
1.9211634517974352,12.78461942173766,-0.034871692950636836,1.2660303149583516,-0.5357896294203733
1.9146101051754936,12.545998588965865,-0.03411090306980116,1.2457679247447582,-0.5186904560746438
1.9081998621491365,12.311197352299484,-0.03336533931290457,1.2258240401645037,-0.5022582449418989
1.9019298469523822,12.080156149466315,-0.03263482065292962,1.2061886212372646,-0.4864597576528501
1.895797220139222,11.85281728858413,-0.03191914580138895,1.1868520196278538,-0.47126372019725504
1.8897991821263158,11.629124875598755,-0.031218096439728987,1.1678049591655755,-0.4566406880310303
1.883932976157669,11.409024745314575,-0.03053144007233934,1.1490385175099969,-0.4425629216911704
1.8781958907591394,11.192464395807086,-0.029858932543763417,1.1305441088846333,-0.42900427200445007
1.8725852617429903,10.979392926021461,-0.029200320257804713,1.1123134678061477,-0.4159400740635462
1.8670984738159677,10.769760976374364,-0.02855534213190985,1.09433863374224,-0.4033470492226971
1.8617329618383773,10.563520672188385,-0.02792373131640992,1.0766119366364972,-0.3912032144353677
1.8564862117763572,10.360625569799822,-0.027305216704851826,1.0591259832431308,-0.3794877983195175
1.8513557613848204,10.161030605190938,-0.02669952425869526,1.0418736442187937,-0.3681811633927767
1.8463392006543755,9.964692045007506,-0.026106378167040326,1.024848041922579,-0.3572647339708328
1.841434172051831,9.771567439831369,-0.025525501859743376,1.0080425388788805,-0.34672092926823816
1.8366383705805829,9.581615579586071,-0.024956618890237415,0.9914507268610909,-0.3365331012822147
1.8319543019931679,9.39499914133387,-0.024349366240447534,0.9729328336883987,-0.36912839311998175
1.8273815317091577,9.211890931971496,-0.02378505780176333,0.9545220017050043,-0.40312718002098386
1.8229120153884613,9.032270873138891,-0.02326248241609326,0.9362154596908199,-0.4384242777966642
1.8185379418158885,8.856119402774041,-0.022780397295200084,0.9180105441497124,-0.4749163947275774
1.8142517385187937,8.6834174549593,-0.022337532147900623,0.8999046960054543,-0.5125019020225785
1.8100460766393662,8.514146440360356,-0.021932592898704455,0.8818954576676348,-0.5510806071458917
1.8059138751366874,8.348288227187936,-0.021564265024229753,0.8639804704631155,-0.5905535290408033
1.8018483043889555,8.185825122612965,-0.02123121653084383,0.8461574724313131,-0.6308226742675168
1.7978427892620776,8.026739854565971,-0.020932100594188582,0.8284242964843982,-0.6717908130537348
1.793891011707168,7.871015553850988,-0.020665557878541758,0.8107788689364624,-0.7133612542293907
1.7899869129463322,7.718635736503185,-0.0204302185513094,0.7932192084088543,-0.7554376179811924
1.7861246953034526,7.569584286317728,-0.020224704005316667,0.7757434251222759,-0.7979236053176564
1.7822988237345485,7.4238454374750695,-0.020047628298937473,0.7583497205899198,-0.8407227630804521
1.7785040271106118,7.28140375718468,-0.019897599321450066,0.741036387729959,-0.8837382432723436
1.774735299304686,7.142244128265418,-0.019773219688296064,0.7238018114201689,-0.9268725553949178
1.770987900134326,7.006351731575872,-0.01967308736812348,0.706644469522422,-0.9700273103996113
1.7672573562104998,6.8737120282022595,-0.01959579604057523,0.6895629344103549,-1.013102954752166
1.763539461744478,6.744310741304499,-0.019539935180706777,0.6725558750397629,-1.0559984929923096
1.7598302793653602,6.618133837512929,-0.019504089862638657,0.6556220596083575,-1.0986111970358483
1.7561261410026145,6.495167507758477,-0.019486840271526737,0.6387603588595558,-1.1408363003140267
1.7524236488904537,6.3753981474078785,-0.01948676090911461,0.6219697500941329,-1.1825666746735388
1.7487196767540614,6.258812335562354,-0.019502419473962505,0.605249321964035,-1.22369248776847
1.745011371241713,6.145396813362979,-0.019532375392862154,0.5885982801346418,-1.2641008384614392
1.741296153671778,6.035138461128213,-0.01957517797487605,0.5720159539155241,-1.303675367514181
1.7375717221695535,5.9280242741285605,-0.01962936415380178,0.5555018039755536,-1.342295840587176
1.7338360542759785,5.824041336779626,-0.019693455778565513,0.5390554312763898,-1.3798377002838624
1.730087410118636,5.7231767950073404,-0.01976595640398865,0.5226765873792618,-1.4161715836688427
1.7263243362452465,5.625417826507434,-0.01984534752642667,0.5063651863039613,-1.4511628013646174
1.722545670231254,5.530751608584641,-0.01993008419980964,0.49012131814648063,-1.484670773993814
1.718750546186314,5.439165283214869,-0.020018589957454952,0.4739452646932078,-1.516548421393942
1.7149384012997753,5.350645918925,-0.020109250953479877,0.45783751730543354,-1.5466414997057951
1.7111089835828692,5.265180469029076,-0.020200409224478733,0.4417987973884989,-1.574787881150126
1.7072623609856232,5.182755725695653,-0.02029035495705658,0.4258300798054333,-1.6008167710985342
1.7033989320899041,5.103358269247828,-0.02037731762946068,0.4099326196453633,-1.624547856970912
1.6995194386069383,5.026974412014397,-0.02045945587544375,0.39410798281181897,-1.6457903836379073
1.6956249799387475,4.953590135956638,-0.020534845894984482,0.37835808095406626,-1.664342150497006
1.691717030098899,4.883191023190292,-0.02060146820868453,0.362685211323261,-1.6799884264068037
1.6877974573297434,4.815762178406526,-0.02065719251926838,0.34709210219007564,-1.6925007804713084
1.6838685468021537,4.751288142070596,-0.02069976040272706,0.33158196450392163,-1.7016358296518561
1.6799330268413593,4.689752793145836,-0.02072676550037307,0.31615855049354985,-1.7071339089132929
1.6759940991912166,4.6311392399599,-0.020735630816918562,0.300826219884731,-1.7087176769079997
1.6720554739126618,4.575429697711268,-0.020723582641551847,0.28559001431141023,-1.7060906812710548
1.6681214096154036,4.522605351025749,-0.0206876204874845,0.27045574027298347,-1.6989359242047766
1.6641967598532423,4.472646199946052,-0.02062448227210635,0.2554300605659445,-1.686914493750527
1.6602870266854675,4.425530887821569,-0.020530603704471854,0.24052059337597187,-1.669664362753565
1.6563984226398971,4.381236509837933,-0.020402070459425086,0.22573601697810247,-1.6467995115319407
1.6525379426402953,4.339738401506075,-0.020234561115332703,0.21108617598883797,-1.617909609665632
1.648713447936046,4.301009907502376,-0.020023277876763633,0.19658218194483973,-1.5825606086414772
1.6449337647842768,4.265022133091282,-0.01976286056291342,0.1822364960666731,-1.5402967666027434
1.6412088017320423,4.231743683379182,-0.019447276829025827,0.16806297458700364,-1.4906448714679603
1.6375496910753122,4.20114040043228,-0.01906967745234463,0.15407684590669288,-1.4331217780364631
1.6339689628430938,4.173175115650658,-0.018622198676271073,0.1402945728472232,-1.3672468613711686
1.6304807641514334,4.147807445747354,-0.018095682288575114,0.12673353139807994,-1.292561639461676
1.6271011441177656,4.1249936763066195,-0.017479265434243017,0.11341141008332985,-1.2086596232266649
1.6238484365513117,4.1046867977442005,-0.016759761581060326,0.1003452063631782,-1.115230290879964
1.6207437922704004,4.086836783106676,-0.01592070453379503,0.0875496845581287,-1.012121562035273
1.6178119447853816,4.07139121865578,-0.014940847940087617,0.07503520439867417,-0.8994242818918733
1.6150823447894225,4.058296397550578,-0.013791783596324745,0.0628050177613638,-0.7775779705183455
1.612590884631573,4.047498921695034,-0.012434112802091514,0.05085262282328838,-0.6474860157580111
1.6103825899112842,4.038947646425495,-0.010811094779896856,0.03916080106660306,-0.5106069241456522
1.608516008239597,4.0325953094190865,-0.008837133343124795,0.027705904264018727,-0.36895758780134696
1.6070711277478273,4.028398104147861,-0.006372134991293846,0.01647520385412556,-0.22494073162284697
1.606167730056645,4.0263081405845895,-0.0031373143895733393,0.005524412601352743,-0.08092479951192744
