x,y,v_x,v_y,omega
2.375,32.48,0.0,2.1025641025641026,-2.36734693877551
2.374648298969664,32.06338608555364,-0.00351701030336433,2.0635750418994827,-2.2579949496216063
2.3736326839389292,31.654461844204988,-0.006639140003980177,2.0256673715870166,-2.1558505614558294
2.3720280454558655,31.253016044638535,-0.009407244826654563,1.9887906240775075,-2.0602793867930336
2.369901560004553,30.858847231063198,-0.011857609686472668,1.9528975116758749,-1.9707140711915172
2.3673135477567957,30.47176311343854,-0.014022512791101387,1.9179436645706776,-1.8866461762325715
2.364318225168271,30.091580007351723,-0.01593071309414276,1.8838873962975262,-1.8076191641281378
2.36096436660688,29.718122318414512,-0.01760787251976764,1.8506894930745872,-1.7332223186213176
2.3572958871029734,29.351222066706782,-0.01907692251929654,1.8183130240027139,-1.6630854640468544
2.353352356551943,28.99071844734877,-0.020358382991006355,1.786723169577424,-1.5968743667443481
2.3491694542197017,28.636457423757527,-0.02147064033140819,1.7558870663349946,-1.5342867214141136
2.3447793711526463,28.288291350547425,-0.022430190339146353,1.7257736657660117,-1.4750486402233542
2.340211167036587,27.94607862338192,-0.023251850821448667,1.6963536058890643,-1.418911575103591
2.3354910871518717,27.609683353383552,-0.02394894802570399,1.6675990940946075,-1.3656496142039158
2.3306428443083465,27.278975063968886,-0.02453348040954696,1.6394838000520409,-1.3150571022594904
2.325687869992287,26.95382840820089,-0.025016262751048915,1.6119827576278927,-1.266946542007566
2.320645538400239,26.63412290494864,-0.025407053169432342,1.5850722748946071,-1.2211467399824014
2.31553336655705,26.319742692317007,-0.025714665262457602,1.558729851421757,-1.1775011652474048
2.3103671933049954,26.010576296961048,-0.025947067258089068,1.5329341021377942,-1.135866494042072
2.3051613395975803,25.706516418033942,-0.0261114698160582,1.5076646871332955,-1.0961113170673338
2.2999287522267795,25.40745972463579,-0.026214403891950438,1.4829022468482287,-1.0581149893163069
2.2946858019829315,25.11330787700056,-0.02621509854653033,1.4586162295040401,-1.020133320477119
2.289446807646302,24.82396608422065,-0.026174844819762656,1.4348016982950689,-0.98388930782051
2.2842195358346955,24.53934172687896,-0.026097873296305984,1.411441875121854,-0.949282881354649
2.279010946844257,24.259345464636603,-0.025988016608075152,1.388520747301677,-0.9162208229737049
2.2738272703737867,23.983891087556803,-0.025848748096631666,1.3660230234963489,-0.8846162228430764
2.2686740739170146,23.71289537593939,-0.025683216471087646,1.3439340926778074,-0.8543879846758983
2.2635563245792203,23.446277968083002,-0.02549427690685555,1.3222399858860414,-0.8254603749926872
2.258478444990796,23.18396123543873,-0.025284518977388436,1.3009273405567043,-0.7977626119993773
2.2534443639165893,22.92587016466144,-0.025056291764676584,1.279983367216196,-0.7712284901966534
2.2484575620947456,22.67193224610379,-0.024811726453763998,1.259395818360284,-0.7457960372540479
2.2435211137812563,22.422077368332886,-0.02455275668112711,1.2391529593487496,-0.7214072000531201
2.23863772442557,22.176237718281683,-0.02428113687573668,1.2192435411632938,-0.6980075571315616
2.233809764857554,21.934347686676432,-0.023998458804419056,1.1996567748892217,-0.675546055049744
2.2290393023261883,21.69634377840817,-0.023706166509243263,1.1803823077933862,-0.6539747664577965
2.224328128694898,21.46216452754066,-0.023405569803654675,1.1614102008816853,-0.633248667868866
2.2196777860669745,21.231750416669577,-0.023097856475583163,1.1427309078291774,-0.6133254353463241
2.215089590086471,21.005043800368185,-0.022784103329452562,1.1243352551847186,-0.5941652564924327
2.2105646511350625,20.781988832473708,-0.02246528618463257,1.1062144237600502,-0.5757306572860373
2.206103893623083,20.562531396985648,-0.022142288935163585,1.0883599311205405,-0.5579863424595718
2.2017080735531325,20.346619042363457,-0.021815911764341788,1.0707636151013942,-0.5408990482330528
2.1973777945169184,20.1342009190254,-0.021486878597795533,1.0534176182791652,-0.5244374063366146
2.193113522270153,19.925227719864097,-0.021155843869857853,1.0363143733338878,-0.5085718183550217
2.1889155980161465,19.719651623606495,-0.02082339867020716,1.0194465892421336,-0.49327433951888155
2.184784250516047,19.517426240857695,-0.020490076330789923,1.0028072382458748,-0.478518571149148
2.180719607132283,19.318506562678486,-0.02015635750685131,0.9863895435461909,-0.4642795610350103
2.1767235450409315,19.1230311409797,-0.01980426340666471,0.968364673441705,-0.48655948259962944
2.1727952478327026,18.931149448731887,-0.01947870867562365,0.95045224903638,-0.5105413588861938
2.1689294286824286,18.742839300443627,-0.01917948282711597,0.9326492338462313,-0.5361150896234678
2.165120851618989,18.558079106033887,-0.01890628780727947,0.9149527102511563,-0.5631730150046723
2.1613643482834384,18.37684784748748,-0.018658745548225844,0.8973598752129444,-0.5916096813534528
2.157654833237986,18.19912505632763,-0.018436404906297006,0.8798680363855517,-0.6213216116328102
2.1539873179446656,18.024890791828344,-0.01823874802690799,0.8624746086072969,-0.6522070798706883
2.1503569235245954,17.8541256198909,-0.018065196173793038,0.8451771107671582,-0.6841658885793741
2.1467588924015226,17.68681059251019,-0.017915115056935618,0.8279731630399204,-0.7170991482426355
2.143188598926819,17.522927227757442,-0.01778781969010029,0.8108604844875483,-0.7509090579344032
2.1396415590772424,17.362457490205998,-0.017682578805666968,0.7938368910268976,-0.785498686115516
2.1361134393115386,17.205383771726638,-0.017598618851368708,0.7769002937667429,-0.8207717506302546
2.1326000646673493,17.051688872577948,-0.017535127590525803,0.7600486977201458,-0.8566323968916473
2.1290974261758544,16.901355982715785,-0.017491257324424584,0.7432802009014557,-0.8929849732033354
2.1256016876681536,16.754368663243564,-0.017466127752581204,0.7265929938207688,-0.9297338021155368
2.1221091920445225,16.610710827922233,-0.01745882848373024,0.709985359392541,-0.9667829466526349
2.118616467075404,16.470366724655047,-0.017468421207455776,0.6934556732793034,-1.004035970179377
2.1151202308013177,16.333320916857502,-0.017493941533406908,0.6770024046961514,-1.0413956885907019
2.1116173965977794,16.199558264617192,-0.017534400501977264,0.6606241177069537,-1.0787639134158424
2.108105077970867,16.069063905541583,-0.017588785767142907,0.644319473049139,-1.1160411843195466
2.1045805931492723,15.941823235183609,-0.0176560624488055,0.6280872305305957,-1.153126489360845
2.101041469539548,15.817821886925572,-0.017735173648435278,0.6119262520497795,-1.1899169712316637
2.0974854481129044,15.697045711190722,-0.017825040618003333,0.5958355052987075,-1.226307617542509
2.093910487794296,15.579480753839018,-0.017924562568082544,0.5798140682183124,-1.2621909330493841
2.0903147699278355,15.465113233588507,-0.018032616096522243,0.563861134286802,-1.2974565915240746
2.0866967028967633,15.353929518286382,-0.018148054214197296,0.5479760187344658,-1.3319910647583508
2.0830549269814513,15.245916099833632,-0.018269704938923152,0.5321581657930117,-1.3656772259614085
2.0793883195452962,15.141059567543902,-0.01839636942262977,0.5164071571042963,-1.3983939245597423
2.075696000646013,15.039346579690218,-0.018526819570202406,0.500722721432535,-1.4300155291417056
2.0719773391789014,14.940763832962357,-0.0186597951009148,0.48510474584606283,-1.4604114350092372
2.068231959669313,14.845298029521768,-0.0187939999949706,0.46955328855982204,-1.4894455325135527
2.0644597498439974,14.752935841299955,-0.018928098258180072,0.45406859365831875,-1.5169756320710641
2.0606608691254746,14.663663871139011,-0.01906070892704968,0.43865110795112683,-1.542852841497662
2.0568357582103367,14.577468610318963,-0.019190400224331355,0.4233015002493713,-1.5669208910897805
2.052985149911794,14.494336391954821,-0.01931568276109218,0.40802068339206327,-1.5890154017581803
2.0491100814691574,14.414253339676065,-0.019435001665273885,0.39280983939548797,-1.608963091542254
2.0452119085528246,14.337205310921878,-0.019546727498054813,0.37767044814638473,-1.6265809160823788
2.041292321223271,14.263177834096343,-0.019649145797480772,0.3626043201089536,-1.6416751392270046
2.037353362137231,14.192156038729038,-0.019740445062921264,0.3476136335640852,-1.6540403310760645
2.0333974473346714,14.12412457767843,-0.01981870296267213,0.33270097694201367,-1.6634582926685315
2.029427389987545,14.059067540300308,-0.019881870508594416,0.317869396839195,-1.6696969095796004
2.0254464275473643,13.996968355384958,-0.019927753893211466,0.30312245231432466,-1.6725089414383798
2.0214582527958647,13.937809682551762,-0.0199539936217848,0.2884642760176269,-1.6716307615878268
2.0174670493849227,13.881573290690838,-0.019958040487632635,0.27389964259160665,-1.6667810719138305
2.013477532553929,13.828239921977318,-0.019937127822305327,0.25943404454361413,-1.6576596339097878
2.009494995843159,13.777789139987032,-0.019888239285395282,0.24507377535922908,-1.6439460806996347
2.00552536479334,13.730199160561934,-0.01980807121279465,0.23082601889176615,-1.6252989094754697
2.0015752588550892,13.68544666438645,-0.019692988169715875,0.2166989428630743,-1.601354804623486
1.9976520630603518,13.643506590860177,-0.01953896977765679,0.20270179239967626,-1.5717285159200396
1.9937640114852355,13.60435191396548,-0.019341545973506364,0.18884497654729182,-1.5360136238326736
1.9899202852479043,13.567953402696563,-0.019095716399805302,0.17514013614186283,-1.4937846794644174
1.9861311288817176,13.5342793716265,-0.018795847262061717,0.16160017455875594,-1.4446014292982243
1.9824079906422214,13.50329543188991,-0.018435535132900926,0.14823922280713533,-1.3880161489073644
1.978763695042527,13.474964259990738,-0.01800742086404211,0.13507249618457356,-1.323585541713814
1.9752126603154356,13.449245412314706,-0.017502926406872323,0.12211598057575794,-1.2508892272253793
1.9717711806334037,13.426095227933647,-0.016911870413447178,0.10938586323483812,-1.16955753059833
1.9684578044885281,13.405466881564454,-0.01622189103530754,0.09689760045710043,-1.0793119724235258
1.9652938593573293,13.387310670734973,-0.015417560276681015,0.08466450783770228,-0.9800221820793696
1.962304202925415,13.371574639560649,-0.01447900404246161,0.07269580390554303,-0.8717820533937474
1.9595183297061847,13.358205638183488,-0.013379728149841475,0.060994209866066657,-0.7550040802398484
1.9569720420975734,13.347150853119171,-0.012083147936272177,0.049553640777091595,-0.6305211165594973
1.9547100405658553,13.33835964741984,-0.010536867380908269,0.038358416216237326,-0.49966641476882984
1.952790114923996,13.331785098462863,-0.008662389037686707,0.027387073353515833,-0.36427712304608906
1.9512906203465579,13.327383645867155,-0.006332556736692661,0.016627452603564657,-0.22654667915064033
1.9503273510555657,13.325108361825546,-0.0033001361732303853,0.006125387812523711,-0.08866447155535231
