x,y,v_x,v_y,omega
2.375,32.48,0.0,2.1538461538461537,-2.8571428571428577
2.3744096244524213,31.989709259852855,-0.005133700413729265,2.1095515865637737,-2.7053592862642333
2.3727130438767414,31.509439130433538,-0.00961917415739934,2.0667104083867973,-2.56531830791724
2.3700505219433223,31.03886439544417,-0.013533190481028556,2.0252438089120792,-2.4358206906293014
2.3665457985137484,30.577677290654222,-0.01694266542830978,1.9850788414352847,-2.315813375055108
2.3623081954220324,30.125586221783596,-0.01990605710835021,1.9461478443962419,-2.204369091976688
2.357434426390669,29.682314607011413,-0.022474543164375013,1.9083879362314404,-2.100669164923656
2.3520101568778653,29.247599828555398,-0.024693017816524408,1.8717405720817448,-2.0039889466509724
2.346111351864756,28.82119228017549,-0.026600938819210967,1.836151152960916,-1.9136854433100687
2.339805443255446,28.402854499420723,-0.028233049087834486,1.8015686796892414,-1.8291867630575331
2.333152343382236,27.992360375053394,-0.02961999328790135,1.7679454452440706,-1.7499830919512334
2.3262053268532012,27.589494421420916,-0.030788846095011077,1.7352367602557408,-1.6756189529833299
2.319011799469296,27.194051112658478,-0.031763565938949474,1.703400707243687,-1.6056865468107338
2.311613970031374,26.805834270538185,-0.03256538569515331,1.672397919889327,-1.539820007329807
2.304049438441305,26.42465650056624,-0.03321314987066166,1.6421913842145173,-1.4776904333761711
2.2963517114859817,26.050338671596126,-0.033723606262586255,1.6127462590038655,-1.4190015808139167
2.2885506560064144,25.682709434793058,-0.034111658777127844,1.5840297131967283,-1.3634861181300324
2.280672897738292,25.321604778271343,-0.034390587032629996,1.5560107782964574,-1.310902364171425
2.2727421729183517,24.96686761414425,-0.034572237488594816,1.52866021411306,-1.2610314394880433
2.2647796387445003,24.618347395087447,-0.03466719011011089,1.5019503863808563,-1.213674773380988
2.256804147925675,24.27589975783062,-0.0346849039666319,1.4758551549828645,-1.1686519176023025
2.2488488213747386,23.939388349373395,-0.03449184865020533,1.4503310055147385,-1.1224018203271156
2.2409430792722027,23.608682237418996,-0.034253734850107576,1.4253743158278644,-1.0785096319502494
2.2330966305655258,23.28365347050278,-0.033976253903603724,1.4009627877913784,-1.0368247660400258
2.225317945439856,22.964179095140224,-0.03366448631961147,1.3770752588395556,-0.9972080722240804
2.2176143881503902,22.650140903010517,-0.03332296837139399,1.3536916292448486,-0.9595308311610806
2.2099923354219984,22.3414251942249,-0.032955751005927986,1.330792794977914,-0.923673849553658
2.202457282074261,22.037922555452557,-0.03256645201787255,1.3083605856511653,-0.8895266440970447
2.195013935326464,21.739527651786783,-0.032158302310799615,1.2863777070946854,-0.8569867046164044
2.1876662990602314,21.44613903133256,-0.031734186960790445,1.2648276881594365,-0.8259588278229206
2.1804177491636674,21.157658941585126,-0.03129668170498311,1.243694831383466,-0.7963545141406103
2.1732711009468324,20.873993156748845,-0.030848085397928625,1.2229641671928946,-0.7680914209447343
2.1662286695014443,20.595050815217387,-0.03039044890979242,1.20262141134151,-0.7410928663273284
2.159292323775511,20.320744266501165,-0.029925600880932608,1.1826529253212754,-0.7152873781816864
2.152463535044181,20.050988926946555,-0.029455170695852434,1.1630456795014452,-0.6906082839891108
2.1457434203797527,19.785703143644575,-0.02898060899482493,1.1437872187766314,-0.6669933372094308
2.1391327816550425,19.524808065974955,-0.02850320600265717,1.1248656305244251,-0.6443843766315059
2.1326321405539046,19.268227524275144,-0.028024107920279866,1.1062695146913208,-0.6227270154396043
2.1262417700095995,19.015887915163816,-0.02754433159541659,1.0879879558419656,-0.6019703571033775
2.119961722444892,18.767718093084532,-0.027064777662910083,1.0700104970213833,-0.5820667355093603
2.1137918551465296,18.52364926766838,-0.0265862423228513,1.052327115292985,-0.5629714770258168
2.1077318530703226,18.283614906544578,-0.026109427905034392,1.0349281988270371,-0.5446426824349577
2.10178124934087,18.047550643255597,-0.02563495235107365,1.0178045254249628,-0.5270410268810124
2.0959394436814955,17.815394189958653,-0.025163357730445687,1.0009472423745243,-0.5101295761728202
2.0902057189847434,17.587085254618522,-0.024695117893485434,0.9843478475396898,-0.4938736179484581
2.084582977243696,17.362679590131435,-0.024198288550405848,0.9670057566958247,-0.49816513419869135
2.079072105337581,17.14224770883849,-0.023722336720160615,0.949793211068906,-0.5048903138938371
2.0736682154901733,16.925760264243028,-0.02326800977903419,0.9327063071525157,-0.5139167321484972
2.0683662671701635,16.71318878898238,-0.022835888655835124,0.9157413038096418,-0.5251162422891623
2.0631611037789597,16.504505658367925,-0.022426401702457185,0.8988946145769428,-0.5383646679523033
2.058047486273846,16.299684055629044,-0.02203983747244724,0.8821628005437497,-0.5535415076736769
2.0530201239682313,16.09869793873243,-0.021676356489417264,0.8655425637746365,-0.5705296507152811
2.048073702732705,15.901522008654844,-0.02133600208037773,0.8490307412478386,-0.5892151029311918
2.043202910804036,15.708131678993556,-0.021018710342830295,0.8326242992850962,-0.6094867215198274
2.038402462394112,15.51850304680383,-0.020724319308683986,0.8163203284516534,-0.6312359575483246
2.0336671192769025,15.332612864557444,-0.020452577362700432,0.8001160389082109,-0.6543566051649105
2.028991710518851,15.150438513120044,-0.020203150968184598,0.784008756199623,-0.6787445564375376
2.0243711505064925,14.971957975648255,-0.019975631747975033,0.7679959174680949,-0.7042975607716926
2.019800455414568,14.797149812310039,-0.0197695429644126,0.7520750680816036,-0.7309149878671436
2.015274758248309,14.62599313573346,-0.019584345437841766,0.7362438586712626,-0.7584975931723693
2.0107893225849387,14.458467587090205,-0.019419442939288427,0.7205000425744335,-0.7869472847862995
2.0063395551316594,14.294553312720534,-0.019274187089229,0.7048414736835724,-0.8161668907395179
2.001921017210458,14.134230941205946,-0.01914788179078407,0.6892661047041541,-0.8460599255608588
1.997529435273964,13.977481560794683,-0.019039787222203574,0.6737719858285678,-0.8765303549999013
1.993160710551246,13.824286697083178,-0.01894912341012695,0.6583572638367042,-0.9074823577306597
1.9888109279178783,13.674628290853576,-0.018875073401767542,0.6430201816380863,-0.9388200828061387
1.984476364080827,13.52848867596358,-0.01881678605085247,0.6277590782749339,-0.9704474015665817
1.9801534951656656,13.385850557179747,-0.018773378428811417,0.6125723894105508,-1.0022676526253531
1.975839003791381,13.24669698783924,-0.018743937869313707,0.5974586483329808,-1.0341833784644905
1.9715297857165723,13.111011347217286,-0.018727523650762877,0.5824164875101051,-1.0660960520660074
1.9672229561401957,12.978777317468598,-0.01872316831772942,0.5674446407393459,-1.097905791883925
1.9629158557402306,12.849978860000121,-0.018729878638489104,0.552541945943058,-1.1295110633246244
1.958606056534749,12.724600191119656,-0.01874663619178573,0.5377073486696694,-1.1608083647483436
1.95429136765196,12.602625756789994,-0.018772397571597568,0.5229399063708537,-1.1916918958314695
1.949969841098917,12.484040206300627,-0.018806094193993348,0.5082387935366953,-1.2220532059369347
1.9456397776228274,12.368828364648728,-0.018846631685047428,0.49360330778414946,-1.2517808199281077
1.9412997327643828,12.25697520339747,-0.018892888823165265,0.479032877009389,-1.2807598386303556
1.9369485232093784,12.148465809752196,-0.018943716002960832,0.46452706773212865,-1.3088715108952282
1.9325852335532314,12.043285353563295,-0.018997933180924194,0.45008559478006205,-1.3359927739578525
1.928209223603054,11.941419051927877,-0.01905432725540223,0.4357083324844567,-1.3619957585038056
1.9238201363538365,11.842852131019995,-0.019111648824749784,0.4213953275840797,-1.3867472545861321
1.9194179067893515,11.74756978473043,-0.019168608257728405,0.4071468140642996,-1.4101081342699573
1.915002771674812,11.65555712964099,-0.01922387099913725,0.39296323019170554,-1.4319327266523567
1.9105752805274947,11.566799155794104,-0.019276052021011306,0.3788452380420712,-1.452068140740395
1.9061363079738296,11.481280672645262,-0.019323709315206918,0.3647937458609108,-1.4703535316174916
1.9016870677273436,11.398986249502563,-0.019365336306411206,0.35080993364081253,-1.4866193054565997
1.8972291284519291,11.319900149663948,-0.0193993530450196,0.33689528234714605,-1.5006862593491177
1.8927644318098917,11.244006257357793,-0.019424096016174622,0.3230516072715856,-1.5123646527582164
1.888295313035082,11.171287996477243,-0.019437806373476196,0.3092810960375526,-1.5214532088884543
1.8838245244193659,11.101728239973962,-0.019438616371880574,0.2955863518170589,-1.5277380467012307
1.8793552621574519,11.035309208646524,-0.0194245337317191,0.2819704423345862,-1.530991548149839
1.8748911970630484,10.972012357928357,-0.019393423610918812,0.26843695521470223,-1.5309711711159206
1.8704365097519846,10.911818251161286,-0.019342987789637278,0.25499006015114106,-1.5274182274576855
1.8659959309904566,10.85470641775122,-0.01927074057147532,0.24163457819726086,-1.5200566589231421
1.8615747880369389,10.800655194572286,-0.01917398076346103,0.22837605814129147,-1.5085918634703879
1.857179057976889,10.749641549061586,-0.019049758889148383,0.2152208593430441,-1.4927096537320772
1.8528154292798735,10.70164088270236,-0.01889483847620341,0.2021762394328313,-1.4720754722673686
1.8484913731307453,10.656626814142143,-0.01870564977708461,0.1892504436994989,-1.4463340510929827
1.8442152265513796,10.61457094220766,-0.018478233521748176,0.1764527905134083,-1.4151097947132296
1.8399962900214013,10.575442590819915,-0.018208171086756975,0.1637937432930856,-1.3780082990895977
1.8358449433639592,10.53920854066557,-0.01789049549969712,0.15128495370120842,-1.334619610992246
1.8317727853151882,10.505832756996941,-0.017519574489616246,0.13893925211294347,-1.2845241054205148
1.8277928048228906,10.475276129874153,-0.017088951530361423,0.126770548954775,-1.227302239435053
1.8239195963469492,10.447496253502003,-0.016591122173478003,0.114793593411763,-1.1625499516730256
1.8201696382865213,10.42244728610865,-0.01601720878676465,0.10302351435653036,-1.089902116916181
1.8165616647975527,10.40007995174452,-0.015356473726007009,0.09147504533156192,-1.0090671579679007
1.8131171793350105,10.380341769509855,-0.014595573774359098,0.08016132192639033,-0.9198763974022393
1.8098611874219341,10.363177618632943,-0.013717399382826885,0.06909216395978689,-0.8223513224197252
1.8068232730750167,10.348530753845253,-0.012699247112109032,0.05827187767228982,-0.716789192898622
1.8040392199431783,10.33634433873856,-0.011509910556049408,0.04769694934244683,-0.6038598149070329
1.8015535126857958,10.326563395475532,-0.010104935160322508,0.037354731205635074,-0.48469073745791474
1.7994233383308256,10.319136657503297,-0.008418320100285636,0.027225598987718855,-0.36089424025538
1.7977255183226157,10.314016924303466,-0.006345332145019538,0.01729382014125487,-0.23446678064094423
1.7965711020514652,10.311156174597077,-0.0036930702128102344,0.007582264262144176,-0.10749322220698673
