x,y,v_x,v_y,omega
2.375,32.48,0.0,2.9743589743589745,-6.530612244897959
2.373081125983076,31.80474407922257,-0.016685861016731703,2.8974316410969294,-6.068739284608261
2.367634550627599,31.146768844821885,-0.030675663813504193,2.8240921363003277,-5.65603695316074
2.359232041648151,30.505280923019985,-0.04238963165995362,2.7540637054553105,-5.2857263292603935
2.3483569426440902,29.8795470197024,-0.0521764466362283,2.687100671219338,-4.952137976765039
2.3354190679608178,29.268887326458852,-0.06032681147918246,2.622983617854995,-4.6505036137294855
2.320766808920881,28.672669923808087,-0.0670841366941847,2.5615155356299195,-4.376791926714055
2.3046970341919892,28.090305987166822,-0.07265303486139212,2.5025186960332597,-4.127578079081842
2.287463230985267,27.521245646694076,-0.07720612345793217,2.44583209068627,-3.899939204526335
2.2692822331412854,26.964974385563078,-0.08088950996799438,2.3913093104528382,-3.6913701283666125
2.250339806727854,26.421009886040945,-0.08382724145314757,2.3388167723483053,-3.499714967938354
2.2307953065536195,25.88889925142861,-0.08612493397498071,2.2882322242806716,-3.3231112940414946
2.2107855731363637,25.368216546121754,-0.08787274791419765,2.2394434740398452,-3.159944298448151
2.190428205719478,24.8585606069867,-0.08914783831959283,2.192347301047571,-3.0088089835566953
2.169824320439002,24.35955308774896,-0.09001638151063192,2.146848518411055,-2.868478821923261
2.149060881912916,23.87083670477365,-0.0905352578466399,2.1028591596351034,-2.7378796626013373
2.128212680032163,23.39207365791878,-0.09075345415990829,2.060297769537719,-2.6160679143620853
2.1073440105942947,22.922944204387633,-0.09071323660416321,2.019088782906998,-2.502212232001825
2.086510107894104,22.463145366936484,-0.09045113470184174,1.9791619775377913,-2.395578084970275
2.065758368907813,22.012389760587304,-0.08999876952677648,1.9404519907159323,-2.2955147077207885
2.0451294018466015,21.570404524289142,-0.08938355274462807,1.9028978901376645,-2.2014440261156025
2.024657926278214,21.13693034586842,-0.08862927828482788,1.866442791781657,-2.1128512296354196
2.004373547462907,20.711720570188383,-0.08775662445697112,1.8310335184795399,-2.029276719369995
1.9843014238193313,20.29454038176186,-0.08678358113934054,1.7966202939250016,-1.9503092101010828
1.964462843367456,19.885166054178242,-0.08572581409435662,1.763156467671679,-1.875579803759747
1.9448757224630302,19.48338425965249,-0.08459697637891125,1.7305982673348608,-1.804756883098858
1.9255550380408457,19.088991432811458,-0.08340897511834468,1.6989045747610534,-1.7375417000846372
1.9065132028419547,18.701793183524586,-0.08217220052418663,1.6680367233856614,-1.6736645544624569
1.8877603916485182,18.321603754181503,-0.08089572289700021,1.6379583143802723,-1.6128814751213245
1.8693048253372124,17.94824551733396,-0.07958746241870315,1.608635049511412,-1.5549713310020126
1.8511530185460399,17.581548510066277,-0.07825433576540737,1.5800345789032093,-1.4997333099470456
1.8333099958958812,17.221350001847913,-0.07690238293162414,1.5521263621260506,-1.4469847135396114
1.8157794809893484,16.86749409296207,-0.07553687712518413,1.524881541229094,-1.3965590239930803
1.7985640618027308,16.519831340902975,-0.07416242014975122,1.4982728245021493,-1.348304205830328
1.7816653355734242,16.178218412397126,-0.07278302532247893,1.472274379896546,-1.3020812106719253
1.765112716879346,15.842522797266383,-0.07115278940863684,1.4468179255881612,-1.2507581042070939
1.7489322093939368,15.51261710895718,-0.06954727568187709,1.4219271901440356,-1.202035774998556
1.7331179609614986,15.188373792460176,-0.06796792807845478,1.3975799098298949,-1.1557489698550578
1.7176638222033538,14.869670282724613,-0.06641588720976144,1.3737549574358745,-1.1117449300364504
1.7025634115924393,14.556388751648516,-0.06489203114601545,1.350432269312783,-1.0698822976566427
1.6878101717481595,14.248415871205282,-0.06339701097815631,1.3275927780196843,-1.0300301305034083
1.6733974180737803,13.945642591474051,-0.061931281842533416,1.3052183500779826,-0.9920670132937485
1.6593183807119996,13.64796393245146,-0.060495129999039124,1.2832917283793317,-0.9558802548412803
1.645566240667717,13.355278788621153,-0.05908869647298299,1.26179647884073,-0.9213651618765026
1.632134160837575,13.067489745346265,-0.05771199770216551,1.240716940940899,-0.8884243813595518
1.6190153125910984,12.784502906230124,-0.05636494357154221,1.2200381818081627,-0.8569673040816612
1.6062028984661536,12.506227730662538,-0.05504735316711065,1.1997459535621395,-0.8269095231858825
1.593690171470184,12.23257688083428,-0.05375896853697066,1.1798266536401114,-0.7981723419666042
1.581470451416798,11.963466077561261,-0.05249946670986332,1.1602672878644114,-0.7706823259454157
1.569537138673428,11.698813964313413,-0.05126847018900781,1.1410554360299079,-0.7443708947801884
1.557883725648929,11.438541978891706,-0.050065556110983477,1.1221792198110232,-0.719173950055371
1.5465038063091274,11.182574232240754,-0.04889026423511671,1.103627272805954,-0.6950315354334298
1.535391083972693,10.930837393924573,-0.04774210390779224,1.0853887125521355,-0.671887526027808
1.524539377608593,10.683260583829483,-0.04662056012786009,1.0674531143617,-0.6496893441933872
1.5139426268291907,10.439775269691413,-0.045525098823464,1.0498104868389229,-0.6283876992269088
1.5035948957492553,10.200315170075275,-0.044455171436843084,1.0324512489535924,-0.6079363487321018
1.4934903758603262,9.964816162461787,-0.04341021890167129,1.01536620855501,-0.588291879636623
1.4836233880516225,9.733216196122537,-0.04238967508705696,0.998546542221071,-0.5694135070540485
1.4739972746503034,9.505559822839071,-0.04131565883745617,0.9810740950264702,-0.5696848819568132
1.4646135033256305,9.281906692791011,-0.04028235268143823,0.9637357314783991,-0.5725953899127612
1.4554627168758003,9.06222644088227,-0.039289703404043384,0.9465273285976203,-0.5780024185874083
1.4465355857372875,8.846489630001567,-0.03833752388737281,0.929444939930221,-0.5857683086644332
1.4378228373466642,8.634667711431426,-0.037425505596307876,0.9124847867666445,-0.5957600026335168
1.429315282749466,8.42673298720091,-0.03655323003150305,0.8956432500204534,-0.6078487096913192
1.4210038406844694,8.222658574234885,-0.03572017922933682,0.8789168627276035,-0.6219095852238018
1.4128795593541756,8.022418370161127,-0.03492574538191125,0.8623023031311533,-0.6378214234218283
1.4049336360761837,7.825987020644217,-0.034169239644106814,0.8457963883202367,-0.6554663616547151
1.3971574349953682,7.633339888121871,-0.03344990018907304,0.8293960683958165,-0.6747295952887923
1.389542503023268,7.4444530218253355,-0.03276689956832009,0.8130984211392643,-0.6954991016905996
1.3820805841587225,7.259303128970551,-0.032119351427728225,0.7969006471632106,-0.7176653721974785
1.3747636323325123,7.077867547011131,-0.031506316626271465,0.7808000655274113,-0.7411211508723546
1.3675838229084887,6.900124216847832,-0.030926808800021226,0.7647941098056267,-0.7657611788846136
1.3605335629643338,6.726051656892022,-0.030379799410020742,0.7488803245927393,-0.7914819433752905
1.3536055004666616,6.55562893788273,-0.029864222308868163,0.7330563624445864,-0.8181814296723124
1.346792532447554,6.388835658358278,-0.029378977857284157,0.7173199812462914,-0.8457588757201784
1.3400878122828346,6.225651920684001,-0.02892293661853783,0.7016690420082967,-0.87411452757806
1.3334847561663394,6.066058307537368,-0.028494942655332842,0.6861015070928578,-0.9031493948205741
1.326977048869159,5.910035858750774,-0.028093816450584248,0.6706154388775264,-0.9327650046460663
1.320558648868244,5.757566048410251,-0.027718357470415858,0.65520899886617,-0.9628631534576718
1.3142237929249116,5.608630762105463,-0.027367346384647814,0.6398804472624128,-0.9933456546321482
1.307967000190623,5.463212274222396,-0.027039546956993215,0.6246281430251144,-1.024114081129843
1.3017830759149462,5.321293225164979,-0.026733707614108947,0.6094505444307,-1.055069501525444
1.2956671148288794,5.182856598385563,-0.02644856269951488,0.5943462101729114,-1.086112207952542
1.2896145042756906,5.047885697096426,-0.02618283341517132,0.5793138010369684,-1.1171414343546653
1.283620927161179,4.916364120525056,-0.025935228450147504,0.5643520821923264,-1.1480550633204145
1.2776823647957996,4.788275739564963,-0.025704444292281872,0.5494599261563256,-1.1787493196497576
1.2717950997024643,4.663604671660611,-0.025489165214980965,0.5346363164901987,-1.209118448651659
1.2659557184661046,4.5423352547498155,-0.02528806292727677,0.5198803522993145,-1.23905437700938
1.2601611147043137,4.424452020068937,-0.025099795870904874,0.5051912536213725,-1.268446353868725
1.254408492242667,4.309939663605508,-0.024923008143413576,0.490568367799756,-1.2971805696064687
1.2486953685837485,4.198783015958753,-0.0247563280210946,0.4760111769546303,-1.3251397495222568
1.2430195787656007,4.090967010340552,-0.024598366049756265,0.4615193066819125,-1.3522027194698019
1.23737927971341,3.986476648417156,-0.024447712664944596,0.4470925361302163,-1.3782439402064055
1.2317729551978962,3.885296963654895,-0.02430293529604529,0.432730809628585,-1.4031330070007557
1.2261994215252776,3.7874129817903004,-0.024162574900638153,0.41843425006354285,-1.4267341108085574
1.2206578340970722,3.692809677996202,-0.02402514186636645,0.404203174232971,-1.4489054571206696
1.2151476949936084,3.6014719302591907,-0.023889111207231035,0.39003811043669695,-1.469498638434172
1.2096688617532987,3.513384468420032,-0.023752916969376262,0.3759398185994774,-1.488357956230237
1.2042215575408257,3.428531818256083,-0.023614945747780586,0.36190931326096154,-1.5053196884180995
1.1988063829219033,3.346898239903094,-0.02347352919937093,0.34794788980849845,-1.520211298500564
1.1934243294907498,3.268467659822477,-0.023326935419355054,0.3340571543707937,-1.532850583347493
1.1880767956296292,3.1932235954192976,-0.023173359025171626,0.32023905783075524,-1.5430447575943462
1.1827656047187398,3.1211490713070233,-0.023010909765171613,0.30649593444988354,-1.5505894745508426
1.1774930261607035,3.0522265260993393,-0.022837599435143557,0.29283054561692196,-1.5552677864532167
1.172261799638797,2.9864377084921117,-0.022651326842305013,0.2792461292285281,-1.556849051417404
1.1670751630945344,2.9237635612872914,-0.022449860499109,0.2657464551612077,-1.5550878012650122
1.1619368849922234,2.8641840919188084,-0.022230818651420958,0.2523358871734374,-1.5497225945331938
1.1568513015415989,2.807678227989591,-0.021991646136618515,0.2390194513415035,-1.5404748939396997
1.151823359683757,2.754223656352952,-0.02172958740983127,0.2258029107162345,-1.5270480295200972
1.1468586668246543,2.7037966444236154,-0.02144165484323685,0.2126928451910516,-1.5091263407130955
1.141963548547026,2.6563718427653846,-0.02112459104918307,0.1996967344457373,-1.486374637346122
1.1371451158819579,2.611922068697826,-0.020774823429670963,0.18682304005477704,-1.4584381872085121
1.132411344233912,2.5704180718796152,-0.020388408292466326,0.17408128010357377,-1.4249435357941835
1.1277711668226564,2.531828284836834,-0.01996096050106095,0.16148208548582757,-1.3855006044292602
1.1232345866868103,2.496118564608956,-0.0194875624193393,0.1490372208435473,-1.3397067131035656
1.1188128131388755,2.4632519366425427,-0.018962642345312086,0.13675954408178648,-1.2871534545793057
1.1145184314816443,2.433188359515274,-0.018379806848002084,0.12466286572053936,-1.227437728502708
1.110365619456881,2.4058845399135578,-0.017731602062983364,0.11276165255526256,-1.16017874135636
1.1063704313678113,2.3812938423603853,-0.017009163928926006,0.1010705000810122,-1.085043368913076
1.1025511827858052,2.359366357699024,-0.01620169330590877,0.08960327958300572,-1.0017828475458996
1.0989289878376365,2.340049216384511,-0.015295654069472378,0.07837186228232106,-0.9102839775975327
1.0955285312932614,2.3232872500849204,-0.0142735332729202,0.06738436640975677,-0.8106371142590032
1.0923792054394774,2.309024099662519,-0.013111908933898204,0.056643028567654886,-0.7032196686009571
1.0895168190854867,2.2972038005264253,-0.011778407187759962,0.046142181311430316,-0.588785241537627
1.0869862242334494,2.2877726770678564,-0.010226765438651341,0.0358675878935093,-0.4685325478709288
1.0848455137286612,2.2806809297134514,-0.008388108516027521,0.025799780405650563,-0.3441064599165058
1.0831733779758335,2.2758823511363673,-0.006152202378127159,0.015926989829869058,-0.21746727605130767
1.0820852457085912,2.273327902122979,-0.0033098173370222773,0.0062856102865438395,-0.09057532458046108
