x,y,v_x,v_y,omega
2.375,32.48,0.0,2.4615384615384617,-2.8571428571428577
2.374485985282226,31.992674405802603,-0.005140147177737994,2.411717480435478,-2.706845973665366
2.373008177059744,31.515151149582973,-0.009637935047080723,2.3635150817608332,-2.568099392540765
2.370687499652298,31.04711512905441,-0.013568839027382554,2.3168451235247725,-2.4397333711629687
2.367630742970126,30.588267846711723,-0.016998727794336765,2.271627699902095,-2.3207193552789764
2.363932349164504,30.138326221806423,-0.019985210261881912,2.2277885491509335,-2.2101505132030868
2.359675950649918,29.69702151356631,-0.022578774883980517,2.185258533250193,-2.1072252713446677
2.3549356975259355,29.2640983423925,-0.02482375635584283,2.1439731784879075,-2.011233340108069
2.3497774060581396,28.839313797727456,-0.02675915832211879,2.103872268162519,-1.921543814467661
2.344259554673012,28.422436622902016,-0.02841935552915535,2.0648994800918943,-1.8375950094379923
2.338434149649623,28.013246468607683,-0.029834694704735668,2.0270020628514422,-1.758885751498516
2.332347479169689,27.611533207757418,-0.031032010094602158,1.9901305456511957,-1.6849678960357113
2.326040771473866,27.21709630543591,-0.03203506686363124,1.9542384775638943,-1.6154398805229244
2.3195507704523433,26.829744238432387,-0.0328649433515933,1.9192821924713328,-1.5499411553956761
2.3129102399813517,26.44929395952176,-0.033540361358321204,1.8852205966348994,-1.4881473608963094
2.3061484066313325,26.075570402234103,-0.034077972141871006,1.8520149762417084,-1.4297661397298675
2.2992913489587847,25.7084060223451,-0.03449260458360944,1.819628822648322,-1.3745334931164912
2.2923623404047526,25.347640372744863,-0.03479748095670952,1.7880276733540454,-1.3222106024750007
2.2853821518200914,24.993119708709813,-0.03500440488990485,1.7571789669964597,-1.272581051108586
2.2783693187895997,24.64469662092195,-0.03512392541501209,1.7270519108821607,-1.2254483903506108
2.271340378208167,24.302229693858457,-0.035165480399313824,1.6976173597527697,-1.180634003038625
2.2643100779510448,23.965583187418595,-0.035137522171910233,1.6688477046458663,-1.137975224217558
2.257291562959855,23.634626739869283,-0.03504762773998347,1.6407167708472288,-1.0973236848711516
2.250296540621552,23.309235090379723,-0.03490259564304851,1.6131997240483833,-1.0585438494407544
2.2433354279372826,22.98928781958238,-0.03470853119964422,1.5862729839250291,-1.021511722072915
2.236417482652069,22.674669106745885,-0.034470921652496225,1.559914144439936,-0.9861137000727694
2.229550920236067,22.365267502276843,-0.034194702507519215,1.5341019002504703,-0.9522455560364441
2.2227430183670167,22.060975714385027,-0.03388431618298472,1.5088159786677053,-0.9198115326809306
2.2160002103554493,21.761690408851003,-0.03354376393268914,1.4840370766725401,-0.8887235365570263
2.209334831469856,21.46731332042806,-0.033110024923243046,1.4597338075568662,-0.8568407328090193
2.202757580458602,21.177749705047145,-0.03266248518929661,1.4359023462523108,-0.8264136769389191
2.1962709821592354,20.892906878186153,-0.03220349780437159,1.4125259223576072,-0.7973586917585914
2.1898771160325716,20.61269543310582,-0.031735163462264515,1.389588528445722,-0.7695978189609674
2.1835776640299653,20.337029092624494,-0.03125935656380099,1.3670748763675389,-0.7430583663108014
2.1773739535236194,20.0658245693338,-0.030777748499658985,1.3449703565394093,-0.7176724954615858
2.171266995828768,19.79900143368216,-0.030291828448851654,1.3232609999769787,-0.6933768463330187
2.1652575207865192,19.53648198939853,-0.029802921973637722,1.3019334428593339,-0.6701121944316255
2.1593460078233724,19.278191155769903,-0.029312207657831282,1.2809748934269305,-0.6478231378914427
2.153532713856987,19.02405635632379,-0.028820732006019638,1.2603731010341936,-0.6264578113590844
2.1478176983768376,18.77400741350103,-0.02832942279547774,1.240116327193392,-0.60596762415408
2.1422008459922814,18.52797644893564,-0.027839101050084664,1.2201933184605216,-0.5863070204062866
2.136681886708686,18.28589778898692,-0.02735049178586892,1.2005932810267081,-0.5674332591119199
2.1312604141640428,18.04770787519523,-0.02686423366056315,1.1813058568901695,-0.5493062122622144
2.125935902033545,17.813345179356794,-0.02638088764441602,1.1623211014942203,-0.5318881793872564
2.120707718787482,17.582750122934744,-0.025900944816214338,1.1436294627262562,-0.5151437170250608
2.1155751409681827,17.355865000543993,-0.02542483337677517,1.1252217611812367,-0.49903948177501567
2.110537365134318,17.132633907265774,-0.024952924961870793,1.1070891716009732,-0.48354408572760027
2.105593518605384,16.913002669564914,-0.024485540327472074,1.0892232054076136,-0.4686279631807141
2.100742669125418,16.696918779598537,-0.0240229544721851,1.0716156942561654,-0.45426324765872156
2.0959838335527317,16.484331332719243,-0.023565401254678417,1.0542587745367684,-0.4404236583448762
2.0913159856715002,16.275190967989285,-0.023113077557639285,1.0371448727627934,-0.4270843951224326
2.0867380632113104,16.069449811534433,-0.02266614704425612,1.0202666917857333,-0.41422204149560565
2.0822489741520536,15.867061422577628,-0.022224743548313997,1.003617197782328,-0.4018144747295829
2.0778476023837587,15.66798074200305,-0.021788974134634324,0.9871896079634551,-0.3898407826099118
2.073535970317238,15.472343804733296,-0.021327346530572805,0.9691797647340943,-0.41394462993159004
2.0693134307452654,15.280297685161738,-0.02089804918915272,0.9512814309814637,-0.43971533269654217
2.065173567442436,15.091820381673639,-0.02050058383914161,0.9334916038995308,-0.4670439910633659
2.0611100710781973,14.906890481516243,-0.020134379803246536,0.9158073976744264,-0.49582412437474715
2.057116753024706,14.725487137822551,-0.019798800731664887,0.8982260392624971,-0.525951437309367
2.053187557874727,14.547590047440636,-0.019493150768124298,0.8807448645566515,-0.5573235909436841
2.0493165747792004,14.373179429491906,-0.019216680187142673,0.8633613149306412,-0.5898399777893094
2.045498047706717,14.202236004583497,-0.018968590537691763,0.8460729341534369,-0.6234014998760197
2.041726384720439,14.034740974601313,-0.018748039325087465,0.8288773656684186,-0.6579103489479599
2.0379961663619572,13.870676003010999,-0.018554144259729566,0.8117723502347227,-0.6932697878310834
2.03430215322616,13.710023195594445,-0.01838598709824645,0.7947557239308101,-0.7293839320130875
2.030639292806371,13.552765081549047,-0.018242617099640215,0.7778254165231784,-0.7661575304526833
2.0270027256847922,13.398884594876112,-0.01812305411614851,0.7609794502061736,-0.8034957446025557
2.023387791139606,13.248365055983285,-0.018026291335714765,0.744215938722108,-0.8413039245892948
2.0197900322370184,13.101190153423634,-0.017951297690161627,0.7275330868744165,-0.8794873814433124
2.0162052004739657,12.957343925691148,-0.017897019940364932,0.7109291904504323,-0.9179511542115758
2.012629260035239,12.816810742988643,-0.017862384446898652,0.6944026365746028,-0.9565997707150936
2.009058391727376,12.679575288879416,-0.017846298631733606,0.6779519045176742,-0.9953370006305603
2.0054889966508433,12.545622541728385,-0.017847652133591112,0.6615755669926313,-1.0340655994803973
2.00191769967184,12.414937755831716,-0.017865317656441417,0.6452722919740771,-1.072687042006515
1.9983413527554605,12.287506442125867,-0.017898151507356345,0.6290408450844053,-1.1111012432792726
1.9947570382230815,12.163314348357659,-0.017944993816433125,0.6128800925976654,-1.1492062657530848
1.991162071998663,12.042347438585832,-0.018004668427754236,0.5967890051206097,-1.1868980103226605
1.9875540069112592,11.924591871871751,-0.018075982446283348,0.5807666620202034,-1.2240698892577142
1.9839306361245148,11.810033980001922,-0.018157725421160772,0.564812256678081,-1.2606124786980988
1.9802899967682999,11.69866024406759,-0.018248668140986548,0.5489251026652533,-1.29641314817483
1.9766303738530722,11.590457269706558,-0.018347561011290276,0.5331046409450769,-1.331355664385078
1.9729503045541035,11.485411760789113,-0.018453131978398447,0.5173504482293687,-1.3653197661913155
1.969248582960541,11.383510491302985,-0.018564083957224507,0.5016622466319042,-1.398180707538086
1.9655242653935174,11.284740275161223,-0.01867909171301234,0.48603991478572045,-1.4298087646877384
1.9617766764083533,11.18908793362105,-0.018796798138629424,0.4704835006160278,-1.4600687038751854
1.9580054156085422,11.096540259960499,-0.018915809859479306,0.45499323598948305,-1.4888192051814637
1.9542103654138643,11.007083981012205,-0.019034692087302407,0.43956955349345533,-1.5159122381426613
1.95039169994195,10.92070571509926,-0.019151962631839884,0.42421310563600084,-1.5411923843691726
1.9465498951822384,10.837391925855787,-0.01926608496527556,0.40892478679871536,-1.5644961022870645
1.9426857406638907,10.75712887134388,-0.019375460218201315,0.3937057583203371,-1.5856509290831438
1.9388003528453583,10.679902547798008,-0.019478417967121225,0.3785574771383831,-1.6044746151182812
1.934895190483485,10.605698627237377,-0.01957320565161205,0.3634817284679423,-1.6207741865867982
1.9309720722749892,10.534502388085727,-0.019657976433346307,0.3484806630485637,-1.6343449332138764
1.9270331971038503,10.466298637827105,-0.019730775278043282,0.33355683953766346,-1.6449693195459723
1.9230811672757215,10.401071626606857,-0.01978952300324582,0.31871327266482147,-1.6524158212614337
1.9191190151767066,10.33880495056297,-0.019831997986902175,0.30395348777403847,-1.6564376924334214
1.9151502338610318,10.279481443550381,-0.019855815169846414,0.28928158235185303,-1.6567716765761602
1.9111788121537692,10.223083055811301,-0.0198584019027793,0.27470229503892724,-1.6531366847066424
1.9072092749560259,10.169590718066818,-0.01983697007465302,0.26022108240589376,-1.6452324791717194
1.9032467295688273,10.118984189489133,-0.019788483797334767,0.2458442033709632,-1.6327384249783359
1.8992969190207785,10.071241888108023,-0.019709621683152215,0.2315788104401429,-1.6153124042505929
1.8953662836133078,10.026340702484113,-0.019596732391555103,0.2174330457989491,-1.5925900392034573
1.8914620322178637,9.984255784060785,-0.019445781562886417,0.20341613843434114,-1.5641844418718056
1.887592225324041,9.944960320661508,-0.019252287375341525,0.18953849555842994,-1.5296868150739737
1.8837658725318933,9.908425293393378,-0.01901124054613388,0.17581177712287388,-1.488668383213012
1.8799930482472227,9.874619222137827,-0.018717002300573073,0.1622489354326484,-1.440684353255282
1.8762850310099264,9.843507909409826,-0.0183631700723889,0.14886419184736963,-1.385280920874332
1.8726544745512737,9.815054199403107,-0.017942394514139256,0.13567290821982936,-1.3220067729326859
1.8691156229784651,9.78921777945881,-0.017446121213946467,0.12269129122313868,-1.2504311178364635
1.8656845894772347,9.76595506598417,-0.016864213798357838,0.10993584352327712,-1.1701709900836716
1.8623797293118218,9.745219236506173,-0.016184387855770428,0.09742245125668848,-1.0809313181489326
1.8592221564084637,9.726960492723247,-0.015391341177811164,0.08516498657258345,-0.982561672961957
1.856236482734148,9.71112665984451,-0.014465395565345686,0.07317334221478215,-0.8751328818894439
1.8534519080078482,9.697664227919255,-0.013380351697652719,0.0614509770377684,-0.7590330481278336
1.8509038669859559,9.686519882877057,-0.012100058521269094,0.04999247338419478,-0.6350730154563601
1.8486365849286632,9.677642385846745,-0.010572762051658476,0.03878249691893739,-0.5045727304686703
1.8467072086137841,9.670984214921699,-0.00872100109713162,0.02779921233151037,-0.3693730629612595
1.845193134406076,9.666501421238571,-0.006419740979950011,0.0170287244997802,-0.2316953516094674
1.8442083095332304,9.664147375734402,-0.0034285077485046588,0.006511730541929951,-0.09378082757157746
