x,y,v_x,v_y,omega
2.375,32.48,0.0,2.41025641025641,-3.7142857142857144
2.3743532109349945,32.002777107101444,-0.006467890650053022,2.3619725187291096,-3.5222429664177417
2.3724921872743425,31.535055880809242,-0.012142345956470884,2.315239744192917,-3.34467280224739
2.3695664771161744,31.076534402054584,-0.017114755625206843,2.269975043353675,-3.1801339459775453
2.365708493745186,30.626926741923654,-0.02146507808467793,2.226101557955617,-3.027356730268356
2.361035643628487,30.185961786647493,-0.02526342308231113,2.183547994806004,-2.885219659675784
2.3556521621568423,29.75338217852829,-0.028571391634138178,2.142248086386007,-2.7527295732339985
2.349650701545824,29.328943357981565,-0.03144321447604381,2.1021401190812545,-2.6290047917726365
2.3431137078526825,28.912412694221384,-0.03392672245537173,2.063166518520543,-2.5132607512879095
2.336114617988602,28.50356869402514,-0.03606417618543317,2.0252734834419055,-2.4047977154997002
2.3287189026299857,28.102200279577524,-0.03789297740072861,1.9884106610342394,-2.3029902340178623
2.320984976837399,27.70810612768192,-0.03944628052513639,1.9525308579218077,-2.2072780713834255
2.3129649968056376,27.321094063696,-0.04075351979247901,1.917589781937422,-2.117158379746396
2.3047055583583083,26.940980504440212,-0.04184086468081749,1.883545810620436,-2.032178926471681
2.29624831045855,26.567589945076364,-0.04273161431676473,1.8503597830180454,-1.9519322193679332
2.28763049504893,26.2007544855852,-0.04344653977943581,1.8179948118935783,-1.8760503979419918
2.2788854228898514,25.840313393008106,-0.04400418181134695,1.786416113877372,-1.804200780214566
2.2700428936819823,25.486112696075068,-0.044421110267345465,1.7555908554530146,-1.7360819720730896
2.2611295675896157,25.138004809232896,-0.0447121506563232,1.7254880129687113,-1.6714204605840297
2.252169294292259,24.795848183424848,-0.0448905823172439,1.6960782451117589,-1.60996762469535
2.2431834048513912,24.45950698126441,-0.04496831209143286,1.667333776492614,-1.5514971067751344
2.234190970963906,24.128850774499043,-0.04495602678341807,1.6392282911610379,-1.4958024968119747
2.2252090355631946,23.803754261880336,-0.04486332722369727,1.6117368350260284,-1.4426952881350286
2.2162528182065184,23.4840970057499,-0.044698846343060754,1.5848357262783654,-1.3920030694304408
2.20733589823953,23.169763185819733,-0.04447035332682707,1.558502473023316,-1.343567922826246
2.198470378344032,22.860641368774957,-0.04418484562815329,1.532715697424421,-1.2972450020452218
2.189667030743824,22.556624292458537,-0.04384863037392597,1.5074550657397936,-1.2529012682117187
2.1809354280576727,22.257608663514354,-0.043467396487586005,1.482701223702021,-1.2104143639488756
2.172292630266684,21.96349726159391,-0.042960581422304,1.4584127955024127,-1.1669983957756858
2.163753453796798,21.674196343339638,-0.0424311832765512,1.4345963870403176,-1.1255649631754092
2.1553220753422493,21.38961318764904,-0.04188260126893597,1.4112351698656738,-1.0860000736324917
2.1470020271688566,21.109658362111695,-0.04131788046499209,1.388313085507764,-1.0481975295412231
2.1387962643408596,20.834245573464116,-0.040739747814980146,1.3658148009680346,-1.0120583104849872
2.1307072251231833,20.563291526637762,-0.04015064436178279,1.343725667295514,-0.9774900110132801
2.122736885281858,20.296715791808776,-0.03955275405146781,1.322031680994337,-0.9444063283509625
2.114886806924018,20.03444067890571,-0.0389480295269322,1.3007194480363204,-0.9127265950897012
2.1071581824473653,19.77639111907483,-0.03833821523959494,1.2797761502724962,-0.8823753524526892
2.0995518741059604,19.52249455264195,-0.03772486817445453,1.2591895140562597,-0.8532819602002517
2.092068449643597,19.272680823145567,-0.037109376449181664,1.2389477809076057,-0.8253802396642128
2.084708214396918,19.026882077048505,-0.03649297601760535,1.2190396800630297,-0.7986081467701069
2.077471240227018,18.785032668765275,-0.03587676568139414,1.1994544027692515,-0.7729074722346851
2.070357391599835,18.547069070669234,-0.03526172059043866,1.1801815781911646,-0.7482235664170422
2.063366349101593,18.312929787768574,-0.03464870439198054,1.1612112508154493,-0.7245050865597146
2.0564976306453406,18.082555276762903,-0.034038480170539814,1.1425338592412686,-0.7017037643852952
2.0497506105978016,17.855887869212925,-0.03343172030485107,1.1241402162584928,-0.6797741922179669
2.043124537031911,17.632871698574867,-0.032829015354055247,1.1060214901220735,-0.6586736259809053
2.0366185472891987,17.4134526308688,-0.03223088207307164,1.0881691869386096,-0.6383618035823937
2.0302316820172726,17.197578198766152,-0.03163777064618954,1.070575134087882,-0.6188007773480267
2.023962897830824,16.985197538896536,-0.031050071218291887,1.0532314646082648,-0.5999547592855784
2.017811078729535,16.77626133218766,-0.030468119794601338,1.0361306024804962,-0.5817899780847312
2.011775046392846,16.570721747064674,-0.029892203572286564,1.0192652487493765,-0.5642745468574549
2.0058535694595605,16.368532385346978,-0.029322565760567024,1.0026283684276023,-0.547378340717743
2.0000453718895033,16.169648230691198,-0.028759409940005816,0.9862131781301787,-0.5310728833828483
1.994353336597853,15.974209665042814,-0.0281609429764976,0.9681724783536516,-0.5518861708347126
1.9887775880805352,15.782367914013097,-0.027596542196681798,0.9502450319435081,-0.5744474029100839
1.9833113669360471,15.594100634030962,-0.027065669248196554,0.9324277678778313,-0.5986436324346136
1.9779480288097038,15.409386083537097,-0.026567712015238314,0.9147177370608247,-0.6243644945086819
1.972681058457965,15.22820309904446,-0.026101991502148054,0.897112107865547,-0.6515019618096215
1.9675040824940753,15.050531072049242,-0.025667768136750542,0.8796081620866416,-0.6799501054433602
1.9624108809270753,14.876349926711427,-0.02526424753324964,0.8622032912915257,-0.709604860363
1.9573953975986627,14.705640098226159,-0.024890585750875407,0.8448949935611629,-0.7403637943805198
1.9524517496154685,14.538382511808617,-0.024545894081066846,0.8276808706142338,-0.7721258797993868
1.9475742358680888,14.37455856221607,-0.02422924339272982,0.8105586253112588,-0.8047912666902381
1.9427573447226152,14.214150093731138,-0.023939668062006734,0.7935260595380669,-0.8382610568187485
1.9379957609654137,14.057139380530234,-0.023676169510006763,0.7765810724709641,-0.8724370772140284
1.9332843720775084,13.903509107360229,-0.02343771936904672,0.7597216592290928,-0.907221652337029
1.928618273911092,13.753242350445039,-0.023223262295117616,0.7429459099228182,-0.942517373771018
1.923992775837431,13.606322558541699,-0.023031718441493494,0.7262520091105877,-0.9782268663096838
1.9194034054327205,13.462733534062576,-0.02286198560561075,0.7096382356806474,-1.014252549262207
1.9148459127663056,13.32245941417668,-0.022712941058538966,0.693102963178307,-1.050496391727987
1.9103162743541007,13.185484651798426,-0.022583443063508978,0.6766446606042272,-1.0868596605158387
1.905810696839047,13.051793996366552,-0.022472332087028358,0.6602618937145129,-1.1232426592924933
1.9013256204600377,12.921372474309166,-0.022378431703064753,0.6439533268593438,-1.1595444574422098
1.8968577223709735,12.794205369082874,-0.022300549187576645,0.6277177254035701,-1.1956626070022376
1.892403919872488,12.670278200664491,-0.02223747579727836,0.6115539587802583,-1.2314928459067511
1.8879613736204706,12.549576704362792,-0.02218798672289722,0.5954610042367446,-1.266928785623739
1.8835274908778543,12.432086808804868,-0.022150840703266037,0.5794379513424942,-1.3018615811042975
1.8790999288792938,12.317794612936702,-0.02212477928233864,0.5634840073391674,-1.3361795807812062
1.874676598382404,12.20668636186019,-0.022108525686557936,0.5475985034259566,-1.3697679541532928
1.8702556674842608,12.09874842130882,-0.022100783294875328,0.5317809020877249,-1.4025082942742486
1.8658355657879695,11.993967250541047,-0.022100233668037938,0.5160308055899997,-1.4342781922305594
1.861414989011422,11.892329373403673,-0.022105534097435216,0.5003479657837431,-1.4649507804457538
1.8569929041390063,11.793821347286865,-0.02211531462672436,0.4847322953843244,-1.4943942413921094
1.8525685552271827,11.698429729657075,-0.022128174491512418,0.4691838809135819,-1.5224712780341796
1.8481414699866896,11.606141041813562,-0.02214267791341702,0.4537029975215572,-1.5490385420834023
1.8437114672778796,11.516941729467838,-0.022157349174683337,0.4382901259356808,-1.5739460159284446
1.8392786656716125,11.430818119692269,-0.022170666887988064,0.4229459718200197,-1.5970363439498554
1.8348434932465296,11.347756373723701,-0.02218105736284199,0.4076714878656395,-1.618144108871354
1.8304066988147691,11.267742435039654,-0.02218688695476253,0.39246789897482726,-1.6370950489039078
1.8259693647927269,11.190761972047572,-0.022186453265660214,0.377336730946003,-1.6537052117900561
1.821532921961858,11.116800314641882,-0.022177975043028694,0.3622798431109046,-1.6677800425810467
1.8170991663974911,11.045842383788987,-0.022159580600638846,0.34729946541805595,-1.6791134032604755
1.8126702788821079,10.977872613198024,-0.022129294553193585,0.33239824049157135,-1.6874865244278143
1.8082488471648053,10.912874862027483,-0.022085022619831148,0.31757927121383617,-1.6926668925518282
1.803837891482475,10.850832317468942,-0.02202453420347239,0.3028461743715848,-1.6944070813428802
1.799440893823113,10.79172738594707,-0.021945442390147254,0.28820314084715215,-1.692443543361599
1.795061831491367,10.735541571592453,-0.021845180927311605,0.27365500269899823,-1.686495389216131
1.7907052156365175,10.682255340601529,-0.021720977621184794,0.2592073072102365,-1.6762631982440526
1.7863761355322287,10.631847970128675,-0.021569823421703157,0.24486639751831218,-1.6614279288018308
1.7820803095690854,10.584297380510456,-0.021388436209730043,0.23063949866386502,-1.6416500316197271
1.7778241441565348,10.539579949979178,-0.021173217915775897,0.2165348066489085,-1.6165689210475205
1.7736148020646878,10.497670311701011,-0.020920203002694555,0.20256157613277262,-1.5858030334453335
1.7694602822238747,10.45854113415082,-0.020624995405434443,0.18873019936913615,-1.5489508093685649
1.7653695137310013,10.422162887773403,-0.020282689523300274,0.1750522644050335,-1.5055930901999601
1.7613524679336652,10.388503603957325,-0.019887768450061075,0.16154057375576303,-1.4552976385458676
1.7574202942162,10.357528637090969,-0.0194339687245905,0.14820909490780537,-1.3976267971501841
1.7535854878890533,10.329200447577858,-0.01891409454687635,0.13507280022330057,-1.3321497160757685
1.7498621030225099,10.303478433988133,-0.01831975411855799,0.12214733567396015,-1.258461114847075
1.746266030195414,10.280318856776422,-0.01764097415240149,0.10944843644315433,-1.176209178443715
1.7428153705809266,10.259674914313251,-0.01686562199247284,0.09699098818854725,-1.0851357820016625
1.739530956114045,10.241497052402767,-0.015978522676340763,0.08478763091629751,-0.9851324272558932
1.7364370946404177,10.22573360396122,-0.014960092059934215,0.07284685349916546,-0.8763142007906701
1.7335626653591474,10.21233184836672,-0.01378420075276788,0.061170702445824225,-0.7591100694225676
1.7309427658844574,10.201239512914665,-0.01241479399413461,0.049752652074719295,-0.634358333494131
1.7286212500812694,10.192406544422283,-0.010800364037744283,0.038577032849093584,-0.5033786884361923
1.7266548072252377,10.18578654505443,-0.008864064522573847,0.027622960829443585,-0.36796903365179834
1.7251201879455587,10.181336342294546,-0.006482128274216166,0.01687906676938454,-0.23025860622989894
1.724130363838257,10.179009431291878,-0.0034161127988007055,0.006390043257293199,-0.09236299283147023
