x,y,v_x,v_y,omega
2.375,32.48,0.0,3.8974358974358974,-3.224489795918368
2.3741226508980473,31.749498413614532,-0.009235253704765784,3.792054485568983,-2.9802820942465122
2.371643510854185,31.038534628360555,-0.016860957283257115,3.6917748328939353,-2.764060442981276
2.36784270159193,30.34617560650979,-0.023147561266795784,3.5962148707983386,-2.5717158137886442
2.362953618700619,29.67155726660291,-0.028316469168058585,3.5050308124319725,-2.399846486278267
2.357171327994154,29.013877674185515,-0.03254974879472804,3.4179122656458847,-2.2456206345822283
2.3506593154523054,28.37239108755582,-0.03599775164578524,3.334578119929869,-2.1066684266794518
2.343554941899474,27.74640272562415,-0.03878512785770408,3.254773058298208,-1.9809967207930246
2.3359738725709063,27.135264150066906,-0.04101560191669297,3.1782645791464588,-1.8669211952567908
2.3280136908170896,26.538369173419582,-0.04277578496558679,3.104840438193809,-1.7630120235827074
2.319756859056306,25.95515022004947,-0.044138233568977704,3.034306439386295,-1.6680501436762298
2.3112731548749568,25.385075079110837,-0.04516391570838383,2.9664845178624786,-1.580991864965487
2.3026216831263926,24.82764399835773,-0.04590420796070954,2.9012110690123727,-1.5009400765365848
2.2938525439700346,24.282387075616562,-0.04640252000095368,2.8383354861577756,-1.4271207104836443
2.285008220535013,23.7488619112057,-0.046695621420327384,2.7777188760618303,-1.3588634113408067
2.276124737181738,23.226651489935783,-0.04681472966677898,2.7192329267794335,-1.2955855889847963
2.267232629344933,22.71536226576375,-0.04678640545748624,2.662758906610374,-1.2367792064565077
2.2583577580512655,22.214622425882347,-0.04663329237059161,2.6081867763517406,-1.1819997886987412
2.2495219959430885,21.724080314143837,-0.046374729820742006,2.5554143998431216,-1.1308572428044747
2.240743806648318,21.243402996350017,-0.046027262755791255,2.5043468400918147,-1.0830081621228278
2.2320387353403413,20.772274952176247,-0.04560506680185939,2.4548957301583845,-1.0381493507969697
2.2234198251193944,20.31039688040351,-0.04512030394495006,2.4069787095546498,-0.9960123560153238
2.2148979712541497,19.857484605765087,-0.044583420952363034,2.3605189182182125,-0.9563588354793949
2.206482223221839,19.413268077117664,-0.04400340044037765,2.3154445412283593,-0.9189766196408425
2.198180042777413,18.977490447857157,-0.04338797265884476,2.271688398355925,-0.8836763539085833
2.18999752488875,18.54990723054747,-0.04274379459023656,2.2291875733250257,-0.850288626637988
2.1819395872341203,18.13028551864005,-0.04207660177429204,2.187883078332017,-0.8186615053444106
2.1740101330210697,17.71840326895455,-0.041391337310447765,2.147719549936394,-0.7886584170533484
2.1662121911138925,17.314048639282642,-0.040692261712472325,2.108644972925786,-0.7601563196507637
2.158548036818812,16.91701937608299,-0.03998304665679588,2.070610429175831,-0.7330441200326892
2.1510192961472314,16.527122247767075,-0.03926685514931329,2.033569868886416,-0.7072213021696145
2.1436270359378793,16.14417251954356,-0.03854641021229007,1.9974799018874332,-0.682596734211972
2.1363718418523954,15.767993466201414,-0.03782405384543302,1.9622996069772698,-0.6590876287174077
2.1292538859528367,15.398415919576845,-0.03710179772887095,1.9279903574918806,-0.636618634177056
2.122272985313163,15.035277847771987,-0.036381366899269255,1.8945156615066425,-0.6151210394156543
2.1154286529014663,14.67842396347995,-0.03566423743438271,1.861841015251615,-0.5945320752666813
2.10872014178843,14.327705359025735,-0.034951669018636056,1.8299337684769525,-0.5747943002816138
2.1021464835846095,13.98297916595942,-0.03424473312683911,1.7987630006421391,-0.5558550592050417
2.0957065218798046,13.64410823724073,-0.03354433745005555,1.7682994069230429,-0.5376660046021945
2.089398941348212,13.310960850235048,-0.032851247093023006,1.7385151931367604,-0.5201826734173187
2.083222293090024,12.983410428903174,-0.03216610299316796,1.7093839787777059,-0.5033641114150854
2.0771750167009397,12.66133528371239,-0.031489437944557434,1.6808807074410572,-0.4871725394494732
2.0712554594935826,12.344618367927119,-0.030821690553941017,1.6529815639828547,-0.47157305634548274
2.0654618932371407,12.033147049054804,-0.030163217408603088,1.625663897830981,-0.4565333738933564
2.0597925287322396,11.72681289432856,-0.02951430369561982,1.5989061519189447,-0.4420235800631812
2.054245528495736,11.425511469203514,-0.028875172478104054,1.5726877967657433,-0.42801592706676816
2.048819017793828,11.129142147930036,-0.028245992805136087,1.5469892692708649,-0.41448464133758445
2.0435110942306274,10.83760793534504,-0.027626886807500365,1.5217919158343565,-0.40140575287995384
2.0383198360724273,10.550815299093173,-0.027017935910396477,1.497077939448441,-0.3887569417654938
2.0332478993625283,10.268674437988796,-0.026370871562226315,1.4728258616502572,-0.37521557477799766
2.0282974002849086,9.991098680303772,-0.025739645044294917,1.4490242192447245,-0.36226896224031435
2.023465358026948,9.718003918550767,-0.025123957671082,1.4256574834184823,-0.3498841376700238
2.018748849897552,9.449308931087117,-0.024523496322563083,1.4027108056725843,-0.3380303074566553
2.0141450137473624,9.184935256414953,-0.023937936837324546,1.3801699803501861,-0.3266786848317766
2.009651049788971,8.924807074368566,-0.023366946935218028,1.3580214096117638,-0.31580233821915155
2.005264221900755,8.668851093741544,-0.02281018873020877,1.3362520706726615,-0.30537605257573247
2.000981858487199,8.416996445939944,-0.02226732088617333,1.3148494851336452,-0.29537620248205426
1.9968013529591635,8.169174584278544,-0.021738000461568863,1.293801690249503,-0.28578063587125974
1.9927201638894314,7.925319188565435,-0.02122188448297874,1.273097211993735,-0.27656856740165353
1.9887358148917196,7.685366074646062,-0.020718631282409236,1.2527250397891563,-0.2677204805802207
1.9848458942651583,7.449253108601525,-0.020227901628760193,1.2326746027849353,-0.25921803783556435
1.9810480544408238,7.2169201253177775,-0.019749359680025134,1.2129357475702902,-0.2510439978196117
1.977340011262177,6.98830885116233,-0.019282673779413742,1.1934987172239069,-0.243182139289433
1.9737195431271448,6.763362830523473,-0.018827517115662898,1.1743541316061719,-0.23561719098466558
1.9701844900159577,6.5420273559840645,-0.01838356826525326,1.155492968808638,-0.22833476697326396
1.9667327524257163,6.32424940191747,-0.017950511632025764,1.1369065476818172,-0.2213213069894163
1.9633622902298873,6.109977561307691,-0.017528037797753315,1.1185865113684932,-0.21456402133317537
1.9600711214785254,5.89916198560903,-0.01711584379552958,1.100524811775312,-0.2080508399422778
1.9568573211528961,5.691754327472928,-0.016713633316357248,1.0827136949205067,-0.20177036528330247
1.95371901988633,5.487707686180954,-0.016321116858024322,1.0651456871002738,-0.19571182874222923
1.9506544026615162,5.286976555633473,-0.01593801182422486,1.047813581820586,-0.18986505022401923
1.9476617074930305,5.089516774753228,-0.015564042580889573,1.0307104274451537,-0.1842204006974182
1.9447392241026427,4.895285480172124,-0.015198940475823325,1.0138295155138295,-0.1787687674451081
1.9418852925938759,4.704241061077848,-0.014842443826985614,0.9971643696890624,-0.17350152180089
1.9391013278808868,4.516538566647039,-0.014462447888686518,0.9786513611615756,-0.20916509798828595
1.936385929883988,4.3323434689384825,-0.01412068892077599,0.9602444041916444,-0.2461768351556178
1.9337319294560282,4.151635878153144,-0.013816157689327478,0.9419407619698329,-0.28443548298296417
1.9311323528282507,3.9743964146457174,-0.013547806813593683,0.9237378012662378,-0.3238415677553643
1.9285804284371288,3.800606189546592,-0.013314555198215778,0.9056329892508552,-0.36429717433072717
1.926069592949123,3.630246785954885,-0.013115292043951218,0.8876238906618499,-0.4057057305049549
1.9235934965608787,3.4633002406368227,-0.012948880463882123,0.8697081653177366,-0.44797179285943306
1.9211460076475422,3.299749026164296,-0.012814160729134412,0.8518835659720033,-0.49100083316163284
1.91872121682757,3.13957603342838,-0.0127099531653097,0.8341479365113348,-0.5346990243677118
1.9163134405086477,2.9827645544621717,-0.012635060718082132,0.8164992105013745,-0.5789730252462597
1.9139172239760769,2.8292982655062815,-0.012588271203715237,0.7989354100869255,-0.623729762604182
1.9115273440822538,2.679161210248637,-0.012568359257583058,0.7814546452566904,-0.6688762100485168
1.909138811593628,2.5323377831680673,-0.012574087991108013,0.7640551134861366,-0.7143191621610048
1.9067468732498143,2.388812712908173,-0.012604210364826302,0.7467350997758953,-0.7599650028946087
1.9043470135883154,2.2485710456042654,-0.012657470282529603,0.7294929771073465,-0.8057194669219399
1.9019349565876604,2.1115981280815994,-0.012732603408576373,0.7123272073417677,-0.8514873925735582
1.899506667181635,1.977879590837631,-0.0128283377074816,0.6952363425947264,-0.8971724648981277
1.8970583526977587,1.8474013307144084,-0.01294339370174116,0.6782190271233901,-0.9426769472550153
1.8945864642742474,1.720149493159422,-0.013076484440482962,0.6612739997712103,-0.9879013997115761
1.8920876983114496,1.5961104539640516,-0.013226315167913874,0.6444000970221754,-1.0327443823603897
1.8895589980162213,1.4752708003580075,-0.013391582676595558,0.6275962567256579,-1.0771021414942954
1.8869975551009488,1.3576173113255834,-0.013570974326273794,0.6108615225630142,-1.1208682763773556
1.8844008117030502,1.2431369369949152,-0.013763166704237105,0.5941950493387372,-1.163933384125943
1.8817664625958457,1.1318167769344605,-0.01396682389791491,0.5775961091923689,-1.2061846799642089
1.879092457767811,1.023644057171115,-0.01418059534455648,0.5610640988428479,-1.2475055898406706
1.8763770054545335,0.9186061057215369,-0.014403113216260609,0.5445985479948292,-1.2877753120864588
1.8736185757163208,0.8166903264015986,-0.014632989291239523,0.5281991290571526,-1.3268683444606515
1.8708159046645356,0.7178841706481585,-0.01486881125386926,0.5118656683474833,-1.3646539725651674
1.867967999451536,0.6221751070516035,-0.015109138356653482,0.4955981589846873,-1.4009957152241155
1.865074144152833,0.5295505882563454,-0.015352496366534685,0.4793967757022441,-1.4357507220167487
1.8621339066859588,0.4399980148386433,-0.015597371705823019,0.46326189185249667,-1.4687691177405549
1.8591471469289127,0.35350469571589116,-0.015842204684137533,0.44719409891332573,-1.4998932881800662
1.856114026222241,0.2700578045777675,-0.01608538170187772,0.4311942288563919,-1.5289571011968834
1.8530350184632494,0.18964433175638362,-0.016325226287508314,0.4152633797897506,-1.5557850568820515
1.8499109230289958,0.1122510308683502,-0.01655998880989897,0.3994029453474287,-1.5801913603911124
1.846742879797215,0.03786435946577171,-0.016787834682529233,0.38361464836395376,-1.601978911216354
1.843532386571837,-0.03352958717573529,-0.017006830847766243,0.367900579441391,-1.620938203190593
1.8402813192632212,-0.10194515012594962,-0.017214930295558158,0.3522632410872057,-1.636846130685107
1.836991955223775,-0.1673971898551727,-0.01740995433019117,0.33670559816776074,-1.6494646985896944
1.8336670001987618,-0.22990117955124134,-0.01758957224889442,0.32123113547507554,-1.6585396372297692
1.830309619421938,-0.2894733101280309,-0.017751278033462613,0.3058439232279483,-1.6637989290979567
1.8269234734691269,-0.3461306085079201,-0.01789236357507525,0.29054869129721983,-1.6649512632092809
1.823512759584304,-0.39989107089887455,-0.01800988784411322,0.27535091281810326,-1.6616844465854792
1.8200822593188106,-0.4507738128853376,-0.018100641266344013,0.26025689756569936,-1.65366382313532
1.8166373934852396,-0.49879923817167793,-0.018161104350191182,0.24527389492211382,-1.640530781426708
1.8131842856397389,-0.5439892276925988,-0.018187399286658714,0.23041020529810793,-1.6219014795741844
1.809729835596615,-0.5863673504344149,-0.01817523274622638,0.21567529724733986,-1.5973659851139976
1.806281804891145,-0.6259590965345225,-0.018119827311350995,0.20107992485908427,-1.5664881311942631
1.8028489167136532,-0.6627921317956833,-0.018015837714877966,0.18663623578469998,-1.5288065434606555
1.7994409737633372,-0.6968965702909387,-0.017857245972660404,0.17235785363904085,-1.483837517110091
1.7960689989222953,-0.7283052576840561,-0.017637226038305587,0.15825990839379145,-1.4310807514340387
1.7927454059818975,-0.7570540514438377,-0.01734796280798925,0.14435897328814842,-1.3700294188751754
1.7894842114640497,-0.7831820741946132,-0.016980400537776476,0.13067284514105446,-1.300186699408441
1.7863013048806888,-0.8067319016892611,-0.016523879287073145,0.11722007585524932,-1.221091774329646
1.7832148052594825,-0.8277496260948283,-0.01596559040983505,0.10401912841386873,-1.1323592988566291
1.780245549228916,-0.8462847084257987,-0.015289736227705594,0.09108700138580562,-1.0337373041579845
1.7774177849540762,-0.8623895050101211,-0.014476203507450797,0.0784371731859808,-0.9251885598960137
1.7747601941760789,-0.8761183358924924,-0.013498436260940749,0.06607683610211372,-0.8069978726948894
1.7723074445952842,-0.887525993793453,-0.012319980379002823,0.05400377338171644,-0.679899134796639
1.7701026157800976,-0.8966657456651674,-0.010888743991381985,0.042204141057364065,-0.5451961891455818
1.7682011342780553,-0.9035872909931228,-0.00912685076696133,0.03065423081586286,-0.4048181287410978
1.7666776726740716,-0.908336070676782,-0.006909587169707002,0.019332923748985438,-0.2612130834940949
1.7656408221023028,-0.9109577716115353,-0.004004629375227814,0.008263928195770428,-0.11697819876782226
