x,y,v_x,v_y,omega
2.375,32.48,0.0,3.846153846153846,-5.183673469387755
2.3737692059026836,31.796571814336744,-0.013675489970181521,3.747492661215623,-4.814891133351679
2.370277850903663,31.13049573466607,-0.02511734335227349,3.6533526684585254,-4.485699110680181
2.3648963626402035,30.480987461383016,-0.03467697068616052,3.563405923575402,-4.190627823144482
2.357937302925418,29.847318768428536,-0.04264591503368162,3.477357331474399,-3.925097599098527
2.3496651360500986,29.22881198335206,-0.04926705024764259,3.3949402804864532,-3.6852543399699136
2.340304188186176,28.624835186179684,-0.05474348157372125,3.3159130214288215,-3.4678389763012527
2.330045165055239,28.03479800709468,-0.05924566432557621,3.240055635071219,-3.2700830660246933
2.319050513565362,27.45814792762618,-0.06291713000639218,3.1671674701343746,-3.0896247781766255
2.3074588513690517,26.894367008750407,-0.06587911661927831,3.097064961818625,-2.924440888185682
2.295388641063128,26.342968983673007,-0.06823433122431997,3.029579761263603,-2.772791433482624
2.2829412493316155,25.80349666422663,-0.07007002134804086,2.9645571214739315,-2.633174441814733
2.2702035030444883,25.275519618598942,-0.07146049295336988,2.901854496611506,-2.504288720009952
2.257249832206184,24.758632085086568,-0.07246918302779388,2.8413403201926397,-2.3850031280122157
2.244144072246857,24.252451092176166,-0.0731503720758352,2.7828929343673976,-2.2743310975520163
2.2309409843826318,23.75661475979763,-0.0735506041933323,2.7263996476163417,-2.1714094126745223
2.217687541822344,23.270780760309837,-0.07370986869875312,2.6717559022480013,-2.0754804693955076
2.2044240208479646,22.7946249208416,-0.07366258657213338,2.6188645362879757,-1.9858773878990823
2.191184928770334,22.327839951153315,-0.07343843651264535,2.5676351269151985,-1.9020114732626061
2.177999795096627,21.870134283310755,-0.07306304875077085,2.517983404668789,-1.8233616174290666
2.1648938476588686,21.421231011250907,-0.07255858944654651,2.4698307293295185,-1.7494653118794223
2.151888591724281,20.98086691983322,-0.07194425427108758,2.4231036197558833,-1.679911001616089
2.1390023070661948,20.548791594257175,-0.07123668637431921,2.3777333310890523,-1.6143315600376555
2.1262504754836087,20.124766601827776,-0.07045033120996957,2.333655473682063,-1.552398703664519
2.113646149211357,19.708564738995925,-0.06959773848171617,2.290809668894073,-1.493818197475025
2.1012002689763865,19.299969337415988,-0.06868981968462408,2.249139237549666,-1.4383257273930758
2.088921939061401,18.898773623468777,-0.06773606825965732,2.208590917419317,-1.3856833374499078
2.0768186655809315,18.50478012631168,-0.06674474819000385,2.16911460654847,-1.3356763462809713
2.0648965632133676,18.11780013005255,-0.06572305589403792,2.1306631296640592,-1.2881106716670108
2.053160534830644,17.737653166112047,-0.06467725946955964,2.093192025230449,-1.2428105033828043
2.0416144277967745,17.364166542249386,-0.06361281868454781,2.056659351021335,-1.1996162741514036
2.0302611701443416,16.997174905087952,-0.062534488564706,2.0210255063278924,-1.158382886394151
2.0191028893656364,16.636519833295587,-0.061446408976460754,1.9862530691428302,-1.1189781590199788
2.008141016157164,16.282049458856214,-0.06035218222879183,1.952306646850227,-1.081281463954854
1.997376375120156,15.93361811411921,-0.05925494040462583,1.9191527391164995,-1.0451825266700059
1.9868092641353141,15.591086002534727,-0.058157403871397215,1.886759611822199,-1.0105803687846096
1.9764395238887302,15.254318891180677,-0.05706193220175502,1.8550971810005794,-0.9773823740239103
1.9662665988208996,14.92318782336326,-0.05597056855191939,1.8241369058595915,-0.9455034615124155
1.956289590596049,14.597568849730383,-0.054885078390865406,1.7938516900612704,-0.9148653526596343
1.946507305039964,14.277342776478228,-0.05380698334341388,1.76421579051822,-0.8853959198232537
1.9369182933670206,13.962394929357753,-0.052737590800399824,1.735204733042599,-0.8570286065694451
1.927520888407941,13.652614932301422,-0.051678019856041445,1.7067952342499888,-0.82970191073985
1.9183132364560642,13.347896499592732,-0.050629224053699684,1.678965129179904,-0.803358922719097
1.9092933252693598,13.04813724059327,-0.04959201135412604,1.6516933041474464,-0.7779469123080796
1.900459008696004,12.753238476125123,-0.04856706168315996,1.624959634387536,-0.7534169584737992
1.8918080283314818,12.463105065681695,-0.04755494236708742,1.5987449260949842,-0.7297236169889292
1.8833380325634457,12.177645244708053,-0.04655612172220323,1.5730308625010276,-0.7068246216122217
1.8750465933157978,11.896770471253529,-0.04557098102943964,1.5477999536603522,-0.6846806150102565
1.8669312207646596,11.620395281355368,-0.044599825094319534,1.523035489652552,-0.6632549060950265
1.858989376265213,11.348437152563044,-0.0436428915661977,1.4987214969288143,-0.6425132508616072
1.851223790119096,11.08081743437063,-0.04264139894621191,1.474830927431359,-0.6208890373643754
1.8436364285641451,10.817460105426388,-0.04166261833102066,1.451361616393552,-0.6001766574000514
1.836223235426456,10.558290603070365,-0.040706194309969745,1.4282995208955998,-0.5803274529544079
1.8289802208404509,10.303236839068234,-0.03977174553453357,1.4056311902391774,-0.5612958529140551
1.821903465466521,10.052229095848691,-0.03885886973135359,1.3833437344223936,-0.5430391458783238
1.814989123864514,9.805199928236068,-0.037967148068725365,1.3614247946067497,-0.5255172719317728
1.808233427132341,9.56208407033277,-0.03709614895541774,1.3398625154299124,-0.5086926316114184
1.8016326849056696,9.322818347231351,-0.036245431340930945,1.3186455190303037,-0.4925299104839902
1.7951832868029853,9.087341591259172,-0.03541454757778199,1.2977628806605634,-0.47699591790945034
1.788881703390077,8.855594562479794,-0.03460304589897716,1.2772041057769672,-0.462059438710118
1.782724486729008,8.627519873194778,-0.03381047255734612,1.2569591085009977,-0.44769109659215844
1.7767082705687498,8.403061916207509,-0.03303637366774488,1.2370181913575558,-0.43386322827978513
1.7708297702277167,8.182166796627161,-0.032280296788178404,1.2173720262018468,-0.42054976742390615
1.7650857822123407,7.9647822670061466,-0.03154179227155418,1.1980116362538604,-0.4077261374375455
1.7594731836104631,7.7508576656183905,-0.03082041441597611,1.1789283791656362,-0.3953691524914199
1.7539889312935915,7.54034385769878,-0.030115722438153816,1.1601139310522468,-0.3834569259756511
1.7486300609579157,7.333193179476037,-0.02942728129157645,1.1415602714226678,-0.3719687857986851
1.743393686030306,7.129359384842363,-0.02875466234852984,1.1232596689515042,-0.36088519595292373
1.7382769964622886,6.928797594513405,-0.028097443962776927,1.105204668036933,-0.3501876838290796
1.7332772574321424,6.731464247541599,-0.027455211927734313,1.0873880760942518,-0.3398587728084983
1.7283918079727558,6.537317055054686,-0.02682755984322891,1.0698029515381176,-0.3298819197052232
1.7236180595406512,6.346314956099359,-0.02621408940237819,1.05244259240995,-0.3202414566679161
1.718953494539647,6.158418075477556,-0.025614410608780048,1.0353005256100978,-0.31092253718633756
1.7143956648108867,5.973587683469898,-0.02502814193300118,1.0183704966972273,-0.30191108587833126
1.7099421900994498,5.791786157347342,-0.024454910416296653,1.0016464602200421,-0.2931937517615004
1.7055907565064126,5.61297694457814,-0.023894351728561036,0.9851225705488625,-0.284757864739319
1.7013440597589087,5.437348303060247,-0.023291167688148203,0.9663067796499486,-0.3260434754152513
1.6972016533035572,5.2650974877523105,-0.022735570704645332,0.9475911682160006,-0.36840491070341747
1.6931551208732079,5.096206687482489,-0.022225900743683212,0.9289732792264473,-0.4117434315507363
1.6891963451445213,4.930658524736785,-0.021760496241722785,0.9104507512813778,-0.45596150995929285
1.6853175078347236,4.768436038643227,-0.021337696089362417,0.8920213164248413,-0.5009626111366949
1.681511089466095,4.609522668316892,-0.020955841339843493,0.8736827983121955,-0.5466509757905629
1.6777698688463498,4.4539022365035805,-0.020613276657326013,0.8554331107245823,-0.5929314015812502
1.674086922310646,4.301558933459081,-0.02030835151715984,0.8372702564365131,-0.6397090227147488
1.6704556227689773,4.152477300999685,-0.020039421168049135,0.8191923264456583,-0.6868890866168428
1.6668696386011221,4.006642216657617,-0.01980484736367321,0.801197499577307,-0.7343767265792925
1.663322932440185,3.864038877872492,-0.01960299886896122,0.7832840424796519,-0.7820767292084142
1.6598097598850372,3.7246527861466134,-0.019432251743793864,0.7654503100301151,-0.829893295435006
1.6563246681817003,3.588469731087933,-0.019290989404393815,0.7476947461774451,-0.877729793761179
1.6528624949139015,3.455475774259522,-0.019177602460036268,0.7300158852493549,-0.9254885043231689
1.6494183667437046,3.325657232748579,-0.019090488319927993,0.7124123537611412,-0.9730703522383962
1.6459876982443196,3.1990006623610334,-0.01902805056212937,0.6948828727671259,-1.0203746285785469
1.642566190868941,3.0754928403396313,-0.018988698053187664,0.677426260804026,-1.0672986971667753
1.6391498321018245,2.9551207474937407,-0.018970843803664563,0.660041437483633,-1.1137376852347125
1.6357348948408115,2.837871549618068,-0.018972903540924447,0.6427274278016331,-1.1595841557921405
1.6323179370642573,2.7237325780643005,-0.018993293976343827,0.6254833672402309,-1.2047277593573145
1.6288958018398367,2.6126913093147586,-0.019030430739440336,0.6083085077546693,-1.2490548624674125
1.6254656177381266,2.504735343389516,-0.019082725946227123,0.5912022247480335,-1.2924481501350829
1.6220247997202701,2.3998523808982277,-0.019148585363290314,0.57416402515519,-1.3347861991376462
1.618571050576543,2.298030198524451,-0.01922640512256666,0.5571935567756684,-1.3759430187199417
1.615102363001411,2.1992566227030963,-0.01931456793445462,0.540290619017145,-1.4157875549610919
1.6116170224008362,2.1035195012202834,-0.01941143873859735,0.523455175236342,-1.4541831547023627
1.6081136105393572,2.010806672428636,-0.019515359722282716,0.5066873668930757,-1.490986984563408
1.604591010148035,1.9211059317292865,-0.019624644625740414,0.4899875297663616,-1.526049400197187
1.6010484106299856,1.8344049949235703,-0.01973757224147557,0.4733562125193813,-1.559213260565567
1.5974853150181703,1.7506914579819401,-0.01985237900091587,0.45679419794317766,-1.5903131816828475
1.593901548360769,1.6699527527138827,-0.019967250525764573,0.44030252725747676,-1.6191747240110113
1.5902972677331653,1.5921760977496113,-0.020080312003166442,0.42388252790110836,-1.645613507555386
1.5866729741028447,1.5173484441611755,-0.020189617222618958,0.40753584530374115,-1.669434248787169
1.583029526304903,1.4454564149563822,-0.02029313608784394,0.39126447919395174,-1.6904297139349163
1.5793681574221066,1.3764862375731965,-0.020388740387672695,0.37507082506366735,-1.7083795841241955
1.5756904939054568,1.3104236683850345,-0.020474187575101232,0.3589577214714509,-1.7230492295722895
1.571998577820195,1.2472539080998502,-0.02054710226113913,0.3429285039194997,-1.7341883929571131
1.5682948926597606,1.1869615068008628,-0.02060495507702296,0.3269870660692603,-1.7415297867531776
1.5645823932387,1.1295302572402868,-0.020645038490317822,0.3111379290482373,-1.7447876166073668
1.5608645402582435,1.0749430748696795,-0.02066443907030757,0.2953863195140695,-1.7436560539523496
1.5571453402402113,1.0231818629896061,-0.020660005574495436,0.27973825693119914,-1.7378076978439676
1.5534293916537836,0.9742273613565793,-0.020628312052479704,0.2642006501024328,-1.7268920911319632
1.5497219382275673,0.9280589766438005,-0.0205656149054783,0.24878140226177836,-1.7105343934539075
1.5460289306656767,0.8846545933890297,-0.02046780244886363,0.2334895227912205,-1.6883343689323633
1.5423570983027508,0.8439903645945428,-0.0203303349169775,0.21833524159195258,-1.659865928253238
1.5387140326907618,0.8060404821502765,-0.02014817188290005,0.20333011889989955,-1.6246775851643465
1.535108285796042,0.7707769290049775,-0.019915682502876977,0.1884871382700993,-1.582294363673298
1.5315494865416492,0.7381692179184896,-0.019626531434819235,0.17382076269088426,-1.5322219483115853
1.5280484810982262,0.7081841262820987,-0.019273529047661473,0.1593469221578952,-1.473954237219372
1.5246175050087176,0.6807854437145693,-0.01884842750243138,0.1450828841479802,-1.4069859734796961
1.5212703996021828,0.6559337599851567,-0.018341632570179952,0.1310469350677313,-1.3308328265788407
1.518022892327496,0.6335863364302696,-0.017741781593005306,0.11725777109767742,-1.2450621706923095
1.514892972452756,0.6136971251241512,-0.01703510590410568,0.10373346563698431,-1.1493387455278559
1.511901412989753,0.5962170254426269,-0.01620444368481769,0.0904898641577235,-1.0434899900670331
1.5090725214325091,0.5810944908402931,-0.01522768472900174,0.07753829809043722,-0.9275950863861924
1.506435253634768,0.5682766009992335,-0.014075290801453744,0.06488270014353875,-0.8020974565173251
1.5040249111916313,0.5577106534570433,-0.012706291900068434,0.05251671699190684,-0.6679288587412427
1.5018857988810481,0.5493461223210865,-0.011061622661966843,0.04042251785205049,-0.5266100932824593
1.5000755699426114,0.5431363382562218,-0.009052032209551385,0.02857508286868194,-0.3802596104136797
1.49867308092896,0.5390381558162893,-0.0065311790532432724,0.01696027757499695,-0.23141396348238966
1.4977966278805581,0.537004550657251,-0.003207188151220721,0.00563533530321237,-0.0825795758691023
