x,y,v_x,v_y,omega
2.375,32.48,0.0,3.435897435897436,-2.8571428571428577
2.3742455814000594,31.80158387624703,-0.007544185999404532,3.3482638016322475,-2.6551572796195058
2.372105687129284,31.140300472452157,-0.013854756708349944,3.2645702363164735,-2.4746842342880537
2.3688076455113385,30.495389370715134,-0.01912565947110715,3.18454078105373,-2.3127749740722607
2.3645432895376968,29.866142756924205,-0.023517900265308245,3.10792535685559,-2.166955839379421
2.3594749334187304,29.251900554479235,-0.027165660924355538,3.034496667594102,-2.035141705570504
2.3537402494569686,28.65204613136789,-0.03018117869326148,2.9640475635193724,-1.9155668914582662
2.34745626564655,28.066002496825554,-0.03265865941092774,2.896388781903979,-1.8067296794629621
2.3407226565542585,27.493228918699582,-0.03467743151198368,2.8313469993557288,-1.7073475169773136
2.3336244633828187,26.93321790437956,-0.03630450020241669,2.768763143844473,-1.61632065144219
2.3262343508456595,26.385492497518463,-0.03759662516917444,2.708490924766531,-1.5327024634683521
2.318614486538777,25.849603850312832,-0.038602017899649815,2.6503955472897744,-1.4556751489118513
2.310818111362578,25.325129037244334,-0.039361733862339106,2.594352583395179,-1.384529694887645
2.302890856095954,24.811669081215477,-0.0399108188039075,2.5402469768934024,-1.318649319931336
2.2948718486098265,24.308847167169784,-0.0402792560573633,2.4879721635635303,-1.2574957221075547
2.2867946477889727,23.81630702174675,-0.04049275215117656,2.4374292906668162,-1.2005976134543244
2.2786880335232396,23.333711440419833,-0.040573390506154834,2.388526522602351,-1.1475411240972146
2.2705766767609807,22.860740946007347,-0.04054017711642962,2.3411784215224936,-1.0979617416345078
2.2624817093028913,22.397092564514022,-0.040409497464465705,2.2953053934107555,-1.051537516214299
2.254421209532617,21.94247870602115,-0.04019550023827902,2.2508331915180033,-1.0079833130453244
2.2464106174598744,21.496626139848175,-0.03991042048914427,2.2076924702117413,-0.967045934905402
2.238463090158276,21.059275054500745,-0.03956485252684098,2.165818383262566,-0.9284999698269167
2.2305898068084673,20.630178194033803,-0.03916798097124779,2.125150221406809,-0.8921442453087343
2.2228002310246855,20.20910006342185,-0.03872777686656906,2.0856310847127317,-0.8577987914881345
2.2151023368838274,19.795816196364413,-0.03825116454200978,2.0472075858616208,-0.8253022327600881
2.207502804038506,19.39011247968299,-0.037744163911209744,2.0098295809525992,-0.7945095411772557
2.2000071864378,18.9917845291012,-0.037212012095847416,1.9734499248653385,-0.7652900962469391
2.192620058468214,18.600637111756676,-0.03665926760001321,1.9380242485798935,-0.7375260049678078
2.1853451417359766,18.21648361128197,-0.03608989972235731,1.9035107561671625,-0.7111106435200336
2.178185415218769,17.839145531721762,-0.035507365449719934,1.8698700394349321,-0.6859473882551195
2.1711432111027276,17.468452036933307,-0.034914675710694634,1.8370649084496038,-0.6619485087790915
2.1642202982750818,17.104239522452552,-0.03431445256576242,1.8050602363579662,-0.6390342001869397
2.1574179551524497,16.746351217105627,-0.03370897866055811,1.773822817111285,-0.6171317350493583
2.1507370332802873,16.394636811909564,-0.03310024006106894,1.743321234849322,-0.5961747187054112
2.144178012932529,16.048952114040844,-0.03248996341651188,1.7135257438378575,-0.576102433882116
2.1377410517657647,15.709158723859801,-0.03187964825113098,1.6844081579725667,-0.5568592627294704
2.131426027434132,15.37512373316585,-0.03127059506519587,1.6559417489669557,-0.5383941760965374
2.1252325749452132,15.046719443025712,-0.03066392982399196,1.6281011524344422,-0.5206602813374476
2.11916011942999,14.723823099666646,-0.030060625328243225,1.600862281156219,-0.5036144211718231
2.1132079049084185,14.406316647061157,-0.029461519887472296,1.5742022448986546,-0.48721681717014825
2.1073750195539667,14.094086494950503,-0.02886733365704164,1.5480992762078982,-0.4714307523221964
2.1016604178934437,13.787023301163103,-0.02827868294818917,1.5225326616660826,-0.456222287901529
2.09606294032095,13.4850217671821,-0.02769609277675074,1.497482678143954,-0.4415600104825827
2.0905875260918227,13.187980975014966,-0.027058049514520274,1.4729252435273823,-0.42566586954346536
2.0852383764564153,12.895803643718416,-0.02643344683955348,1.448848069438106,-0.41049860594115767
2.0800128053733253,12.6083954327277,-0.025822263991346697,1.4252340404690356,-0.3960163791238126
2.0749081353739847,12.325665346601845,-0.025224436002061514,1.4020668207895375,-0.38218021302587196
2.069921705737247,12.047525583561693,-0.02463986036531144,1.379330809611977,-0.3689537688718443
2.0650508794152627,11.773891392632777,-0.02406840285453512,1.3570110996771847,-0.35630313839738137
2.0602930488699664,11.504680938812879,-0.023509902598423643,1.335093438521805,-0.34419665544193484
2.0556456409594404,11.23981517572954,-0.022964176506839382,1.3135641923115844,-0.33260472409290887
2.051106120995901,10.979217725294014,-0.02243102312855176,1.2924103120436594,-0.32149966175974093
2.0466719960818813,10.722814763895844,-0.021910226011645845,1.2716193019380388,-0.3108555557312664
2.042340817817877,10.470534914716644,-0.021401556628398245,1.2511791898539457,-0.30064813192407924
2.038110184463181,10.222309145773185,-0.02090477691856291,1.2310784995806663,-0.29085463466600814
2.033977742621505,9.978070673328599,-0.02041964149819724,1.2113062248652096,-0.28145371647953854
2.029941188514161,9.737754870337024,-0.019945899575242367,1.1918518050505464,-0.27242533693697907
2.0259982688958442,9.50129917961111,-0.019483296607926803,1.172705102208592,-0.2637506697540882
2.022146781661293,9.268643031424094,-0.01903157573758453,1.1538563796615444,-0.25541201737320984
2.0183845761851766,9.039727765278563,-0.01859047902357673,1.1352962817937688,-0.2473927323619936
2.014709553432359,8.814496555592765,-0.018159748504602898,1.1170158150642289,-0.23967714502060292
2.011119665871127,8.592894341072686,-0.017739127107715746,1.099006330136578,-0.23225049664991784
2.0076129172179797,8.374867757553979,-0.017328359423757815,1.0812595050505116,-0.22509887798645656
2.0041873620390374,8.160365074112537,-0.016927192365666397,1.0637673293638932,-0.2182091723573155
2.00084110523006,7.949336132256089,-0.016535375724105347,1.0465220892005798,-0.2115690031510081
1.9975723013943354,7.741732288021652,-0.016152662633140302,1.0295163531438105,-0.20516668523823314
1.9943791541353066,7.537506356815317,-0.01577880995714643,1.0127429589195471,-0.19899118001082575
1.9912599152787123,7.336612560841534,-0.01541357860879743,0.9961950008182974,-0.19303205373787374
1.9882158747351224,7.1391752030015105,-0.015026826827102898,0.9781785775819232,-0.22074528984571753
1.985245824176992,6.945330076954498,-0.014673678754201573,0.9602726828882109,-0.25006997087412
1.9823430998188254,6.755055373491292,-0.014353564827464681,0.9424743517438614,-0.28090089475957597
1.979501158408317,6.568329865114876,-0.014065849277616869,0.9247807320203063,-0.31313520128956673
1.976713589827218,6.385132883879088,-0.013809836533374881,0.9071890803375882,-0.3466721472687314
1.9739741284659276,6.2054443000135855,-0.013584777079529412,0.8896967583174339,-0.38141288638462023
1.9712766634773582,6.0292445012623155,-0.013389872806163071,0.8723012291952726,-0.41726025288005597
1.9686152480084191,5.856514372864456,-0.01322428188322737,0.855000054783324,-0.4541185481425028
1.965984107500955,5.687235278108197,-0.013087123191414913,0.837790892779282,-0.4918933293176506
1.9633776471481001,5.5213890393885094,-0.012977480337132708,0.8206714944175857,-0.5304911990444675
1.9607904585867486,5.358957919700469,-0.012894405276382546,0.8036397024628174,-0.56981959539196
1.9582173259021645,5.199924604499444,-0.012836921569458658,0.7866934495474494,-0.6097865810534414
1.955653231016663,5.044272183858798,-0.01280402728555566,0.7698307568589987,-0.6503006308217908
1.953093358530746,4.891984134854429,-0.012794697573614672,0.7530497331846946,-0.6912704163284363
1.950533100082085,4.743044304103453,-0.012807886912995682,0.7363485743250596,-0.7326045869789737
1.9479680582853032,4.5974368903818075,-0.012842531054821658,0.7197255628914092,-0.7742115459586766
1.9453940503136145,4.455146427242042,-0.012897548662065265,0.7031790685062447,-0.8159992201108094
1.9428071111820469,4.316157765548425,-0.012971842653610923,0.6867075484299225,-0.8578748224086195
1.940203496791227,4.1804560558412405,-0.013064301254589865,0.6703095486419123,-0.8997446056470666
1.9375796867905462,4.048026730436,-0.013173798752217239,0.6539837054104951,-0.9415136058714912
1.9349323873200126,3.9188554851558486,-0.013299195953118254,0.6377287473910207,-0.9830853739361783
1.9322585336912337,3.792928260586752,-0.013439340334670919,0.6215434982999487,-1.0243616934446502
1.9295552930698499,3.670231222734756,-0.013593065879167096,0.6054268802200071,-1.065242283163944
1.9268200672243785,3.5507507429526477,-0.013759192575547058,0.5893779176010665,-1.1056244818254608
1.9240504954099205,3.434473376989345,-0.013936525569034037,0.573395742031956,-1.1454029130235437
1.9212444574596055,3.321385842999085,-0.014123853934115842,0.5574795978706569,-1.1844691276982264
1.9184000771621026,3.2114749983285833,-0.014319949040912196,0.5416288488343677,-1.2227112214392024
1.9155157260101172,3.1047278148784336,-0.014523562478940785,0.5258429856671316,-1.2600134235731542
1.9125900274126681,3.0011313528095798,-0.01473342349555107,0.5101216350214064,-1.29625565469596
1.9096218614732412,2.9006727323362895,-0.014948235898717155,0.4944645697114975,-1.331313048986069
1.906610370446836,2.803339103312979,-0.015166674365336452,0.4788717205216137,-1.365055437288437
1.9035549650016508,2.709117612282828,-0.015387380086515164,0.46334318977988037,-1.3973467865957165
1.9004553314259638,2.6179953666105966,-0.01560895567035431,0.4478792669424438,-1.4280445911850048
1.8973114399379016,2.5299593952694224,-0.015829959210267273,0.43248044646929135,-1.4569992103109057
1.8941235542756143,2.444996605790891,-0.016048897412604714,0.41714744831601597,-1.484053147034821
1.890892242768252,2.3630937368179126,-0.01626421766101932,0.40188124141375037,-1.50904026252582
1.8876183911145326,2.2842373056202447,-0.016474298876174576,0.3866830705629148,-1.5317849200597418
1.8843032171261578,2.208413549841474,-0.01667744100757359,0.3715544872248046,-1.5521010530591193
1.8809482877285237,2.1356083626432785,-0.016871852968767517,0.3564973847571451,-1.5697911519884102
1.8775555385519427,2.065807220297266,-0.01705563879704283,0.34151403870298586,-1.58464516594039
1.8741272964939872,1.9989951011467681,-0.017226781782512624,0.3266071528020068,-1.5964393166047712
1.8706663056890038,1.93515639472243,-0.01738312626731974,0.3117799114413918,-1.6049348254167806
1.8671757573862413,1.874274799649637,-0.01752235676030641,0.29703603928652705,-1.6098765596547204
1.8636593243160915,1.8163332088401596,-0.01764197394119174,0.2823798688082443,-1.6109916109925722
1.8601212002186376,1.7613135803274709,-0.01773926703334617,0.26781641631863906,-1.6079878318419665
1.8565661453259783,1.7091967920068782,-0.01781128189324706,0.2533514668872755,-1.6005523726893478
1.8529995387389224,1.6599624785132576,-0.017854783977312487,0.2389916680489391,-1.5883502904251738
1.8494274388342506,1.613588848568206,-0.017866215069403783,0.22474463140156398,-1.5710233376093732
1.8458566531044363,1.570052481445373,-0.017841642228740573,0.21061903982674918,-1.548189101948462
1.8422948192061601,1.5293281018788,-0.0177766967540231,0.1966247558389755,-1.519440753081024
1.8387504995411497,1.4913883339924041,-0.017666499896079844,0.18277292302499293,-1.4843477832611522
1.8352332925196588,1.4562034369896644,-0.01750557031882798,0.16907604700241613,-1.442458318422346
1.8317539649428076,1.423741028902871,-0.017287705449683704,0.15554803386552635,-1.3933038521211236
1.828324611987643,1.3939658103699237,-0.01700582410196113,0.1422041514639511,-1.3364076501294937
1.8249588545984121,1.3668393091551465,-0.01665174979034813,0.1290608606838256,-1.271298625092628
1.8216720895367857,1.3423196791682983,-0.01621590082591643,0.11613543918466901,-1.197533215715306
1.818481816352671,1.320361606264683,-0.015686831015230437,0.10344528985147163,-1.1147286998729056
1.8154080804603638,1.3009163975055884,-0.015050527907843088,0.09100679773949166,-1.0226122523892904
1.8124740961617287,1.283932358246652,-0.014289315078507553,0.07883359484987104,-0.9210903854725394
1.809707154021004,1.2693555820949989,-0.013380106328739465,0.06693416666664918,-0.8103418675046026
1.8071399839487523,1.2571312650892388,-0.012291594393776369,0.055309003390959434,-0.6909311445090061
1.8048128601587052,1.2472055480978383,-0.010979643506693258,0.04394816652306258,-0.5639245221864103
1.802776957934896,1.2395275803945758,-0.009379378731399117,0.032831510509547274,-0.43096447681984795
1.8011000393846266,1.2340507865670318,-0.007389806771296245,0.0219364277658798,-0.2942236031408183
1.7998775920670789,1.2307306323359768,-0.0048346664041804795,0.011265114544654618,-0.1561428228870527
1.7992644709486534,1.2295089584225707,-0.0012965447800732804,0.0009516245894184532,-0.01891806382675354
