x,y,v_x,v_y,omega
2.375,32.48,0.0,2.1538461538461537,-6.8979591836734695
2.3738635349713406,32.03212815516002,-0.010823476463421522,2.111599987486991,-6.558556434181307
2.370586598898104,31.592984765742898,-0.020385438519784874,2.070718006961743,-6.243447502143264
2.3654195249938317,31.162291762143756,-0.028824789139950988,2.031120122553916,-5.950297701160378
2.35858526410368,30.739787147186394,-0.036263409813875845,1.992733353230489,-5.677046133740267
2.3502827077735544,30.32522359581358,-0.04280855523493945,1.9554909455582246,-5.421867909783872
2.3406895493536983,29.91836722528805,-0.048554858287499364,1.919331630875362,-5.1831424011097695
2.329964757292587,29.51899650954734,-0.05358601848499321,1.8841989952266534,-4.959426429057669
2.3182507210585146,29.1269013161544,-0.05797623136331135,1.8500409418489885,-4.749431509823359
2.3056751192998557,28.741882048102283,-0.061791404433439584,1.8168092300758987,-4.552004457483895
2.292352551237926,28.36374887578517,-0.06509019615636641,1.78445907770614,-4.366110780868002
2.278385965373112,27.99232104690707,-0.06792490731805186,1.7529488163710023,-4.190820417100368
2.263867913997183,27.62742626409133,-0.0703422486431793,1.7222395913979376,-4.025295428837907
2.248881657456968,27.26890012157591,-0.0723840041207717,1.6922950992251058,-3.8687793591368425
2.233502138389302,26.916585593707616,-0.07408760604747641,1.6630813566634344,-3.7205879914420064
2.2177968430771595,26.57033256904157,-0.0754866350205466,1.6345664972988927,-3.5801013053156368
2.2018265645327717,26.229997424756462,-0.0766112558783867,1.6067205911307147,-3.4467564534586543
2.1856460797941217,25.895442636847584,-0.07748859877542276,1.5795154841919368,-3.32004161403664
2.169304752147095,25.566536422187458,-0.07814309310101898,1.5529246554283072,-3.199490595628033
2.1528470674937124,25.243152409070273,-0.07859676074072502,1.526923088544874,-3.084678091291316
2.1363131128271147,24.925169333300083,-0.07886947417925003,1.5014871568855201,-2.9752154941052944
2.1197390037060284,24.612470757258134,-0.07897918411680989,1.4765945197044672,-2.8707471997050495
2.103182781968241,24.304955266329305,-0.07869911814783102,1.4521244415224817,-2.76466956532268
2.0866958420392487,24.002525255538337,-0.07831935736638192,1.4281613755343712,-2.663623506347792
2.070297959906079,23.705076272691528,-0.07785094866380415,1.4046860801495236,-2.567308581033859
2.0540067040717824,23.41250780483292,-0.07730386880568765,1.3816802804086243,-2.475445753327283
2.0378376491264896,23.12472308187276,-0.07668713067329215,1.359126604926256,-2.38777561830133
2.0218045681907615,22.841628892922543,-0.0760088782384051,1.3370085279329063,-2.304056795426807
2.005919606461293,22.563135414318182,-0.07527647156605605,1.3153103159181567,-2.224064471807397
1.9901934378342478,22.2891560484112,-0.07449656297723307,1.2940169784340423,-2.147589079629601
1.9746354063584424,22.019607272295566,-0.07367516536377054,1.2731142226672543,-2.074435093920388
1.9592536540749603,21.75440849571513,-0.07281771352653403,1.2525884114321377,-2.004419938310256
1.944055236627848,21.493481927465965,-0.07192911930310807,1.2324265242742116,-1.9373729878993944
1.9290462278792169,21.23675244966943,-0.0710138211600444,1.2126161214070181,-1.873134659548653
1.9142318146286477,20.984147499347113,-0.07007582884537664,1.1931453102341305,-1.8115555809893593
1.8996163824189551,20.735596956777993,-0.06911876362788558,1.1740027142336826,-1.7524958310872911
1.885203593306172,20.4910330401629,-0.06814589458909974,1.1551774440052924,-1.6958242444238896
1.870996456379307,20.250390206160937,-0.06716017138104215,1.1366590702991493,-1.641417774087054
1.856997391733589,20.013605055898736,-0.066164253816271,1.118437598864652,-1.5891609072074573
1.8432082885282068,19.780616246085927,-0.06516053861594093,1.1005034469716237,-1.5389451283452695
1.8296305576949354,19.55136440489945,-0.06415118360569137,1.0828474214710337,-1.4906684263359282
1.8162651798064988,19.32579205232616,-0.06313812961751354,1.0654606982745551,-1.4442348406503516
1.8031127485622398,19.10384352467728,-0.06212312032781013,1.0483348031433468,-1.3995540437217648
1.7901735103029166,18.885464903010163,-0.06110772023717254,1.0314615936863503,-1.356540956044235
1.7774473999255807,18.670603945212985,-0.06009333097555154,1.0148332424772601,-1.3151153911623679
1.7649340735329482,18.459210021526108,-0.05908120609713801,0.9984422212072898,-1.2752017279520085
1.7526329381189787,18.251234053290553,-0.05807246451209609,0.9822812857980149,-1.2367286078422137
1.7405526163782103,18.0467996864588,-0.056978218733316585,0.9647126840281736,-1.2316836341033184
1.728698827588637,17.846041408898042,-0.05591500783404719,0.947270911788582,-1.2291204513628204
1.7170650438626782,17.648932976352803,-0.05488293241317911,0.9299522553089387,-1.2289007616094973
1.7056447294000736,17.455448907683564,-0.053881967230673324,0.9127531605885824,-1.230890431108153
1.6944313658093229,17.265564452054015,-0.05291197172885907,0.8956702263595298,-1.2349591764289884
1.6834184753054835,17.07925555753701,-0.051972699736277043,0.8787001976119423,-1.2409802625838244
1.6725996419498648,16.89649884102398,-0.05106380841247506,0.8618399596549853,-1.2488302119867065
1.6619685310853725,16.717271559327813,-0.050184866487449395,0.8450865326894655,-1.2583885230119578
1.6515189071104608,16.541551581373866,-0.04933536184504424,0.8284370668719258,-1.2695373969696035
1.6412446497246993,16.369317361377743,-0.04851470849554025,0.8118888378530698,-1.2821614723566896
1.6311397687698888,16.200547912911635,-0.047722252978847426,0.7954392427765195,-1.2961475652736294
1.6211984177823153,16.035222783763764,-0.04695728023613744,0.7790857967270031,-1.311384414917604
1.6114149063641612,15.87332203149731,-0.04621901898437834,0.762826129620171,-1.327762433080331
1.6017837114751718,15.714826199616606,-0.04550664662504306,0.7466579835293706,-1.3451734565853373
1.5922994877394436,15.55971629424899,-0.04481929371522743,0.730579210447917,-1.3635105016002211
1.582957076856561,15.407973761250641,-0.044156048026510034,0.7145877704887158,-1.3826675187522686
1.573751516201298,15.259580463644038,-0.043515958214090086,0.6986817305265606,-1.402539147961106
1.5646780466916355,15.11451865929308,-0.0428980371160296,0.6828592632920905,-1.4230204718797297
1.5557321200009757,14.972770978719726,-0.042301264699777893,0.6671186469303038,-1.4440067668050875
1.5469094051870915,14.834320402962767,-0.041724590670547755,0.6514582650407238,-1.4653932498812534
1.5382057948075645,14.6991502413753,-0.04116693675351982,0.6358766072208699,-1.487074821371956
1.5296174105892235,14.567244109252442,-0.04062719865925032,0.620372270139662,-1.5089458007246765
1.5211406087174049,14.43858590517463,-0.04010424773902264,0.6049439591728454,-1.5308996550856417
1.5127719848097179,14.313159787944432,-0.039596932334187616,0.5895904906385502,-1.5528287188538479
1.504508378638449,14.190950152986218,-0.03910407882075336,0.574310794677772,-1.5746239027829947
1.4963468786657739,14.071941608067696,-0.03862449234758108,0.559103918831976,-1.596174391053372
1.4882848264566122,13.956118948190621,-0.03815695726348493,0.5439690323782796,-1.6173673246422378
1.4803198210352915,13.843467129484257,-0.037700237225284,0.5289054314918695,-1.6380874692225205
1.4724497232542229,13.733971241919477,-0.03725307497536975,0.5139125453155542,-1.658216865718096
1.4646726602455824,13.627616480643429,-0.03681419177358456,0.4989899430277649,-1.6776344615428296
1.4569870300306258,13.52438811571415,-0.036382286464099134,0.4841373420129812,-1.6962157204551265
1.4493915063657818,13.424271459991267,-0.03595603415346121,0.46935461725255767,-1.713832208877118
1.441885043910215,13.32725183491247,-0.03553408447098374,0.4546418120693115,-1.730351156468163
1.4344668838061718,13.233314533855715,-0.03511505937704618,0.43999915037597725,-1.7456349887205955
1.4271365597713324,13.142444782753696,-0.034697550478569913,0.4254270505956321,-1.7595408293819714
1.4198939048116905,13.05462769758983,-0.03428011580373174,0.41092614144117584,-1.77191997063086
1.4127390586744326,12.96984823836366,-0.03386127597967701,0.39649727976041954,-1.7826173091819615
1.4056724761731014,12.88809115906821,-0.03343950974728589,0.38214157067243876,-1.791470746925808
1.3986949365324073,12.80934095317259,-0.03301324873551667,0.36786039023822636,-1.798310555394427
1.3918075539177677,12.733581794050746,-0.03258087140390977,0.3536554109221947,-1.8029587043923518
1.3850117893356697,12.66079746974263,-0.03214069604464138,0.3395286301074822,-1.8052281566880197
1.3783094641160298,12.590971311379487,-0.0316909727138348,0.32548240192243255,-1.8049221329260259
1.3717027752180218,12.524086114553498,-0.031229873933859318,0.31151947261078305,-1.8018333541762885
1.3651943126379726,12.460124052868913,-0.030755483971370547,0.2976430196233493,-1.7957432741710426
1.3587870792441672,12.399066582885045,-0.030265786445823565,0.2838566945087236,-1.7864213198350496
1.3524845134221863,12.340894339662864,-0.029758649953994708,0.2701646695120379,-1.7736241679384572
1.3462905149906887,12.285587022174347,-0.02923181129836404,0.2565716875214493,-1.7570950986353653
1.3402094749488471,12.233123267953196,-0.028682855766793892,0.24308311458473503,-1.7365634847327371
1.3342463097542117,12.183480516595218,-0.028109193705925146,0.22970499358647747,-1.7117445007441632
1.3284065010207087,12.136634862111364,-0.027508032327436302,0.21644409673591725,-1.6823391708258222
1.3226961417968794,12.092560894774728,-0.02687634123284118,0.20330797313680157,-1.6480349232137825
1.3171219909742669,12.051231534094956,-0.02621080945870768,0.19030498571818036,-1.6085068855927855
1.311691537946409,12.01261785605254,-0.025507790806605642,0.17744432897151186,-1.563420247047728
1.3064130804843785,11.976688919936745,-0.024763232641301737,0.1647360149884525,-1.512434135180719
1.3012958200595808,11.943411603320026,-0.023972580928200583,0.15219080993268405,-1.4552076192453158
1.2963499807488497,11.912750458186878,-0.02313065060257092,0.1398200960972846,-1.3914086572037259
1.2915869607340373,11.884667607344937,-0.022231444776594295,0.12763562620691113,-1.3207270537343483
1.2870195297562859,11.85912270819798,-0.021267897868657754,0.11564912757363154,-1.2428927636510545
1.2826620924360992,11.836073020573792,-0.020231505180738865,0.10387170694242488,-1.1577010906758807
1.2785310471816147,11.815473625399527,-0.01911178295720856,0.09231300900295407,-1.0650463322093915
1.2746452849974093,11.797277848304581,-0.017895475939985306,0.08098010618701103,-0.9649648786621298
1.271026894146505,11.78143793937241,-0.01656538930672242,0.06987616935747143,-0.8576871118362884
1.267702169269137,11.767906033122102,-0.015098657144400743,0.05899912826449226,-0.7436938101778459
1.2647030762887115,11.75663533730362,-0.013464133145366555,0.04834083191152345,-0.623766312390673
1.2620694239150427,11.747581338272504,-0.01161827041338393,0.03788773028957918,-0.4990105460412484
1.259852229497058,11.740702504653544,-0.009497866900756775,0.027624970843366334,-0.37082611169818314
1.2581194904753976,11.735959354665265,-0.007004409496008841,0.017547886187855084,-0.24078966252922057
1.2569685072481243,11.733308915252938,-0.00395733552564133,0.00769439392956635,-0.11043520608664287
