x,y,v_x,v_y,omega
2.375,32.48,0.0,3.846153846153846,-5.428571428571429
2.37371261054361,31.796576021377618,-0.014304327293218675,3.747445916317034,-5.042330473937051
2.3700605853916463,31.13051163899273,-0.02627372995082784,3.6532694435150423,-4.697560355782591
2.3644311634881885,30.48102090348968,-0.036275402309812826,3.5632942842966657,-4.388529725233126
2.3571511190920633,29.847374289459676,-0.04461397986935638,3.4772236493700253,-4.1104404247246
2.3484969683658306,29.22889309583561,-0.0515432504221173,3.394789613119607,-3.8592549241940413
2.338703284645618,28.624944584575182,-0.057275457580247234,3.31574940088512,-3.631559318559131
2.3279695069528166,28.034937732546293,-0.061988739006434514,3.2398822883247678,-3.4244538115994727
2.3164655407155323,27.45831949763188,-0.06583310807449974,3.166986988502029,-3.2354646165412078
2.304336384887137,26.894571519779216,-0.0689352900187802,3.096879432083131,-3.0624726673958502
2.291705970162046,26.3432071927949,-0.0714026513711201,3.0293908677426216,-2.9036556155738644
2.2786803548681522,25.803769054364793,-0.07332640744992532,2.9643662259252417,-2.7574403919255532
2.2653503955289107,25.275826450930083,-0.07478425187497997,2.901662701127066,-2.62246422060381
2.2517939859679514,24.75897344130226,-0.07584252102456457,2.841148516959877,-2.497542431189104
2.238077940648782,24.252826908704712,-0.07655798252176121,2.7827018452350876,-2.3816417673273187
2.2242595835637013,23.757024855620287,-0.07697931842358316,2.7262098557029777,-2.273858161096324
2.210388092553592,23.271224859649358,-0.07714835946651839,2.6715678773073512,-2.173398152402055
2.1965056398049043,22.79510267172794,-0.07710111551889984,2.6186786551528214,-2.0795632965969086
2.1826483619362436,22.32835094066038,-0.07686863857733237,2.5674516900422883,-1.9917370321108265
2.1688471871734767,21.87067805009426,-0.07647774767563198,2.5178026495812755,-1.9093735813392474
2.1551285423242694,21.421807055889772,-0.07595163953778052,2.4696528415796752,-1.831988538483103
2.141514958371029,20.98147471337683,-0.0753104043871155,2.422928741897481,-1.7591508621426066
2.1280255903258416,20.549430585301945,-0.07457146278163407,2.3775615700456973,-1.690476041785147
2.1146766643910038,20.125436222384234,-0.07374993649434211,2.3334869068177486,-1.6256202484696638
2.101481863332633,19.709264409357957,-0.07285896415422023,2.290644349029759,-1.5642753135252296
2.088452659214151,19.30069847020441,-0.07190997049558039,2.2489771971207984,-1.506164405888474
2.0755986011806193,18.899531626989774,-0.07091289654366004,2.2084321719306867,-1.4510383007815562
2.062927564777594,18.50556640734529,-0.06987639682328815,2.1689591574524316,-1.3986721503623054
2.050445968284017,18.118614096165818,-0.06880800866090264,2.1305109667639743,-1.3488626816907627
2.038158960701193,17.738494227574776,-0.06771429781491725,2.093043128692033,-1.3014257594566703
2.0260705853395558,17.365034113617163,-0.06660098398105176,2.0565136930592076,-1.2561942608969834
2.014183922357736,16.998068406505826,-0.06547304915028188,2.0208830526223296,-1.2130162185973303
2.0025012131149147,16.637438691566956,-0.06433483132550873,1.9861137800317772,-1.171753193733668
1.9910239687816138,16.28299310831407,-0.06319010571116719,1.952170478333625,-1.132278848025078
1.9797530653028956,15.934585997330732,-0.062042155163479884,1.91901964370348,-1.0944776874413038
1.9686888265107125,15.592077570865243,-0.06089383141633157,1.886629539246414,-1.0582439547056228
1.957831096929999,15.25533360523885,-0.05974760836937411,1.8549700788246202,-1.0234806509900705
1.9471793056087578,14.924225153345901,-0.058605628533306676,1.824012719985926,-0.990098670025921
1.9367325221198162,14.598628275682387,-0.05746974356604397,1.7937303651642287,-0.9580160302375988
1.9264895057260925,14.27842378848078,-0.05634154969755308,1.764097270409176,-0.9271571925265104
1.9164487485679464,13.963497027655887,-0.055222418726291245,1.7350889609785247,-0.8974524530432171
1.9066085136170159,13.653737627380366,-0.05411352517293844,1.7066821531939316,-0.8688374017418098
1.8969668680429352,13.349039312211058,-0.05301587009462332,1.6788546820205847,-0.8412524387505491
1.887521712555075,13.049299701779642,-0.05193030199271508,1.6515854338840503,-0.8146423416519633
1.878270807208853,12.754420127144442,-0.05085753518752797,1.624854284284829,-0.7889558776720551
1.8692117941035664,12.464305457975627,-0.049798165982322735,1.5986420398131045,-0.7641454555556839
1.8603422173445692,12.178863939814118,-0.04875268689542455,1.5729303842036457,-0.7401668125733113
1.8516595405958034,11.8980070407064,-0.04772149920197131,1.547701828104335,-0.71697873267964
1.8431611625080937,11.621649306573445,-0.04670492399480463,1.5229396622618072,-0.694542792341088
1.8348444302733746,11.34970822472297,-0.04570321194651902,1.4986279138545955,-0.6728231309781723
1.8267122072607846,11.082105256571218,-0.04465482152670131,1.474738398942645,-0.6501789570940043
1.8187665566023825,10.818764486599044,-0.04363018578887922,1.4512701563037373,-0.628489631018791
1.8110032357894803,10.559611349969106,-0.04262893435447574,1.4282091395844596,-0.6077041977154418
1.8034180714349501,10.30457375685452,-0.04165066958474983,1.4055418950220735,-0.5877749349504847
1.7960069637072857,10.053581988613146,-0.0406949718337448,1.383255529882088,-0.5686571153498788
1.7887658898800476,9.8065685994635,-0.039761404024453835,1.361337682891768,-0.5503087883150133
1.781690907111083,9.563468323316176,-0.038849515630708986,1.3397764965229517,-0.5326905799489954
1.7747781545519818,9.324217985440029,-0.037958846137081254,1.3185605909897942,-0.5157655093331882
1.7680238548760285,9.088756418665515,-0.03708892804017605,1.2976790398381441,-0.49949881966255977
1.761424315302188,8.85702438384888,-0.03623928944694237,1.2771213470133376,-0.48385782289833396
1.7549759281832682,8.628964494340469,-0.03540945631883384,1.256877425302338,-0.4688117567299207
1.7486751712181472,8.404521144218357,-0.03459895440473433,1.2369375760544739,-0.4543316527571017
1.742518607340687,8.183640440065119,-0.03380731090037763,1.2172924700926009,-0.44039021490965824
1.7365028843315824,7.966270136080777,-0.033034055867452575,1.1979331297334213,-0.42696170721653653
1.7306247341937668,7.752359572338989,-0.03227872344160861,1.1788509118419899,-0.4140218501215554
1.724880972327064,7.541859616006601,-0.03154085285508888,1.1600374918511913,-0.40154772461871024
1.7192684965334069,7.334722605358593,-0.03081998929665722,1.1414848486822302,-0.38951768354831545
1.713784285880116,7.1309022964315645,-0.03011568462879626,1.1231852505069873,-0.3779112694564382
1.708425399445343,6.930353812169162,-0.02942749797979047,1.105131241297499,-0.36670913847507736
1.7031889749668014,6.733033593922322,-0.02875499622622852,1.0873156281118597,-0.3558929897300172
1.6980722274122744,6.538899355175996,-0.02809775437962918,1.0697314690695467,-0.3454454998278391
1.6930724474880723,6.347910037382206,-0.027455355889282867,1.0523720619725732,-0.33535026201373
1.6881870000995587,6.160025767786795,-0.026827392871979803,1.0352309335319965,-0.3255917296279608
1.6834133227760566,5.97520781914432,-0.02621346627804288,1.0183018291621908,-0.3161551635216306
1.6787489240708546,5.793418571222009,-0.025613186001977394,1.0015787033079295,-0.3070265831218568
1.67419138194562,5.614621473999836,-0.02502617094507377,0.9850557102717706,-0.2981927208633568
1.6697435360538455,5.43900510431639,-0.02439433896353251,0.966237286210962,-0.33919065646520735
1.665405075410415,5.266767022357357,-0.023810779296805577,0.9475191800005157,-0.38127098892658606
1.6611674629826565,5.097889392419493,-0.023273803233846195,0.9288989304202078,-0.42433458883032366
1.6570224657537174,4.932354813176087,-0.02278172153214406,0.9103741722843237,-0.4682835526015465
1.6529621546436566,4.7701463005880065,-0.02233284635741874,0.8919426342499087,-0.513020983557106
1.6489789041059413,4.611247271178115,-0.021925492950529264,0.8736021369711096,-0.5584507731633233
1.645065391447143,4.455641525606481,-0.0215579810361183,0.8553505916026104,-0.6044773815115962
1.6412145959152271,4.303313232483017,-0.02122863598517073,0.8371859986580811,-0.6510056159897887
1.6374197975998404,4.15424691235285,-0.020935789741346134,0.8191064472326808,-0.6979404070869326
1.6336745761864435,4.008427421787726,-0.02067778151861906,0.8011101146020461,-0.7451865802190033
1.6299728096049815,3.8658399375142913,-0.020452958275404578,0.7831952662138884,-0.7926486224036225
1.626308672613081,3.7264699405067248,-0.020259674967932854,0.7653602560924019,-0.8402304425406727
1.6226766353534847,3.5903031999671917,-0.0200962945831366,0.7476035276802021,-0.8878351239729798
1.6190714619256197,3.4573257571126916,-0.019961187948698157,0.7299236151475684,-0.9353646679053652
1.6154882090118747,3.3275239086810124,-0.01985273331513458,0.7123191452044374,-0.9827197261502404
1.6119222246003468,3.2008841900614833,-0.019769315701842108,0.6947888394570038,-1.029799321542198
1.608369146847556,3.0773933579481287,-0.019709325995834383,0.6773315173580546,-1.0765005542212676
1.6048249031269708,2.9570383724031437,-0.019671159788445424,0.6599460998084365,-1.1227182918231027
1.6012857093121777,2.8398063782074985,-0.019653215931477407,0.6426316134765084,-1.1683448414327589
1.5977480693472361,2.7256846853624204,-0.019653894790096396,0.6253871959132546,-1.2132696009552566
1.5942087751612637,2.6146607485904454,-0.01967159616515118,0.6082121015531536,-1.2573786873293298
1.590664906989681,2.5067221456671973,-0.019704716852437302,0.5911057087051741,-1.300554538759307
1.5871138341709017,2.401856554394808,-0.01975164780066602,0.5740675276547015,-1.3426754878631288
1.583553216494733,2.3000517280044335,-0.01981077082343082,0.5570972100161173,-1.3836153023319793
1.5799810061874378,2.201295468748203,-0.019880454813182378,0.5401945594975427,-1.4232426893699714
1.5763954506285214,2.105575599409633,-0.019959051397000514,0.523359544264328,-1.461420759833784
1.5727950959059736,2.012879932425342,-0.020044889964642227,0.5065923111166822,-1.4980064476278347
1.5691787913301658,1.9231962362691526,-0.02013627198877761,0.4898932017298511,-1.5328498795404921
1.565545695042099,1.8365121987016018,-0.02023146454529721,0.4732627712429459,-1.565793690347117
1.5618952808695163,1.7528153864324594,-0.020328692927841785,0.45670180952530787,-1.5966722776815871
1.5582273466048635,1.6720932006804112,-0.020426132234968607,0.44021136549745343,-1.6253109909278134
1.5545420239025938,1.594332828041292,-0.020521897790250723,0.42379277493722295,-1.6515252482641978
1.5508397900203557,1.5195211859935114,-0.020614034234617593,0.40744769226034167,-1.6751195760925164
1.547121481659724,1.4476448622756486,-0.020700503105732918,0.39117812682702713,-1.6958865655243724
1.5433883111980846,1.3786900472661046,-0.020779168690260922,0.3749864843901355,-1.7136057415681254
1.5396418856449434,1.3126424583784804,-0.020847781900196774,0.3588756143612279,-1.728042342427884
1.5358842287045356,1.2494872553600516,-0.02090396188211155,0.34284886362130157,-1.738946009289854
1.5321178063837708,1.1892089452474082,-0.020945175015275142,0.3269101376302722,-1.7460493917093425
1.5283455566525976,1.131791275599074,-0.0209687108866506,0.3110639695734351,-1.7490666810717677
1.5245709237461498,1.0772171145001828,-0.02097165474054689,0.2953155981920042,-1.7476920958249846
1.5207978977995902,1.025468315737374,-0.02095085577678154,0.27967105472808684,-1.7415983590891682
1.5170310606351434,0.97652556750241,-0.020902890494849065,0.26413725899374996,-1.7304352345167455
1.5132756386886168,0.9303682230484256,-0.020824020022112914,0.24872212382828393,-1.713828223819113
1.509537564289273,0.8869741119681684,-0.020710139970597403,0.2334346659523346,-1.6913775849410455
1.5058235468239856,0.8463193313060842,-0.020556720754818656,0.21828511918194332,-1.6626579118193796
1.5021411557763213,0.8083780167357304,-0.020358735330338964,0.20328504271088702,-1.627218637106786
1.498498918319913,0.7731220958033518,-0.020110569740863893,0.1884474120933258,-1.5845859953713655
1.494906435207187,0.7405210281634709,-0.019805909289426264,0.17378667279422363,-1.5342672398362134
1.4913745203699402,0.7105415424008434,-0.0194375889022042,0.15931872456831775,-1.4757582717188265
1.4879153723403404,0.6831473862592219,-0.01899738920445968,0.1450607881163621,-1.4085563538677581
1.48454278998194,0.6582991179230753,-0.01847574811110147,0.13103108228527194,-1.3321802707874701
1.481272452203871,0.6359539815454198,-0.017861338311888762,0.11724821079980059,-1.2462011606441172
1.478122293139346,0.6160659311442984,-0.017140429071719268,0.1037301269904363,-1.150288164016189
1.4751130236339618,0.5985858920389049,-0.01629589876588328,0.09049252973615311,-1.0442736068066958
1.472268881472575,0.5834623715992926,-0.015305680805080928,0.07754658625951975,-0.9282416374728876
1.4696187441665243,0.5706425325659339,-0.014140289262149533,0.06489606966669623,-0.8026399033774827
1.4671978234685448,0.5600737802302476,-0.01275882960428938,0.05253451184091771,-0.6684022722721759
1.4650503157038988,0.5517057081542696,-0.011102367780665505,0.04044406678105683,-0.5270476729270444
1.4632337308778953,0.5454917563532682,-0.009081908063817541,0.028599842118952397,-0.38068696421520765
1.4618267111916672,0.5413888565598484,-0.006551644005386175,0.01698793336348861,-0.23184322021196227
1.4609471652480828,0.5393500421660242,-0.0032210887011074624,0.0056655599012217575,-0.08300675783486444
