x,y,v_x,v_y,omega
2.375,32.48,0.0,3.7948717948717947,-5.428571428571429
2.3737317249330365,31.80559791207066,-0.014091945188483909,3.698484737676388,-5.047067957016243
2.3701315324573513,31.148152305921972,-0.025910193430240792,3.606466441753472,-4.705993413421098
2.3645768928399464,30.506905143340386,-0.03580802454092419,3.5185020313752533,-4.399828433450846
2.357387039644342,29.88115222769939,-0.04407923318801147,3.43430814241361,-4.123941908362782
2.3488326860534903,29.270237910646667,-0.05096914004367772,3.3536287137277596,-3.8744285486088104
2.3391439607676263,28.673550491202825,-0.0566833631325885,3.2762315023149395,-3.647979570142068
2.32851692168022,28.090518190771665,-0.061394848949701535,3.2019051691423943,-3.441779056611171
2.3171189265882224,27.520605611706983,-0.06524954096138633,3.1304568204651395,-3.253420382785811
2.305093080271102,26.963310605353293,-0.068370973673282,3.06170991679809,-3.080838426238064
2.2925619313719214,26.4181614894851,-0.07086401409538894,2.9955024817373928,-2.9222542876388036
2.279630557061739,25.88471456593861,-0.07281792268441653,2.931685557668082,-2.7761299828043744
2.2663891458831316,25.362551897760845,-0.07430886818899932,2.870121866529308,-2.641131130095646
2.2529151675587418,24.851279311969968,-0.07540200208200054,2.81068464225819,-2.5160960831936863
2.2392752015172,24.350524599445173,-0.07615317615735463,2.753256608017303,-2.4000102861938712
2.2255264823858774,23.859935887853094,-0.07661036974622949,2.6977290763391344,-2.291984880363436
2.2117182099393164,23.379180167099214,-0.07681487966000068,2.6440011542595516,-2.191238788058569
2.197892662374761,22.907941949739417,-0.07680231550172521,2.5919790386270463,-2.097083652665029
2.1840861448533215,22.4459220512296,-0.07660343473649037,2.541575389259797,-2.0089111340290913
2.170329799643517,21.992836476930194,-0.07624484537245063,2.492708769622513,-1.9261821541934354
2.1566502996591495,21.54841540449562,-0.07574959889830231,2.4453031463171775,-1.848417764016529
2.1430704434819714,21.112402251726408,-0.07513769195923106,2.399287440007427,-1.7751913617455035
2.1296096669338125,20.684552821191897,-0.07442649190920075,2.354595121487148,-1.7061220431301942
2.1162844837807175,20.264634513982386,-0.07363109868074454,2.311163847507395,-1.6408689017486975
2.1031088661087027,19.85242560585114,-0.07276465323052823,2.268935131728699,-1.5791261298274504
2.0900945732238547,19.44771457978384,-0.07183860104556074,2.227854046796839,-1.5206187955103236
2.0772514365323254,19.050299509705663,-0.07086291774920919,2.187868954071821,-1.4650991934570001
2.064587606695166,18.659987490620104,-0.06984630266367392,2.148931257989944,-1.4123436827703106
2.05210976838606,18.276594110983055,-0.06879634521528434,2.1109951824217363,-1.3621499403064627
2.0398233271723507,17.89994296356069,-0.06771966827037094,2.0740175667156255,-1.314334568998841
2.0277325723632966,17.529865191410487,-0.06662205183023272,2.037957679397771,-1.2687310103929088
2.0158408191014567,17.166199065968087,-0.06550853996798472,2.002777047739999,-1.2251877185203783
2.0041505324950033,16.808789594526004,-0.06438353343705712,1.9684393016164796,-1.1835665588349504
1.9926634361853013,16.45748815465796,-0.0632508700040747,1.9349100302506532,-1.1437414014308136
1.9813806074029539,16.11215215338039,-0.06211389424423128,1.9021566506112217,-1.1055968823636209
1.9703025602763042,15.772644709053594,-0.06097551827409837,1.8701482863531722,-1.069027310749813
1.9594293189107832,15.438834354213029,-0.05983827467613463,1.8388556563197638,-1.0339357025623581
1.9487604815483983,15.110594757688858,-0.05870436268369633,1.8082509717265738,-1.0002329247740316
1.9382952769383448,14.787804464521763,-0.05757568853912137,1.7783078412411453,-0.9678369358089862
1.9280326138973223,14.470346652317271,-0.056453900805572985,1.7490011832532144,-0.9366721102199304
1.917971124907663,14.158108902801267,-0.05534042130175432,1.720307144702411,-0.9066686371696229
1.9081092044894432,13.850982987447594,-0.054236472234019735,1.6922030258939516,-0.8777619837094106
1.8984450429865758,13.548864666146105,-0.05314310002006405,1.6646672107892657,-0.8498924150536922
1.8889766563240706,13.251653497967297,-0.052061196229990975,1.6376791023086132,-0.8230045650803172
1.8797019122222687,12.95925266315906,-0.05099151601225387,1.6112190622273534,-0.7970470511702803
1.8706185532921724,12.67156879558274,-0.04993469432215117,1.5852683552873037,-0.771972128258412
1.861724217382665,12.388511824860672,-0.04889126022793011,1.5598090971801348,-0.7477353776190996
1.8530164555041808,12.109994827566222,-0.04786164953300736,1.534824206091531,-0.724295426473337
1.8444927476132813,11.835933886840888,-0.046846215921431324,1.5102973575233045,-0.7016136949889524
1.836150516507748,11.566247959871532,-0.045845240806715995,1.4862129421362056,-0.6796541676659751
1.8279923601281518,11.300859938465567,-0.04480094118879625,1.462542851263405,-0.6568839926660792
1.8200200813422667,11.039695276512465,-0.0437799342099279,1.4392867259932949,-0.6350683187564707
1.812229518445728,10.782680696688708,-0.042781875751614885,1.416430827604012,-0.6141564824548049
1.804616574240696,10.529745342777193,-0.0418063931931828,1.3939619936350542,-0.5941010170109884
1.797177220691206,10.2808206786883,-0.04085309069004054,1.3718676073526588,-0.5748574183808306
1.7899075026888291,10.035840392804314,-0.03992155378081349,1.350135569136085,-0.5563839306288024
1.7828035410421568,9.794740307314072,-0.03901135340443697,1.3287542696443846,-0.5386413489597012
1.7758615347899076,9.557458292228937,-0.03812204939833041,1.3077125646349135,-0.5215928387628145
1.7690777629254508,9.323934183793408,-0.03725319354007843,1.2869997513154179,-0.505203769215497
1.762448585609973,9.09410970702412,-0.03640433218745428,1.2666055461211327,-0.4894415601384012
1.7559704449422533,8.867928402129682,-0.0355750085649872,1.246520063817065,-0.47427554092407376
1.749639865344852,8.645335554581123,-0.03476476473947207,1.2267337978335748,-0.4596768204761183
1.743453453619343,8.426278128618549,-0.033973143321738536,1.2072376017506077,-0.4456181671992621
1.7374078987169075,8.210704703994267,-0.033199688927543734,1.1880226718525269,-0.43207389817288505
1.7314999712650394,7.998565415766205,-0.032443949426546895,1.1690805306815175,-0.41901977672311586
1.7257265228862095,7.7898118969677945,-0.031705477004895274,1.1504030115230377,-0.4064329176825796
1.7200844853400143,7.584397223992159,-0.030983829063938338,1.1319822437618186,-0.3942916996932463
1.7145708695165154,7.382275864538958,-0.03027856897493857,1.1138106390515272,-0.38257568396743774
1.7091827643051125,7.1834036279822335,-0.02958926670731661,1.0958808782454177,-0.3712655389756395
1.7039173353603214,6.987737618026621,-0.02891549934591638,1.0781858990391688,-0.36034297057799575
1.698771823783202,6.795236187527838,-0.028256851510967636,1.0607188842806576,-0.3497906571598175
1.6937435447348603,6.605858895361159,-0.027612915692829185,1.0434732509046747,-0.33959218937062174
1.6888298859964088,6.419566465228915,-0.02698329251218944,1.026442639453591,-0.3297320141015922
1.6840283064879473,6.236320746304795,-0.026367590915159392,1.0096209041477384,-0.3201953823683168
1.6793363347575392,6.0560846756190365,-0.02576542831159642,0.9930021034718094,-0.3109683007945655
1.674756822881882,5.879042471489658,-0.02511803697348483,0.9741334979657146,-0.3507458248570261
1.6702895145924708,5.705387457017164,-0.02451872179775235,0.9553666628397971,-0.39166327280487473
1.665925903660539,5.535101539893773,-0.023965844112601324,0.9366990829756391,-0.43362030012138986
1.6616577792143818,5.368167071722048,-0.023457760844699402,0.9181283411546546,-0.4765179000996433
1.657477226331292,5.2045668306059625,-0.022992826745186302,0.8996521156907252,-0.5202581834980761
1.6533766262548695,5.044284004136788,-0.02256939632617508,0.8812681784112039,-0.5647441588623764
1.6493486562883644,4.887302172710857,-0.022185825523883335,0.8629743929880267,-0.6098795125325903
1.645386289412022,4.733605293115819,-0.021840473102142634,0.844768713623527,-0.6555683873266611
1.641482793670138,4.58317768232083,-0.021531701807678497,0.8266491840985828,-0.7017151588553688
1.6376317313716884,4.436004001404498,-0.02125787928620549,0.8086139371940104,-0.7482242083783471
1.6338269581469884,4.292069239552067,-0.021017378766017107,0.7906611944996818,-0.7949996910558211
1.6300626219018461,4.151358698050416,-0.02080857951334266,0.7727892666297576,-0.8419452983851365
1.6263331617101313,4.013857974205731,-0.020629867061265465,0.7549965538667586,-0.8889640135341432
1.6226333066855898,3.879552945104141,-0.02047963321141808,0.7372815472620172,-0.9359578581940301
1.618958074874116,3.748429751130267,-0.02035627580495907,0.7196428302254539,-0.9828276294711347
1.6153027722085884,3.620474779152044,-0.020258198256455705,0.7020790806437064,-1.0294726252193203
1.6116629915697986,3.495674645272583,-0.020183808841209096,0.6845890735725254,-1.0757903560803292
1.6080346119990003,3.374016177040911,-0.020131519723218833,0.6671716845571757,-1.121676242347632
1.6044137981102495,3.255486395002851,-0.020099745707344237,0.6498258936434945,-1.1670232935981422
1.6007969997540183,3.140072493461215,-0.02008690269522491,0.6325507901524633,-1.21172176884421
1.5971809519876379,3.0277618203002383,-0.020091405820112235,0.6153455783028267,-1.2556588147440486
1.5935626754130499,2.91854185571281,-0.020111667230867183,0.5982095837797139,-1.29871807917087
1.589939476948179,2.812400189649999,-0.020146093489919116,0.5811422613626375,-1.340779297178569
1.5863089511051385,2.7093244977904014,-0.020193082543866335,0.5641432037439872,-1.3817178461144934
1.5826689818565227,2.6093025158013816,-0.02025102021852933,0.5472121516895603,-1.4214042663183555
1.579017745180428,2.5123220116348683,-0.020318276182525165,0.5303490057161515,-1.4597037435130358
1.5753537123856793,2.4183707555664746,-0.020393199314680328,0.5135538394882132,-1.496475548642597
1.5716756543312966,2.3274364876475495,-0.02047411240068189,0.49682691516652266,-1.531572430553652
1.5679826466686566,2.239506882194622,-0.020559306073096202,0.4801687009771244,-1.5648399565620088
1.5642740762514347,2.1545695088888728,-0.020647031896037924,0.4635798913089682,-1.596115795618775
1.5605496488774944,2.0726117899986107,-0.02073549448107737,0.44706142969395596,-1.6252289385217844
1.556809398548829,1.9936209531695255,-0.020822842504091343,0.43061453507367,-1.6519988494588025
1.5530536984608678,1.9175839791497573,-0.020907158473255225,0.4142407318126346,-1.6762345431920318
1.549283273961465,1.8444875437286292,-0.02098644707566367,0.39794188397769015,-1.6977335825073812
1.5454992177533529,1.7743179530687847,-0.021058621903361538,0.3817202344650357,-1.7162809913158517
1.5417030076525533,1.7070610715013892,-0.02112149032774339,0.36557844961715474,-1.7316480802408254
1.5378965272603136,1.6427022407335983,-0.021172736252698866,0.3495196700249791,-1.7435911839938056
1.5340820899589538,1.5812261892892145,-0.021209900429077458,0.3335475682459406,-1.7518503138283146
1.5302624667046363,1.5226169308718482,-0.02123035795222523,0.31766641416924385,-1.7561477345918615
1.5264409181653267,1.4668576502137007,-0.021231292484549264,0.30188114869907456,-1.7561864854286253
1.5226212318444066,1.4139305748671553,-0.02120966663678487,0.28619746626255077,-1.7516488775714194
1.5188077649460405,1.3638168313350292,-0.021162187789502816,0.27062190631663846,-1.7421950241721087
1.51500549388761,1.316496283958191,-0.02108526841528131,0.25516195342600806,-1.7274614890827582
1.511220071563491,1.2719473551487042,-0.020974979630487212,0.239826144457172,-1.7070601887852
1.5074578937391903,1.2301468259702055,-0.020826996195076185,0.2246241797483538,-1.6805777513763118
1.5037261763479162,1.1910696168753034,-0.020636530374635642,0.2095670324172192,-1.6475756389337692
1.5000330460431774,1.1546885498410475,-0.020398250789126573,0.19466704574117386,-1.6075914894072185
1.496387647247377,1.120974095540305,-0.02010618027532441,0.1799380020448415,-1.5601423519069686
1.492800270321598,1.0898941130493576,-0.019753563344444187,0.16539513674347472,-1.5047308022909252
1.4892825076898344,1.0614135956252788,-0.019332688119594,0.15105505685740525,-1.4408553678926777
1.4858474483218087,1.0354944452237227,-0.01883463819180375,0.1369355031598734,-1.3680272948115346
1.4825099268074935,1.0120953117581237,-0.01824893418947569,0.1230548686801263,-1.2857964720257944
1.4792868528121073,0.9911715515322541,-0.01756299909259448,0.10943135605174709,-1.1937902240374936
1.4761976623553066,0.9726753825449634,-0.016761339316299428,0.09608163269590884,-1.091769441488597
1.4732649578866681,0.9565563386331526,-0.01582426589079421,0.08301885521311682,-0.9797064299908164
1.4705154455558307,0.9427621371964072,-0.014725871118510942,0.07025004963962204,-0.8578863235218932
1.4679813458143744,0.9312400461317836,-0.013430792675447546,0.05777318441175874,-0.7270259380733076
1.4657025703957332,0.9219387027312891,-0.011888934198344333,0.045575075593732084,-0.5883863989145249
1.4637301953710053,0.9148099916339909,-0.010026343854187677,0.03363282548735222,-0.4438267965383741
1.4621323988925226,0.9098098319122698,-0.007726950351175271,0.021924504754008124,-0.29571452625399064
1.461006491944848,0.9068948539616422,-0.004783126845209776,0.010464139141854362,-0.1466012978449349
1.4605166199905044,0.9060024159989588,-0.0006598948697181988,-0.0005481617787127056,0.0013180122394886584
