x,y,v_x,v_y,omega
2.375,32.48,0.0,2.6153846153846154,-5.795918367346939
2.374125473185762,32.01388031720176,-0.0097169646026444,2.5637229712624467,-5.502426711642807
2.3716065384909273,31.556910388347198,-0.01827119867329931,2.513720682677158,-5.230612069821242
2.367640698048411,31.108799781136558,-0.025793695132436633,2.4652860641077226,-4.9783496500731435
2.3624033289376034,30.66927390578314,-0.032399294987648174,2.4183347731524867,-4.743765302586457
2.356050389650776,30.23807276668279,-0.03818891931043514,2.372788994629138,-4.525201295044226
2.348720756069494,29.81494985034996,-0.04325145381491869,2.328576742402336,-4.32118740426733
2.3405382439930333,29.399671130281185,-0.04766534703464493,2.2856312583618354,-4.130416394146177
2.33161336536685,28.992014172739967,-0.05149997103405635,2.2438904920961296,-3.9517231317200525
2.3220448573958663,28.591767330129915,-0.054816784199096656,2.2032966480155607,-3.784066735619674
2.311921017273294,28.198729010781094,-0.057670328273931405,2.1637957891936006,-3.6265152634498072
2.3013208699913883,27.812707015727604,-0.060109085969462794,2.125337489178498,-3.478232533994912
2.2903151923812373,27.433517934487387,-0.06217622080999399,2.087874524601675,-3.3384667515751456
2.2789674129655326,27.060986593033288,-0.06391021714227854,2.051362602666086,-3.2065406573826216
2.267334404254142,26.694945548118707,-0.06534543520650696,2.0157601186070404,-3.0818429791722277
2.2554671816517025,26.335234622931097,-0.06651259370948867,1.9810279390330587,-2.9638209885559674
2.243411521088176,25.98170047972367,-0.06743919032969035,1.9471292077161275,-2.8519740061230285
2.231208505754658,25.634196225644537,-0.06814986893162345,1.9140291709409416,-2.745847720055386
2.2188950108695433,25.292581048462914,-0.06866674090298483,1.881695019965971,-2.6450292049082402
2.206504134167569,24.956719879299655,-0.06900966689673138,1.8500957485146912,-2.5491425446249987
2.1940655787582166,24.626483079816694,-0.06919650431829102,1.8192020235181894,-2.4578449783308294
2.1816059941096078,24.30174615161763,-0.06924332511069767,1.788986067582522,-2.3708234995333615
2.1691492801539582,23.982389465867342,-0.0691646077298537,1.7594215518651086,-2.287791849483555
2.156716858860125,23.668298011359532,-0.06897340664606849,1.73048349822165,-2.2084878539600097
2.144327917060517,23.359361159452472,-0.06868150223846954,1.7021481896345807,-2.1326710599158094
2.131999623839447,23.05547244445989,-0.06829953355119105,1.674393088060774,-2.060120634495665
2.119747325376018,22.756529358229457,-0.0678371160424664,1.647196758944018,-1.9906334940780448
2.107584719776888,22.462433157768807,-0.06730294617009334,1.6205388017298796,-1.9240226353739902
2.095524014124576,22.173088684891162,-0.06670489441114758,1.5943997857995307,-1.8601156443462372
2.0835760656982454,21.88840419695157,-0.06605008810363631,1.5687611913070791,-1.7987533619020817
2.071750509090344,21.608291207832202,-0.06534498531749248,1.5436053544636485,-1.7397886880463835
2.060055870739111,21.332664338412865,-0.06459544080732162,1.5189154168623258,-1.6830855085279883
2.0484996722195294,21.061441175831845,-0.06380676496580058,1.4946752784823412,-1.6285177300326537
2.0370928654339173,20.794546072268986,-0.06293553265211418,1.4708258722161076,-1.5736767951831718
2.025844343696788,20.53190588955008,-0.062048042204875545,1.4473983802161494,-1.5211591022980593
2.014756753653904,20.273445960548443,-0.061147402716063684,1.4243786086909733,-1.4708400615758164
2.0038322110096276,20.019094118213225,-0.06023640444256253,1.4017529728114704,-1.4226030279493653
1.9930723551409864,19.768780588955178,-0.05931754965344804,1.3795084633890422,-1.3763387130061833
1.9824783984369023,19.522437891832723,-0.058393080391930134,1.3576326157493466,-1.3319446463209315
1.9720511708885557,19.280000743158524,-0.05746500347858741,1.3361134806306338,-1.2893246815589143
1.9617911604013736,19.041405966176168,-0.05653511304565885,1.3149395969511004,-1.2483885431904225
1.9516985492498886,18.80659240548325,-0.05560501085972926,1.294099966303539,-1.209051410083004
1.9417732470529696,18.57550084590161,-0.05467612466159274,1.2735840290480145,-1.1712335326177241
1.9320149206080048,18.34807393551769,-0.053749724726905194,1.2533816418844819,-1.1348598803123677
1.9224230208879718,18.124256112636324,-0.05282693882901727,1.2334830567973598,-1.0998598172344218
1.9129968074744435,17.903993536409978,-0.051908765765742396,1.213878901273165,-1.0661668027539197
1.9037353706720268,17.68723402092234,-0.050996087594442,1.1945601597005513,-1.0337181154247472
1.894637651525129,17.473926972521035,-0.050089680704422455,1.175518155869536,-1.0024545979961064
1.8857024599359515,17.264023330208364,-0.04919022584199515,1.1567445364934505,-0.9723204217464841
1.8769284910629422,17.05747550891246,-0.04829831719144137,1.1382312556832768,-0.9432628685032245
1.8683143401613198,16.854237345473102,-0.04741447060436458,1.1199705603095982,-0.9152321288639182
1.859858516011496,16.654264047187915,-0.04653913106034383,1.1019549761924605,-0.888181115273282
1.8515594530670696,16.457512142774828,-0.04567267943328364,1.0841772950640527,-0.8620652887327291
1.84341552244135,16.263939435616262,-0.04481543863026522,1.0666305622533296,-0.8368424980309764
1.835425041839962,16.073504959159365,-0.04396767916293452,1.0493080650455393,-0.8124728304841276
1.8275862845368103,15.886168934354686,-0.04312962420541919,1.0322033216731366,-0.7889184732639203
1.8198974874814593,15.701892729023303,-0.042301454187367644,1.0153100708977778,-0.766143584474267
1.8123568586176675,15.52063881904936,-0.041483310965875375,0.9986222621460403,-0.7441141732097947
1.8049687917466666,15.342597275829775,-0.04060632093413366,0.9796171069604435,-0.7726599469149992
1.7977344995167996,15.1679669116061,-0.03977470384216532,0.9607202733025826,-0.8026187411821807
1.7906459384602056,14.996728474903303,-0.03898708567554617,0.9419290233951784,-0.8338787446346081
1.7836953149196306,14.828863196929774,-0.038242064775288714,0.9232407318662454,-0.8663299441273637
1.7768750896902956,14.664352771615661,-0.03753821555065409,0.9046528827350114,-0.8998638809210745
1.770177982027819,14.503179336157753,-0.03687409181019666,0.8861630667972983,-0.9343734091493621
1.7635969730888315,14.34532545199918,-0.03624822973411014,0.8677689794090554,-0.969752455537911
1.757125308867019,14.190774086172084,-0.03565915050824987,0.8494684186697763,-1.0058957793179197
1.7507565026838936,14.039508592930837,-0.035105362637587983,0.8312592840107337,-1.0426987312534226
1.7444843372906242,13.891512695602199,-0.034585363954295234,0.8131395751963664,-1.080057010670202
1.7383028666347577,13.746770468576955,-0.03409764333311069,0.7951073917508005,-1.1178664193332946
1.7322064173436056,13.605266319365093,-0.033640682124134964,0.7771609328254382,-1.1560226109699394
1.7261895899744757,13.466984970633295,-0.0332129553106392,0.7592984975278605,-1.1944208351746173
1.7202472600807979,13.331911442139454,-0.03281293239689385,0.7415184857370362,-1.2329556743619317
1.714374579142525,13.200031032473962,-0.032439078028361296,0.7238193994350836,-1.271520772350777
1.7085669754090274,13.071329300511554,-0.03208985234383352,0.7061998445916855,-1.310008553068745
1.7028201547030244,12.945792046470359,-0.03176371105619903,0.6886585336438086,-1.3483099277582586
1.6971301012349755,12.82340529246655,-0.03145910525545602,0.6711942886207422,-1.3863139889447147
1.6914930784787963,12.704155262443134,-0.031174480924312707,0.6538060449727783,-1.4239076892912412
1.6859056301618212,12.588028361340172,-0.030908278153188397,0.6364928561712508,-1.460975503313968
1.6803645814246502,12.475011153360512,-0.030658930037601825,0.6192538991583002,-1.4973990697656452
1.674867040209958,12.365090339169953,-0.030424861236753913,0.6020884807368209,-1.5330568123141048
1.6694103989435733,12.258252731853208,-0.030204486167519844,0.5849960450047862,-1.5678235359461812
1.6639923365762272,12.15448523142694,-0.029996206802991997,0.5679761819537494,-1.6015699963189591
1.6586108210604404,12.05377479768789,-0.02979841003908282,0.5510286373690403,-1.6341624390616927
1.6532641123441458,11.956108421147643,-0.02960946458641458,0.5341533241892608,-1.66546210580857
1.647950765970977,11.861473091775125,-0.02942771733768517,0.517350335505381,-1.6953247035227608
1.642669637386835,11.769855765233164,-0.029251489152780037,0.5006199594052831,-1.7235998334681477
1.6374198870635395,11.681243326255853,-0.02907906999494659,0.4839626958981665,-1.7501303760150726
1.632200986563289,11.595622548768379,-0.028908713341170934,0.4673792761848939,-1.774751827357065
1.6270127256825404,11.512980052299987,-0.028738629778256645,0.45087068457502094,-1.7972915842056238
1.6218552208310553,11.433302254183271,-0.028566979682689144,0.43443818338849693,-1.8175681726755168
1.6167289248216052,11.356575316968598,-0.02839186486675694,0.41808334121898455,-1.835390417953673
1.611634638268646,11.28278509041116,-0.028211319055013163,0.4018080649747675,-1.8505565520747866
1.606573522820709,11.211917047309974,-0.02802329703317687,0.38561463614950753,-1.862853258369038
1.6015471164820907,11.143956212394151,-0.027825662284801964,0.3695057518040903,-1.8720546531339533
1.596557351315664,11.078887083363817,-0.027616172897717475,0.3534845707551902,-1.8779212081440269
1.591606573861696,11.016693543104932,-0.027392465479702876,0.33755476545464574,-1.8801986222199079
1.5866975686594902,10.95735876201502,-0.027152036767028678,0.3217205799888368,-1.8786166569065859
1.5818335853223937,10.900865089310802,-0.02689222253404461,0.30598689450245636,-1.872887961318167
1.5770183696966962,10.847193932155111,-0.02661017330703751,0.29035929611631267,-1.8627069257686664
1.57225619973787,10.79632562146428,-0.02630282623547824,0.27484415600403667,-1.8477486248853836
1.5675519268738456,10.748239263377357,-0.025966872253679222,0.2594487116284465,-1.8276679412919508
1.56291102381077,10.702912575643328,-0.025598717336050247,0.24418115208298424,-1.8020990046294287
1.558339639997409,10.66032170869984,-0.025194436145740844,0.22905070284466947,-1.770655143271871
1.5538446663405932,10.620441052106681,-0.02474971559665609,0.2140677037459966,-1.7329296354240922
1.5494338113204915,10.583243028449154,-0.02425978462669584,0.19924367022651646,-1.688497673078798
1.5451156914947697,10.54869787911207,-0.023719324547991635,0.18459132240777162,-1.6369201306982175
1.5408999406713546,10.516773449822264,-0.023122351267731035,0.17012455859005607,-1.5777499779543043
1.5367973440375833,10.487434989068078,-0.022462055774171607,0.15585833867869148,-1.510542511250285
1.5328200066852955,10.460644980039884,-0.02173058147347006,0.14180842830124013,-1.4348710154959194
1.5289815709417218,10.436363037218523,-0.020918704566238688,0.12799093638054593,-1.3503499961766896
1.5252975047587827,10.414545912486592,-0.02001536413308525,0.11442156064091046,-1.2566686693141385
1.5217854957467887,10.395147671897764,-0.019006958222403867,0.10111444590160079,-1.153637743647227
1.5184660047112755,10.378120119519945,-0.01787627550552185,0.08808058051858902,-1.041252153692675
1.5153630625164798,10.363413549634988,-0.016600859992205667,0.0753257515364758,-0.9197702459204804
1.512505441115513,10.35097788233523,-0.01515048890742706,0.06284832957193714,-0.7898041823064318
1.5099284075194919,10.34076414117959,-0.013483217715029788,0.05063768326849368,-0.6524047635084883
1.5076764195531467,10.332726000373185,-0.01153887079991693,0.03867499235823803,-0.5091057354093284
1.5058074959187226,10.326820653943724,-0.009226947360350526,0.02693996796911866,-0.36187320156730296
1.504401248879826,10.323007221617196,-0.006398019738501227,0.015431502325637232,-0.21290003707676802
1.5035786988813098,10.321237156209783,-0.002741424689454909,0.004235891090054091,-0.06421787984584917
