x,y,v_x,v_y,omega
2.375,32.48,0.0,2.9743589743589745,-3.224489795918368
2.3740331453042027,31.80465930953615,-0.008407432137366238,2.8981687688049154,-2.9968785970232745
2.371290219209131,31.14644826128854,-0.015444099124128287,2.825405563782987,-2.7934071565629734
2.36706182826766,30.50460654794626,-0.021324517758230743,2.7558267261498934,-2.610774793102581
2.361593413730073,29.87842698653212,-0.026226913003393616,2.6892129383209036,-2.446212106569657
2.355092825342582,29.267250490924912,-0.030299942540007882,2.625365284350452,-2.2973840959251164
2.347736505059602,28.670461661565675,-0.033668059920686146,2.5641027970342334,-2.1623128907930713
2.339674559308988,28.087484896633015,-0.036435816171608584,2.5052603762932244,-2.0393157433617697
2.331034937717744,27.517780947229436,-0.03869132810007808,2.4486870098248557,-1.9269549775641195
2.3219268898132044,26.960843853239144,-0.040509088461137176,2.394244242264647,-1.8239973692099565
2.3124438355039194,26.416198207572613,-0.04195225335873355,2.341804850487779,-1.7293810102464742
2.302665757463752,25.883396705268567,-0.04307451220793737,2.2912516912865435,-1.642188146442369
2.292661201948436,25.362017940932503,-0.04392162270785368,2.242476694244457,-1.5616228086050346
2.2824889576276055,24.851664423656143,-0.04453267573414975,2.195379977723897,-1.486992310216847
2.272199468643076,24.35196078318277,-0.044941141522629124,2.149869069870662,-1.417691878842817
2.261836027497522,23.862552144883406,-0.04517573800392679,2.1058582196890003,-1.353191839222537
2.2514357849237925,23.38310265425753,-0.04526115394154903,2.063267785753382,-1.2930268832245166
2.2410306071160386,22.913294134299193,-0.04521865308239623,2.0220236921451953,-1.236787053688286
2.230647805260278,22.452824861275577,-0.04506658044596016,1.9820569428427848,-1.184110141501531
2.2203107579062884,22.001408446328252,-0.04482078784959937,1.9433031871339463,-1.1346752524942405
2.2100394431592054,21.558772811889646,-0.04449499255981829,1.9057023297235127,-1.0881973462440575
2.199850894769394,21.12465925325731,-0.04410108039506073,1.8691981801228852,-1.0444225852431501
2.1897595938310603,20.698821576826095,-0.043649362546975004,1.8337381366702907,-1.003124362045788
2.1797778058594086,20.281025307474565,-0.04314879372825551,1.799272901169098,-0.9640998955160859
2.1699158714206104,19.871046958463133,-0.04260715791347013,1.7657562206694246,-0.9271673063045556
2.160182457172781,19.46867335794819,-0.042031226850263434,1.733144653373569,-0.8921630971176429
2.150584773087391,19.07370102686645,-0.041426895631388315,1.7013973560328866,-0.858939975924559
2.1411287607170517,18.685935603511233,-0.040799298893299474,1.6704758905341943,-0.8273649705351944
2.131819256623827,18.305191310619247,-0.040152910613003266,1.6403440476570044,-0.7973177914277777
2.122660134454889,17.931290461222645,-0.03949162998645447,1.6109676862264788,-0.7686894066588708
2.1136544286275054,17.56406299990542,-0.03881885546905723,1.5823145860972319,-0.7413807984329
2.1048044421450975,17.20334607644195,-0.03813754872579471,1.5543543135851199,-0.7153018756687017
2.0961118406959596,16.848983649095608,-0.03745028996236035,1.5270580981222055,-0.6903705208570521
2.0875777348741953,16.500826115121065,-0.036759325879070305,1.500398719047726,-0.6665117528011255
2.0792027520988365,16.15872996625025,-0.03606661129795984,1.4743504015680644,-0.6436569895886554
2.0710012829003377,15.822558702643487,-0.03525051216724698,1.4488779776211769,-0.6182838627037095
2.0629860363347508,15.492181208832132,-0.034447284055252,1.4239697946514875,-0.5941960546315189
2.0551539732921698,15.167470244546475,-0.033657611967189374,1.399603807832486,-0.5713119763112311
2.047501914401005,14.848303512016248,-0.032882030564676236,1.3757590837347051,-0.5495561979691724
2.040026572241975,14.534563408403564,-0.032120944731239366,1.3524157302886186,-0.5288589111510424
2.032724579139252,14.226136793741038,-0.03137464746635156,1.3295548319942236,-0.5091554439412562
2.0255925111023565,13.922914773220704,-0.030643335463175752,1.3071583899217298,-0.49038582351233145
2.018626908416377,13.624792492779044,-0.029927122675776244,1.285209266092702,-0.47249438085659884
2.0118242933126336,13.33166894701322,-0.029226052139382855,1.2636911318709751,-0.4554293931683642
2.0051811850954113,13.043446798544807,-0.02854010627124503,1.2425884200282755,-0.43914275988027
1.9986941130516118,12.76003220802071,-0.027869215848750746,1.2218862801812678,-0.4235897088242865
1.992359627427978,12.48133467400747,-0.027213267835022894,1.201570537325159,-0.40872852939509025
1.9861743087240098,12.207266882095418,-0.026572112199482696,1.1816276532144268,-0.39452032994971253
1.9801347755170164,11.937744562583894,-0.025945567861329302,1.1620446903640382,-0.3809288169892167
1.9742376910082517,11.672686356168555,-0.025333427867057758,1.1428092784650001,-0.3679200939417306
1.968479768455198,11.412013687097033,-0.024735463898627564,1.1239095830264807,-0.35546247760650096
1.9628577756342738,11.155650643300557,-0.02415143019636583,1.1053342760733118,-0.34352633053011405
1.957368538460158,10.903523863046725,-0.023581066969857838,1.0870725087426103,-0.3320839077723838
1.9520089438721437,10.655562427693102,-0.02302410336070259,1.0691138856367357,-0.32110921668387304
1.946775942084181,10.411697760152649,-0.022480260012885965,1.0514484408019757,-0.31057788846236273
1.9416665482832594,10.171863528710883,-0.021949251299474695,1.0340666152133666,-0.3004670603842204
1.9366778438502756,9.935995555860902,-0.021430787248211264,1.0169592356560355,-0.2907552677206215
1.9318069771683557,9.704031731846673,-0.020924575203265534,1.0001174949024942,-0.28142234444974357
1.9270511640755674,9.475911932627131,-0.02043032125576436,0.9835329330935303,-0.2724493319659462
1.9224117496106945,9.251685058763204,-0.01991241322139031,0.9662659700710378,-0.28249068899634266
1.91788830862617,9.031415119887487,-0.019421856209258664,0.9491248027612731,-0.2948069325635993
1.913474512146709,8.815073612846192,-0.01895898274257589,0.9321056932500104,-0.30927247139089564
1.9091639707477415,8.602632876684641,-0.018523985944097182,0.9152050559808639,-0.3257656979455475
1.9049502652153776,8.394066058426382,-0.018116931728631686,0.898419450612702,-0.34416869748088275
1.9008269745150521,8.189347080433642,-0.017737770013330264,0.8817455754111332,-0.36436696853888156
1.8967877012862286,7.988450609229616,-0.017386345019917482,0.8651802611456204,-0.38624915373212354
1.8928260950641989,7.791352025669166,-0.017062404736863445,0.8487204654669873,-0.4097067796721652
1.888935873415024,7.598027396350002,-0.016765609603787,0.8323632677431437,-0.434634004952016
1.885110841155953,7.408453446161154,-0.016495540475090685,0.8161058643338077,-0.4609273751231404
1.8813449078211035,7.222607531869659,-0.016251705914905417,0.799945564287875,-0.48848558363254596
1.8776321035207442,7.0404676166498135,-0.016033548870827825,0.7838797854499074,-0.5172092377031089
1.873966593332092,6.862012245462097,-0.01584045276962709,0.7679060509650152,-0.5470006281503321
1.8703426903500695,6.687220521191083,-0.01567174707404471,0.7520219861742268,-0.5777635021311389
1.8667548675179173,6.5160720814530855,-0.0155267123359757,0.7362253158953076,-0.6094028378149131
1.8631977683498482,6.3485470759851275,-0.015404584777669757,0.7205138620869401,-0.6418246199535312
1.8596662166510702,6.184626144526945,-0.015304560429094208,0.7048855418972598,-0.6749356153052518
1.8561552253344087,6.024290395107148,-0.015225798846224785,0.6893383661009881,-0.7086431468365681
1.8526600044274422,5.867521382643254,-0.015167426431744192,0.6738704379328725,-0.7428548655859508
1.8491759683595057,5.71430108776315,-0.015128539376399587,0.6584799523288865,-0.7774785190231278
1.845698742614072,5.564611895752396,-0.015108206236065768,0.6431651955907174,-0.8124217146764122
1.8422241698289445,5.4184365755277035,-0.015105470156346675,0.6279245454935584,-0.8475916777276761
1.8387483154243367,5.275758258531791,-0.015119350753287731,0.612756471862188,-0.882895001188876
1.8352674728373346,5.136560417438364,-0.015148845655427321,0.5976595376458786,-0.9182373871744127
1.8317781684404317,5.000826844548264,-0.015192931708945687,0.5826324005289119,-0.9535233776687833
1.8282771662218396,4.868541629748577,-0.01525056584402909,0.5676738151205325,-0.9886560730575933
1.824761472306155,4.7396891378954535,-0.015320685596706709,0.5527826357761841,-1.0235368365405657
1.8212283393957611,4.614253985468427,-0.015402209276282998,0.5379578201109938,-1.0580649823762
1.8176752712161264,4.492221016328816,-0.015494035764018515,0.5231984332769204,-1.0921374457176947
1.8141000270520227,4.37357527639697,-0.015595043923839591,0.5085036530869567,-1.1256484315872508
1.8105006264667232,4.258301987042362,-0.01570409160050533,0.49387277608354024,-1.158489040299789
1.8068753543025697,4.146386516956376,-0.015820014174742755,0.4793052246641736,-1.1905468663867624
1.803222766069072,4.037814352249512,-0.015941622638279168,0.46480055539550397,-1.221705567786305
1.7995416938340707,3.932571064482193,-0.016067701144342313,0.4503584686681409,-1.2518444017588377
1.7958312527446638,3.8306422763004555,-0.016197003980934183,0.4359788198686948,-1.28083772366093
1.7920908483177973,3.7320136243041198,-0.01632825190486235,0.4216616322733437,-1.308554444371126
1.7883201846558832,3.636670718724286,-0.016460127763956712,0.4074071118991168,-1.3348574418206163
1.7845192737608948,3.5445990994285594,-0.016591271322898515,0.39321566458546453,-1.3596029217567125
1.780688446141407,3.455784187704939,-0.01672027319438691,0.37908791561991445,-1.382639722585554
1.7768283629314627,3.370211233197839,-0.016845667761648888,0.36502473226791105,-1.4038085589442255
1.772940029768455,3.2878652552809378,-0.016965924960157888,0.3510272496181999,-1.4229411986042886
1.7690248127100234,3.2087309780506104,-0.017079440765334325,0.33709690021074257,-1.43985956750214
1.7650844565080628,3.132792758009522,-0.017184526208237846,0.3232354479726379,-1.454374778264784
1.7611211056022567,3.060034503382383,-0.01727939471181451,0.3094450270459629,-1.4662860787561554
1.757137328247362,2.9904395838654665,-0.01736214750466233,0.29572818614460306,-1.4753797192083944
1.7531361442494133,2.9239907294604777,-0.017430756825324658,0.282087939116163,-1.4814277398643452
1.7491210568584417,2.8606699168866534,-0.017483046574430294,0.2685278223953461,-1.4841866863885746
1.7450960894524674,2.8004582419119615,-0.01751666999925755,0.2550519599932826,-1.4833962685555417
1.741065827754397,2.7433357758111114,-0.017529083897006238,0.24166513653583566,-1.4787779902959561
1.7370354684574179,2.6892814040723003,-0.017517518685421226,0.22837287858427355,-1.4700337981408431
1.733010875307271,2.63827264548058,-0.0174789434897689,0.21518154395244168,-1.4568448234925993
1.7289986439199114,2.5902854498750862,-0.017410025095965533,0.20209841783445243,-1.4388703364605477
1.7250061769306888,2.5452939733222664,-0.01730707915814551,0.18913181305962917,-1.41574709181723
1.7210417715257407,2.5032703303428896,-0.017166011319663457,0.17629116936974934,-1.387089340582266
1.7171147220798728,2.4641843244455544,-0.01698224473136173,0.1635871427809812,-1.3524899176917822
1.7132354416549957,2.4280031609590047,-0.016750628528440087,0.15103167014555022,-1.3115230167055092
1.7094156077298164,2.3946911506178807,-0.016465318647032882,0.13863798499465638,-1.2637495529543223
1.7056683401232622,2.364209419392875,-0.01611961706213389,0.12642054739670527,-1.2087264298370768
1.7020084232944486,2.3365156508039,-0.015705746666681578,0.11439483163785155,-1.1460215929806747
1.6984525921445035,2.3115639027581416,-0.015214524202404567,0.10257689049916835,-1.0752374991846108
1.6950199119222793,2.2893045629488817,-0.014634869034328287,0.0909825861031063,-0.9960464865197538
1.6917323018048736,2.269684534722497,-0.013953045030069151,0.07962635499589477,-0.9082422599400306
1.6886152829425902,2.2526477742447852,-0.013151466815873269,0.06851938828854723,-0.8118116029253002
1.6856990829268237,2.2381363138614603,-0.012206794190791457,0.05766722374037643,-0.7070278875878594
1.6830203133730528,2.2260918666769207,-0.011086854102868766,0.047067099603440715,-0.5945599684927352
1.6806245866311946,2.216457933564566,-0.009745552348071708,0.03670623180833715,-0.4755725062532896
1.678570751621113,2.2091818835849253,-0.00811388252220289,0.026563768014639385,-0.35176512454888925
1.6769383268855766,2.204215476151081,-0.006081115178112833,0.016622383584017054,-0.22526828179808195
1.6758434606172046,2.2015095994985323,-0.0034394610686022797,0.006906978612067386,-0.09831203746353304
