x,y,v_x,v_y,omega
2.375,32.48,0.0,3.5897435897435894,-6.408163265306122
2.373600344389443,31.8417321234637,-0.015551729006191565,3.5021217051041624,-5.979912770568012
2.3696162385465507,31.21889406910582,-0.02871611369260703,3.418301121094519,-5.594690306081067
2.3634456679708817,30.6108257061721,-0.039845781592607966,3.3380140226134554,-5.246899641226889
2.3554282449005552,30.01691269704564,-0.049236696966572624,3.261019412124981,-4.931806510872275
2.3458545010851872,29.43658199944972,-0.05713823431529647,3.187099450051898,-4.645386926282825
2.3349735459963776,28.869297969155486,-0.06376126667147286,3.11605644210629,-4.384205449740829
2.3229994087876573,28.314558959290864,-0.06928470231430889,3.0477103341672644,-4.145316857591426
2.31011631370006,27.771894334320194,-0.07386079865899796,2.9818966099512942,-3.926186207827502
2.2964830863531507,27.24086183336114,-0.07761950519554803,2.918464511815966,-3.7246234975964545
2.2822368481607156,26.72104523018857,-0.08067203027595504,2.857275523434858,-3.538729965064102
2.26749612490456,26.212052247074684,-0.08311378368132677,2.798202066719405,-3.36685374275864
2.2523634710801046,25.71351268726746,-0.08502681436818052,2.741126375583096,-3.2075530643846544
2.236927692378466,25.225076756945708,-0.08648183787224802,2.6859395168808096,-3.05956560557344
2.2212657333963017,24.746413552296872,-0.0875399285962445,2.6325405347729314,-2.9217828308065243
2.2054442854726926,24.277209691227412,-0.08825393722163365,2.5808356993321935,-2.7932284453294116
2.189521159766403,23.81716807234813,-0.0886696817371407,2.53073784377093,-2.6730402280206507
2.173546462792162,23.366006746436888,-0.08882695130997922,2.482165777465097,-2.5604546605522245
2.1575636052356884,22.92345788768969,-0.08876035487306076,2.435043764170447,-2.4547938784682293
2.1416101696578616,22.489266853820336,-0.08850004043612786,2.3893010566001456,-2.355454557564137
2.125718658440214,22.063191325529722,-0.08807230642662271,2.344871479962224,-2.261898419130725
2.1099171398297045,21.645000517093756,-0.08750012257903429,2.301693058215195,-2.173644094024467
2.094229807063055,21.234474450857043,-0.08680357482818339,2.259707677748235,-2.0902601310529456
2.0786774631728573,20.831403289302177,-0.08600024617401744,2.2188607839725143,-2.011358972073098
2.0632779421060485,20.435586719118582,-0.08510554345718713,2.1791011069562893,-1.9365917462450266
2.048046475145644,20.046833382342804,-0.08413297832508822,2.1403804127745887,-1.8656437604363338
2.0329960102588918,19.664960350200523,-0.08309440930549329,2.1026532776952256,-1.7982305829098018
2.018137490850967,19.289792635764712,-0.08200025078256029,2.065876882702656,-1.7340946340029255
2.003480099443697,18.921162741965027,-0.08085965374266096,2.0300108261827092,-1.6730022111976455
1.9890314709918504,18.558910241850768,-0.07968066238896696,1.9950169528646329,-1.6147408873218014
1.9747978798691894,18.202881388331406,-0.07847035008504345,1.960859197350515,-1.5591172300520024
1.960784403981545,17.852928750901228,-0.07723493755544922,1.9275034407625298,-1.5059547987476274
1.9469950689771585,17.50891087710361,-0.07597989582662382,1.8949173792110556,-1.455092381217396
1.9334329751110686,17.17069197671038,-0.07471003601882097,1.8630704029359109,-1.406382438529908
1.9201004089685412,16.838141626786935,-0.07342958778703766,1.8319334851023799,-1.3596897306118012
1.9069989419526037,16.51113449598655,-0.0721422679456022,1.8014790793463362,-1.314890099281723
1.8941295171844919,16.18955008657188,-0.07085134058897284,1.7716810252611084,-1.2718693886678365
1.8814925262464683,15.873272492798947,-0.06955966983351079,1.7425144611048258,-1.2305224857516701
1.869087877008323,15.562190174422081,-0.06826976614588258,1.7139557430825707,-1.1907524661545583
1.8569150536172145,15.25619574418847,-0.06698382708865722,1.6859823706242045,-1.1524698323029814
1.844973169591349,14.955185768289923,-0.06570377319873778,1.6585729171374428,-1.1155918328322754
1.833261014837995,14.65906057882846,-0.0644312796163028,1.6317069657676928,-1.0800418535613123
1.8217770973126837,14.367724097432568,-0.06316780399826957,1.605365049742201,-1.0457488716328076
1.8105196799467556,14.081083669233244,-0.061914611178709174,1.5795285969169515,-1.0126469654973773
1.7994868133927158,13.799049906474416,-0.060672794977287225,1.554179878181161,-0.9806748743515071
1.788676365069389,13.52153654109151,-0.059443297504122874,1.529301959406682,-0.9497756014429378
1.7780860449302447,13.248460285645631,-0.058226926264147466,1.5048786566586254,-0.9198960563507319
1.7677134283272207,12.9797407020495,-0.05702436932500872,1.4808944944094888,-0.8909867319475278
1.757562056751672,12.715302016205968,-0.05576864818108619,1.4573131260742227,-0.8611843628852495
1.7476344282266487,12.455070951681044,-0.0545383354302851,1.4341431464249308,-0.8326292940021403
1.7379259848526056,12.198974687181142,-0.053333257614638675,1.4113709035739885,-0.805255403106845
1.7284322048619183,11.946942807177201,-0.0521531867263325,1.3889833186920308,-0.7790007351295323
1.7191486117085284,11.69890720149381,-0.05099784831133263,1.366967855567859,-0.7538071973810703
1.7100707817860794,11.454801970204453,-0.04986692860476531,1.3453124920916508,-0.7296202800877297
1.7011943509386316,11.21456333349941,-0.0487600808113214,1.3240056935199356,-0.7063887998614333
1.692515019908883,10.978129546217275,-0.04767693063033159,1.303036387392671,-0.6840646640043158
1.6840285588519612,10.745440816753419,-0.04661708111324417,1.2823939399835114,-0.6626026537585327
1.6757308110279963,10.516439230079232,-0.04558011693080998,1.262068134174108,-0.6419602248010592
1.6676176957735904,10.29106867462487,-0.0445656081181439,1.2420491486521348,-0.6220973234514301
1.6596852108407536,10.06927477279551,-0.04357311335782092,1.2223275383407777,-0.602976217210426
1.6519294341816777,9.851004814907114,-0.04260218285413295,1.2028942159747473,-0.5845613383817301
1.6443465252487148,9.636207696342378,-0.04165236084545362,1.1837404347445433,-0.5668191396484125
1.6369327258709638,9.42483385774106,-0.04072318779622553,1.164857771936777,-0.5497179605833766
1.6296843607618263,9.216835228051398,-0.03981420230530149,1.1462381135039132,-0.5332279041690464
1.6225978377056651,9.012165170280877,-0.03892494276315933,1.1278736395018583,-0.5173207224878321
1.6156696474661691,8.81077842979525,-0.0380549487867953,1.109756810338463,-0.5019697108223922
1.6088963634541533,8.612631085024564,-0.03720376245782439,1.091880353780254,-0.48714960947437086
1.602274641188171,8.417680500444167,-0.036370929386422446,1.0742372526685964,-0.4728365126729926
1.595801217577486,8.225885281706987,-0.03555599962118785,1.056820733300061,-0.45900778400138814
1.5894729100535328,8.037205232811367,-0.03475852842273993,1.0396242544290415,-0.44564197781947834
1.5832866155729677,7.851601315195921,-0.033978076916870326,1.0226414968536808,-0.4327187662082392
1.577239309512733,7.669035608659687,-0.03321421264129219,1.0058663535489274,-0.4202188710017374
1.5713280444751552,7.489471274012104,-0.03246650999846253,0.9892929203130931,-0.4081240005109225
1.5655565265505305,7.313096726556566,-0.03166146694181228,0.9704242736373176,-0.4461142480220743
1.559925284807074,7.1401093282283306,-0.0309078857632607,0.9516579300097572,-0.4852725725402446
1.5544252170101995,6.970490892053501,-0.030203978646455333,0.9329913608216893,-0.5254962890803493
1.5490475426726844,6.804223677181579,-0.029547958437044376,0.9144221377552263,-0.5666841105249487
1.5437838027565403,6.641290371050356,-0.02893804063122453,0.8959479303694685,-0.6087359203916098
1.5386258590420363,6.481674071952735,-0.028372445085485996,0.8775665040485249,-0.651552546514527
1.5335658932126526,6.325358271940189,-0.027849397463223756,0.8592757183130849,-0.6950355346264049
1.5285964057021246,6.172326839996995,-0.027367130431532227,0.8410735255001917,-0.7390869208007351
1.5237102143475605,6.022564005418264,-0.02692388461918045,0.8229579698190231,-0.7836090016800829
1.5189004528908332,5.876054341323101,-0.02651790934445363,0.8049271867938895,-0.8285041013723191
1.5141605693691025,5.732782748231809,-0.026147463119220504,0.7869794031093428,-0.8736743338432423
1.509484324434383,5.592734437633098,-0.02581081393321891,0.7691129368763424,-0.9190213595699898
1.504865789641583,5.455894915463368,-0.02550623932011755,0.7513261983428855,-0.9644461351442067
1.500299345744378,5.322249965415537,-0.025232026204380666,0.7336176910774761,-1.00984865442616
1.4957796810387065,5.191785631989223,-0.024986470525303298,0.715986013659363,-1.0551276797497984
1.4913017897945704,5.064488203187466,-0.024767876631763098,0.6984298619157229,-1.1001804615630206
1.4868609708182725,4.94034419275728,-0.024574556438212592,0.680948031753022,-1.144902444755865
1.482452826189208,4.819340321862107,-0.024404828329171527,0.6635394226377943,-1.1891869597806828
1.4780732602179492,4.7014635000635,-0.024257015795925506,0.6462030417911827,-1.2329248965012882
1.473718478675644,4.586700805476816,-0.024129445785242575,0.6289380091719821,-1.2760043585212921
1.469384988348766,4.475039463951205,-0.024020446735624975,0.6117435633348063,-1.3183102955342199
1.465069596978093,4.366466827107349,-0.023928346271852745,0.5946190682636141,-1.3597241110087135
1.4607694136465315,4.260970349046943,-0.023851468523274442,0.5775640212964345,-1.4001232422708056
1.4564818496871532,4.15853756152551,-0.023788131025372534,0.5605780622750347,-1.439380709772392
1.4522046201906966,4.059156047354115,-0.023736641157479504,0.5436609840738085,-1.4773646320423806
1.4479357462009403,3.9628134117657616,-0.023695292062033038,0.5268127446856905,-1.513937702508218
1.44367355769695,3.869497251447765,-0.023662357982304216,0.5100334810698132,-1.5489566240571395
1.4394166974734064,3.7791951209018144,-0.023636088945957975,0.49332352499630977,-1.582271496889272
1.4351641260442867,3.6918944957478814,-0.023614704710927723,0.4766834211585025,-1.613725154915515
1.4309151277113117,3.6075827325360343,-0.02359638787768365,0.4601139478620019,-1.6431524456976725
1.4266693179571206,3.5262470245704804,-0.023579276057772353,0.4436161406441446,-1.670379448755159
1.4224266523444273,3.447874353182204,-0.023561452972152893,0.42719131922560044,-1.6952226270288602
1.4181874371268832,3.3724514338095517,-0.023540938333891835,0.4108411182483168,-1.7174879064821316
1.4139523418055506,3.2999646561594,-0.023515676347583694,0.3945675223089187,-1.736969679353738
1.4097224138974274,3.2304000176249446,-0.0234835226315629,0.37837290585168804,-1.7534497276355703
1.4054990962202285,3.1637430490300673,-0.023442229337312416,0.36226007853584663,-1.7666960651874544
1.4012842470417273,3.0999787316560905,-0.023389428201591723,0.3462323367305692,-1.7764616998969003
1.3970801634939751,3.0390914043878148,-0.023322611217878396,0.3302935218058294,-1.782483321986981
1.3928896087148326,2.981064659698024,-0.023239108550370976,0.3144480858585244,-1.7844799317603606
1.3887158432546753,2.92588122708376,-0.02313606322915489,0.2987011654110779,-1.7821514308898343
1.384562661379712,2.873522842491038,-0.02301040204821503,0.28305866339693725,-1.7751772174961136
1.380434433022474,2.8239701022454504,-0.022858801921096995,0.2675273393318293,-1.7632148491238255
1.3763361522862692,2.777202300088991,-0.02267765070340155,0.2521149068510587,-1.7458988728750522
1.37227349362218,2.7331972461779834,-0.02246300111980898,0.23683013660459207,-1.722839973522792
1.368252877094149,2.691931067430197,-0.022210515858314305,0.22168296059302417,-1.693624665823622
1.3642815445780427,2.6533779895841896,-0.02191540098730897,0.2066845710292722,-1.6578158670926284
1.3603676493832875,2.6175101029945544,-0.021572323398860508,0.19184750218890909,-1.6149548453153397
1.356520362770688,2.584297116892653,-0.021175305630020177,0.17718567672108618,-1.5645652669914294
1.352750002382087,2.553706111107882,-0.020717587576658623,0.1627143875541431,-1.5061603937233305
1.349068190050955,2.525701300773907,-0.020191438324811208,0.1484501717122289,-1.4392549272496893
1.3454880504110218,2.5002438392282578,-0.019587891007778867,0.1344105121283309,-1.3633836039669018
1.342024468114592,2.4772916980988953,-0.01889635673032866,0.12061327819792918,-1.2781293858761065
1.3386944318472949,2.4567996820091906,-0.018104046239640712,0.10707578946545682,-1.183164885448028
1.335517510111822,2.4387196573846275,-0.01719508415450277,0.093813373029682,-1.0783111658571698
1.3325165307468065,2.423001095176211,-0.016149131012335206,0.08083731817494275,-0.9636174474651431
1.3297185793903041,2.4095920309039833,-0.014939217393247257,0.06815228484980479,-0.839461789621792
1.3271565024484189,2.398440498452679,-0.013528304183255546,0.05575363127581577,-0.7066635243985582
1.324871223586282,2.3894963318729303,-0.011863683173820581,0.043625997388060916,-0.566579617431545
1.3229154455031755,2.3827128427844677,-0.009867184416251739,0.03174610359487327,-0.4211293042797348
1.32136006651359,2.3780470565216376,-0.007414804356920117,0.020095965992142945,-0.27266627002668237
1.3203077539436843,2.375455003915171,-0.004277557530923074,0.00870461852415237,-0.12362245245302228
