x,y,v_x,v_y,omega
2.375,32.48,0.0,3.0769230769230766,-4.6938775510204085
2.3741330170254193,31.93218663406444,-0.009633144162005882,3.009892100138667,-4.420836352851304
2.3716497495168793,31.396216281231876,-0.017958717043993842,2.9453340424453747,-4.171361014450772
2.3677703491929987,30.871657212133545,-0.025145730999127203,2.8831000586471864,-3.9427943336565385
2.3626866813645884,30.358103364319014,-0.03133946709431821,2.823053805958718,-3.7328351812729643
2.356566265282062,29.855172218972772,-0.036665156044866726,2.76507003122175,-3.5394839539428022
2.3495556087039886,29.36250291331947,-0.04123102815594925,2.709033364926029,-3.3609973983345265
2.3417830395211046,28.879754554855662,-0.04513085165386943,2.654837284671858,-3.1958510211153346
2.3333611180222538,28.406604709558962,-0.04844605388891915,2.6023832186247957,-3.0427076737115817
2.3243886981085597,27.94274804098394,-0.051247500707682164,2.5515797655421366,-2.900391189391063
2.31495269355017,27.487895080952384,-0.053596994385536154,2.5023420125862605,-2.7678641742349974
2.305129595560268,27.04177111560352,-0.055548538835595525,2.4545909357344446,-2.6442092287836645
2.294986780020879,26.604115173050936,-0.05714941160206184,2.408252870405384,-2.5286130150955275
2.2845836362415004,26.174679100922024,-0.05844107483547959,2.3632590421380906,-2.420352693254246
2.273972543861511,25.75322672372691,-0.05945995160884374,2.3195451489187255,-2.31878433844647
2.2631997201846814,25.33953307138988,-0.06023808924482111,2.2770509881593917,-2.2233330195014904
2.2523059566740553,24.933383671433383,-0.06080372753991319,2.235720122468337,-2.133484275958237
2.2413272603922465,24.534573898276694,-0.06118178670240558,2.1954995792726564,-2.0487767761683817
2.2302954137301185,24.142908373932464,-0.061394287321237466,2.1563395801077054,-1.968795975870108
2.219238463733739,23.758200415082158,-0.061460712638541436,2.118193296006772,-1.8931686267979044
2.2081811506414533,23.38027152210722,-0.061398321720182635,2.0810166259370133,-1.8215580095777584
2.197145283820426,23.008950906164017,-0.0612224207356738,2.044767995654122,-1.7536597854552045
2.186150072096825,22.644075050831688,-0.06094659841545397,2.0094081747050985,-1.689198378155066
2.1752124144669716,22.28548730524344,-0.060582930805139476,1.974900109608751,-1.627923811043378
2.164347156326251,21.933037505943883,-0.06014215964731088,1.9412087714974238,-1.5696089362865107
2.1535673156323227,21.586581625004392,-0.05963384806300065,1.908301016719127,-1.5140470023069819
2.142884282807781,21.245981442182178,-0.059066516654128196,1.8761454590833049,-1.4610495138637731
2.1323079976671773,20.91110423913147,-0.05844776268591466,1.8447123525912172,-1.4104443458151237
2.121847106209688,20.58182251387177,-0.05778436461952424,1.8139734836276624,-1.3620740772793225
2.111509099739569,20.258013713891557,-0.05708237393735237,1.7839020717080218,-1.315794517677601
2.1013004384518403,19.939559986419972,-0.05634719592630114,1.754472677976267,-1.2714734001728902
2.0912266613420036,19.626347944535688,-0.05558366084965975,1.725661120738,-1.228989221431916
2.081292484059031,19.318268447904188,-0.054796086738928586,1.6974443973897824,-1.1882302095369903
2.071501886114463,19.015216397043485,-0.05398833486737878,1.6698006121735687,-1.149093404341292
2.0618581886823657,18.71709054011587,-0.05316385882259041,1.6427089092443787,-1.1114838366663722
2.052364124070877,18.423793291330632,-0.05232574797173136,1.6161494105915704,-1.0753137945402698
2.0430218978127326,18.13523056012138,-0.05147676600765015,1.5901031584001626,-1.040502166216524
2.0338332442064537,17.851311590332216,-0.05061938517322632,1.564552061479451,-1.00697385103818
2.0247994760393424,17.571948808711056,-0.04975581668356418,1.5394788454223285,-0.9746592303497328
2.0159215291359467,17.297057682065866,-0.04888803779861119,1.514867006190883,-0.9434936916415937
2.0072000022993803,17.026556582491963,-0.048017815941018865,1.490700766852485,-0.913417199959431
1.9986397368769835,16.760368324914882,-0.047096244307832574,1.4669465395595274,-0.8827403776651203
1.9902444642033932,16.498418290385708,-0.0461845631765052,1.4436093996535149,-0.8533561040848134
1.9820123391898727,16.240632653203026,-0.045283492529275715,1.4206754579318608,-0.8251954432036736
1.9739413974961666,15.986940035020272,-0.04439363740079427,1.3981314107654124,-0.7981938289307641
1.9660295750699874,15.737271402253405,-0.04351550066786221,1.375964508866437,-0.7722907437424855
1.9582747255082804,15.491559968931899,-0.0426494944622143,1.3541625280392084,-0.7474294241232342
1.95067463547436,15.249741104649388,-0.04179595035912338,1.3327137417664807,-0.7235565903092617
1.9432270383791275,15.011752247295625,-0.04095512847679514,1.311606895497532,-0.7006221980975322
1.9359296265116845,14.777532820274526,-0.04012722560590345,1.2908311825146737,-0.6785792107085697
1.9287800617844115,14.54702415393433,-0.03931238247490799,1.2703762212652838,-0.6573833888943081
1.9217759852396423,14.320169410955447,-0.03851069024474901,1.250232034055636,-0.6369930976618403
1.9149150254491825,14.096913515459434,-0.03772219631591663,1.2303890270111661,-0.617369128144325
1.9081948059238096,13.87720308561904,-0.03694690952155907,1.2108379712154298,-0.5984745332934402
1.9016129516373832,13.660986369564426,-0.03618480477206698,1.1915699849469292,-0.5802744761956891
1.8951670947590593,13.448213184394668,-0.03543582720931091,1.1725765169392997,-0.5627360899293007
1.8888548796772147,13.23883485811648,-0.03469989592229569,1.1538493305961048,-0.5458283479809788
1.882673967389879,13.032804174344122,-0.033976907270325846,1.135380489096747,-0.5295219443336656
1.8766220393286213,12.830075319605282,-0.033266737854758005,1.1171623413348024,-0.5137891824190078
1.8706968006758555,12.630603833108044,-0.032569247175971754,1.0991875086344935,-0.4986038722023616
1.8648959832292755,12.434346558833386,-0.031884280008249555,1.0814488721950313,-0.48394123473488454
1.8592173478615748,12.24126159982637,-0.031211668521760095,1.0639395612162568,-0.4697778135673372
1.8536586866186204,12.05130827456729,-0.030551234177733852,1.046652941662396,-0.45609139247436686
1.8482178244948098,11.864447075311528,-0.02990278942015989,1.0295826056238526,-0.44286091898691565
1.8428926209203564,11.680639628293797,-0.029266139184877662,1.0127223612398224,-0.43006643327452865
1.83768097099169,11.499848655698969,-0.028641082244752147,0.9960662231471431,-0.41768900195923986
1.8325858565763298,11.322258872695624,-0.027971300148136754,0.9771535880011202,-0.4545008438653618
1.8276071526946316,11.148064035481777,-0.02734763187073281,0.9583446032638375,-0.49252857755154855
1.8227366944533836,10.977245719140537,-0.02676857080980056,0.9396366894165934,-0.5316690514783778
1.8179665893626644,10.809785953923278,-0.02623259686485559,0.9210273685529577,-0.5718205724216304
1.81328921951541,10.645667207188623,-0.025738179215748804,0.9025142618320816,-0.6128826802187843
1.808697243295978,10.48487236576748,-0.0252837787779391,0.8840950872917424,-0.6547559235868284
1.8041835966741502,10.327384718689242,-0.024867850353483063,0.8657676580220004,-0.6973416360235908
1.7997414941378977,10.173187940203974,-0.024488844493767488,0.847529880703218,-0.7405417107802529
1.7953644293155784,10.022266073034313,-0.024145209087558253,0.8293797545152408,-0.7842583738598845
1.7910461753360023,9.874603511789438,-0.023835390685509685,0.8113153704278239,-0.828393953955176
1.7867807849730202,9.730184986471201,-0.0235578355698475,0.7933349108859351,-0.8728506481874431
1.7825625906199405,9.588995545999797,-0.02331099057548043,0.7754366499074552,-0.9175302824477204
1.7783862041381817,9.45102054168277,-0.023093303666283708,0.7576189536150756,-0.962334065068527
1.774246516624123,9.316245610546808,-0.022903224267702735,0.7398802812289507,-1.0071623324707506
1.7701386981381593,9.184656658446524,-0.022739203354116305,0.7222191865519692,-1.051914285333032
1.7660581974405,9.056239842858155,-0.022599693286541652,0.7046343199854742,-1.0964877137199063
1.7620007417793215,8.930981555258661,-0.022483147393221208,0.6871244311199921,-1.1407787094785313
1.7579623367785189,8.808868402982078,-0.022388019282361806,0.6696883719531536,-1.1846813640708562
1.7539392664745583,8.689887190434685,-0.02231276187275565,0.6523251007956643,-1.2280874498471654
1.7499280935548371,8.57402489953883,-0.022255826124147497,0.6350336869360664,-1.27088608258682
1.7459256598536168,8.461268669261415,-0.022215659444967013,0.6178133161463314,-1.312963362931467
1.7419290871660378,8.351605774067153,-0.02219070375035451,0.6006632971232657,-1.3542019941140278
1.737935778446068,8.245023601118259,-0.022179393138199714,0.5835830689755406,-1.3944808731428553
1.7339434194605707,8.141509626020976,-0.02218015114510366,0.566572209883172,-1.4336746523346828
1.7299499809791212,8.041051386894669,-0.02219138753766914,0.5496304470758018,-1.471653267803598
1.7259537215878815,7.94363645651098,-0.022211494587216624,0.5327576682985071,-1.5082814312091388
1.7219531912259314,7.8492524122177585,-0.022238842767784747,0.5159539349594926,-1.5434180807500824
1.7179472355541143,7.757886803324908,-0.02227177580796048,0.4992194971832716,-1.576915787070595
1.713935001279911,7.669527115586053,-0.0223086050165205,0.48255481102622216,-1.6086201094365062
1.7099159425773385,7.5841607323602815,-0.02234760278984256,0.46596055814903636,-1.6383688972636914
1.7058898287586748,7.501774891981416,-0.022386995195307794,0.4494376682827933,-1.665991531871269
1.7018567533752746,7.422356640797467,-0.022424953509138132,0.4329873448721917,-1.6913081032391266
1.697817144948253,7.3458927812692245,-0.022459584568879677,0.4166110943304948,-1.7141285166451639
1.6937717795568994,7.272369814433933,-0.022488919779493823,0.40031075939496985,-1.7342515244492709
1.6897217955439165,7.201773875946955,-0.022510902586982524,0.38408855712700657,-1.7514636791338338
1.6856687106327684,7.134090664811666,-0.022523374203555418,0.3679471221540048,-1.7655382052301898
1.681614441794574,7.0693053637963175,-0.02252405733193653,0.35188955579429676,-1.7762337902845522
1.6775613282515016,7.007402550418988,-0.022510537591090233,0.3359194817316004,-1.7832932990209067
1.67351215806241,6.948366097262554,-0.022480242287705676,0.3200411088954459,-1.7864424210325371
1.66947019880739,6.892179060269999,-0.022430416101406114,0.3042593021329209,-1.7853882716814506
1.6654392329749776,6.838823553580401,-0.022358093147619912,0.2885796610848515,-1.779817979865527
1.6614235987654928,6.788280609421779,-0.022260064735544444,0.2730086073442959,-1.76939731705142
1.6574282371659887,6.74053002161639,-0.02213284192561147,0.25755347938224576,-1.7537694525597487
1.6534587463422024,6.695550171436214,-0.021972611672014017,0.24222263373081285,-1.7325539650228445
1.6495214446555369,6.653317834963314,-0.021775184846494332,0.22702554930140478,-1.705346305721852
1.6456234439888051,6.61380797190154,-0.021535933672745568,0.21197292916273203,-1.6717180054984073
1.6417727356191545,6.576993497164146,-0.021249714878929245,0.19707679014163865,-1.6312180563700815
1.6379782917186996,6.542845038839744,-0.020910772903901333,0.18235052457394155,-1.5833761001561368
1.6342501868720818,6.511330689770681,-0.02051261428074125,0.1678089095267721,-1.5277083435021388
1.6305997460715487,6.482415765596691,-0.020047839058515895,0.1534680257397688,-1.463727520867837
1.627039728973046,6.4560625905519835,-0.01950790648040193,0.13934503031252524,-1.390958772821248
1.6235845655730723,6.432230344511787,-0.018882797963750676,0.1254577034674344,-1.3089640061726961
1.6202506671973227,6.4108750215449355,-0.018160517322354467,0.11182366283090621,-1.2173780999629569
1.6170568508591003,6.391949571285373,-0.017326330880117067,0.09845911783087925,-1.1159609918096154
1.6140249379222356,6.3754043164438094,-0.016361590640604093,0.08537704707538026,-1.0046696136569047
1.6111806247538054,6.361187752021191,-0.015241889008618606,0.07258477984260195,-0.8837514863679599
1.6085547824465853,6.349247808411796,-0.01393413662715966,0.060081260261782524,-0.7538549989917532
1.6061854434125227,6.339533549276112,-0.012391852640205049,0.04785495235695043,-0.616136450097504
1.6041209302190784,6.331996984104482,-0.010547182842507266,0.03588466066117246,-0.4723188280278975
1.6024250899087753,6.326594044195254,-0.00829548727197102,0.024148004996910253,-0.3246287298033956
1.6011874236890817,6.323282301638034,-0.0054563596135137876,0.012649134527741109,-0.17552809612613535
1.6005512152552304,6.322006782021543,-0.0016126229848360766,0.0015233056554834964,-0.02721641539518918
