x,y,v_x,v_y,omega
2.375,32.48,0.0,3.435897435897436,-5.673469387755102
2.373032275591816,31.701138063101745,-0.01711064702768701,3.3368150588699783,-5.215452201794807
2.367490139644157,30.944464326289754,-0.03108183947369378,3.242956565582115,-4.813450260556447
2.3590316639347972,30.208827675856554,-0.04247012321639215,3.153883872967448,-4.458692374625725
2.348199203130266,29.493171817670465,-0.05172518812735602,3.0692105460420227,-4.1440216579822735
2.335441378342829,28.79652434152095,-0.05921241871992644,2.9885935943885253,-3.8635583856776132
2.3211304759499685,28.117987479404054,-0.06523021078320669,2.9117269457584185,-3.612441325265602
2.3055763120603845,27.456730219998043,-0.07002338825665226,2.8383361795112156,-3.3866274028598844
2.28903734902435,26.81198152377927,-0.07379368162191342,2.768174222391167,-3.1827352210709603
2.2717296590690377,26.183024442260617,-0.07670797016340747,2.7010177908145105,-2.9979218743643514
2.2538341896274803,25.569190987959914,-0.07890480758926445,2.6366644204959644,-2.8297852784550788
2.2355026805221905,24.96985763372058,-0.0804996194132568,2.5749299641938888,-2.6762862124529088
2.2168625047829473,24.384441344136846,-0.08158886527581442,2.5156464669690277,-2.5356857079660786
2.1980206454944686,23.812396060282424,-0.08225338940660851,2.458660349156392,-2.4064944706963596
2.1790669757080154,23.25320957323131,-0.08256113047559506,2.4038308425924253,-2.2874317978719105
2.1600769735415737,22.706400733065735,-0.08256932314563796,2.3510286371082296,-2.1773920356645835
2.1411139775444945,22.171516948955233,-0.08232629422026455,2.300134702983072,-2.075417058116712
2.1222310663128567,21.648131943015862,-0.08187293388093687,2.251039261707128,-1.9806735810586051
2.10347262980295,21.135843726425044,-0.0812439053356447,2.20364088256084,-1.8924343782734945
2.0848756867500122,20.634272770976175,-0.0804686429507691,2.157845686559749,-1.8100626624878977
2.066470992265433,20.143060353132945,-0.0795721786542648,2.113566642511806,-1.7329990450489612
2.048283971457395,19.6618670508579,-0.07857582837215227,2.070722942488605,-1.6607506060227477
2.030335508338751,19.190371376173665,-0.07749776396388318,2.029239446069967,-1.592881698803148
2.012642613999679,18.728268528670462,-0.07635349115848103,1.9890461843926754,-1.5290061860683906
1.9952189937592903,18.27526925707911,-0.07515625006229118,1.9500779164016548,-1.4687808615131086
1.978075529558667,17.831098817647643,-0.07391735168226077,1.912273730828489,-1.4118998575951238
1.9612206910529362,17.395496019441403,-0.07264646141105002,1.8755766883562055,-1.3580898761438582
1.9446608865726667,16.968212347871493,-0.07135183841738242,1.8399334992082423,-1.307106108058629
1.9284007632532978,16.54901115877648,-0.0700405382727803,1.8052942320527157,-1.258728732005439
1.9124434640949488,16.1376669362641,-0.06871858484329867,1.7716120506636328,-1.2127599011832457
1.8967908484497968,15.733964608284396,-0.06739111641889094,1.7388429752468493,-1.1690211427970778
1.8814436813893056,15.33769891457148,-0.06606251019407684,1.7069456657350228,-1.1273511075676563
1.8664017965380353,14.9486738221721,-0.06473648851262347,1.6758812246943569,-1.0876036169932082
1.8516642362418407,14.566701984287995,-0.0634162097151537,1.6456130177761155,-1.0496459646073941
1.837229372339487,14.191604238605755,-0.06210434595748689,1.6161065098955245,-1.0133574345034853
1.8230950103067225,13.823209141681115,-0.060803149979598015,1.5873291155361255,-0.9786280062023662
1.8092584791233195,13.461352536291578,-0.059514512484773525,1.5592500617641945,-0.9453572197570578
1.795716708862386,13.105877148978216,-0.058240011523344654,1.5318402626998207,-0.9134531789909167
1.7824662977058487,12.756632215269523,-0.05698095505523921,1.505072204332302,-0.8828316741067461
1.7695035698410213,12.413473130321883,-0.055738417682392266,1.4789198386906586,-0.8534154076979148
1.7568461575992198,12.076263646368044,-0.05432603659414077,1.4533365435166195,-0.8197291206266143
1.7445096143803869,11.744872859159848,-0.05294825226527648,1.4283224756850748,-0.7877511013524443
1.7324860100314956,11.41917241554999,-0.05160482902943034,1.4038552948354293,-0.7573727644168915
1.7207674814181388,11.099038970340878,-0.05029541978236785,1.3799137939394686,-0.7284937360679654
1.7093462558125117,10.78435393389422,-0.04901958548395664,1.3564778273358162,-0.7010211355474826
1.6982146701142806,10.475003235666886,-0.0477768118919634,1.333528244206209,-0.6748689276012658
1.6873651864967303,10.17087710247636,-0.04656652391282257,1.3110468270157392,-0.6499573383489342
1.6767904049883187,9.871869850403549,-0.045388097899453056,1.289016234486973,-0.6262123276049552
1.6664830734292562,9.577879689334718,-0.044240872179350764,1.2674199487202553,-0.603565111571325
1.6564360951821602,9.288808539229215,-0.04312415605626689,1.246242226110218,-0.5819517305426802
1.6466425349237968,9.004561857276197,-0.04203723749472002,1.2254680517421117,-0.5613126568920923
1.6370956228001432,8.725048475172976,-0.04097938966748427,1.2050830969815634,-0.5415924391532281
1.627788757188434,8.450180445820308,-0.039949876521290825,1.185073679998156,-0.522739378492995
1.6187155062766019,8.17987289878699,-0.03894795749464267,1.1654267289872182,-0.5047052342876204
1.609869608641834,7.9140439039477535,-0.03797289150333738,1.1461297478757142,-0.4874449558823709
1.6012449729851896,7.65261434274554,-0.03702394029357128,1.127170784317434,-0.4709164379376582
1.592835677157796,7.395507786572033,-0.03610037124897921,1.1085383998000342,-0.45508029704798275
1.584635966595636,7.142650381799285,-0.03520145972632638,1.0902216417021116,-0.4398996675701019
1.5766402522638865,6.893970741030998,-0.03432649098453945,1.0722100171525706,-0.4253400148173014
1.5688431081979064,6.649399840174368,-0.03347476176311271,1.0544934685572602,-0.4113689639714666
1.5612392687159262,6.4088709209633095,-0.03264558155845403,1.0370623506693444,-0.39795614323701006
1.553823625368072,6.172319398590954,-0.03183827364027868,1.0199074090902587,-0.3850730399134222
1.5465912236773138,5.939682774134358,-0.03105217584457309,1.0030197600975295,-0.3726928681986914
1.5395372597200843,5.7109005514771525,-0.03028664117481479,0.9863908717042595,-0.360790447656192
1.532663607796796,5.486021866106579,-0.029484245114649865,0.9690759576050845,-0.3682370487707796
1.5259703368560098,5.265110913541715,-0.028718110892186528,0.9518888473067927,-0.3780583052320819
1.519449110538818,5.048138740024285,-0.027988204909482093,0.9348257050186775,-0.39012338630475984
1.5130916145521485,4.835077255725825,-0.02729436888764296,0.917882854098372,-0.4043057492053491
1.50688958401904,4.625899199019443,-0.02663633140025808,0.9010567694353939,-0.4204828275408539
1.5008348282857271,4.420578102437414,-0.026013718454634835,0.8843440704083261,-0.4385357327900694
1.49491925339617,4.219088260186318,-0.025426063193688307,0.8677415143838221,-0.45834896751918375
1.4891348824285906,4.021404697098326,-0.024872814785263677,0.8512459907291449,-0.4798101490841033
1.4834738738738786,3.8275031389034453,-0.02435334656005588,0.8348545153132978,-0.5028097426237071
1.4779285382222527,3.6373599837127912,-0.02386696345408386,0.8185642254750103,-0.5272408021912531
1.472491352912247,3.450952274607687,-0.023412908806835143,0.8023723754389419,-0.5529987189057104
1.4671549757848676,3.2682576732332933,-0.022990370561680396,0.7862763321644916,-0.5799809750310831
1.4619122571755176,3.0892544342986987,-0.022598486910929062,0.7702735716145847,-0.6080869029099149
1.4567562507670098,2.91392138088802,-0.022236351423921857,0.7543616754347875,-0.6372174476871342
1.4516802233185868,2.7422378804888687,-0.021903017692799537,0.7385383280361065,-0.667274932762151
1.4466776633783076,2.5741838216457573,-0.021597503527018672,0.7228013140779055,-0.6981628269004556
1.4417422890794092,2.409739591146483,-0.021318794724272436,0.7071485163505568,-0.7297855119206573
1.4368680551152662,2.2488860516491798,-0.021065848442187583,0.6915779140607773,-0.7620480498485613
1.4320491589823372,2.091604519656684,-0.020837596191977063,0.6760875815261383,-0.7948559483960549
1.4272800465759685,1.9378767437429403,-0.020632946472100656,0.6606756872890271,-0.8281149235787039
1.4225554172201342,1.7876848829332914,-0.02045078705689233,0.6453404936644489,-0.8617306582313593
1.4178702282091094,1.6410114851367155,-0.020289986952020087,0.6300803567405499,-0.8956085551149733
1.4132196989366923,1.4978394655231462,-0.020149398025518423,0.6148937268556985,-0.9296534832293174
1.4085993146869649,1.3581520847328719,-0.020027856319938687,0.599779149581473,-0.9637695158543872
1.404004830159668,1.2219329267975887,-0.01992418304786057,0.5847352672470691,-0.9978596587368597
1.399432272803165,1.0891658766437047,-0.019837185269556825,0.5697608210475852,-1.0318255667158451
1.3948779460286507,0.9598350970377858,-0.019765656247957484,0.5548546537864917,-1.0655672469431
1.3903384323808363,0.8339250048215163,-0.019708375472169682,0.5400157133115152,-1.0989827466955562
1.3858105967428256,0.7114202462686592,-0.01966410833661876,0.525243056713334,-1.1319678236012765
1.3812915896564073,0.5923056713792931,-0.01963160545832408,0.5105358553681073,-1.1644155959026665
1.3767788508435683,0.4765663069063706,-0.019609601609839336,0.49589340091817385,-1.1962161701622505
1.3722701130208492,0.36418732788622066,-0.0195968142398936,0.4813151123005319,-1.227256243576287
1.3677634061052786,0.25515402741738313,-0.019591941547676912,0.4668005439502426,-1.2574186778006766
1.3632570619192548,0.14945178440061113,-0.01959366006992089,0.4523493953260281,-1.2865820409139854
1.358749719511998,0.04706602891634759,-0.01960062173231272,0.43796152192841525,-1.314620113848123
1.3542403312273374,-0.052017795126246824,-0.01961145030821352,0.4236369480071939,-1.341401357315457
1.3497281696618266,-0.1478142704833587,-0.01962473721796698,0.4093758811850927,-1.3667883349637153
1.3452128356737854,-0.24033805068440728,-0.019639036591087986,0.39517872925878156,-1.3906370882154115
1.3406942676231866,-0.3296039082890019,-0.01965285950107622,0.38104611947684813,-1.412796458024956
1.3361727520447186,-0.41562678790213425,-0.01966466726820927,0.3669789206373607,-1.4331073486565298
1.3316489359823338,-0.49842186464083227,-0.019672863709050654,0.3529782683947939,-1.4514019286121902
1.3271238412437072,-0.5780046088411552,-0.019675786192051153,0.33904559421669456,-1.4675027641153755
1.3225988808680011,-0.6543908579016033,-0.0196716953358278,0.3251826584828478,-1.481221881216151
1.3180758781410407,-0.7275968962782713,-0.019658763159481472,0.3113915882707901,-1.4923597538302507
1.313557088539661,-0.7976395447772475,-0.019635059461211142,0.2976749204159653,-1.500704217144948
1.3090452250431848,-0.8645362604284159,-0.01959853616032063,0.2840356504637502,-1.506029309245439
1.3045434873169566,-0.9283052483666552,-0.01954700928514247,0.2704772881296038,-1.5080940491555286
1.3000555953538455,-0.9889655872819887,-0.019478138220171425,0.2570039198298279,-1.5066411676520681
1.2955858282594095,-1.0465373701132492,-0.01938940173144713,0.243620278702899,-1.5013958195296053
1.2911390689922995,-1.1010418617233029,-0.019278070156466872,0.23033182225408896,-1.4920643244017635
1.2867208560348633,-1.1525016752648654,-0.01914117295167311,0.21714481723775356,-1.4783330104728558
1.282337443187837,-1.2009409687558588,-0.01897546050073073,0.2040664305100225,-1.4598672761573
1.2779958689865814,-1.246385662925512,-0.018777358640621536,0.19110482313911512,-1.4363110440299125
1.273704037671941,-1.2888636805028426,-0.018542913660597553,0.17826924275070105,-1.4072868691333873
1.269470814294378,-1.3284052055481794,-0.018267724405168592,0.16557010546964113,-1.3723970916813064
1.2653061375145904,-1.3650429588026967,-0.01794685628863645,0.15301905326527537,-1.331226610141127
1.2612211552017476,-1.3988124808060363,-0.01757472904043095,0.1406289641550927,-1.2833481178544337
1.2572283903786623,-1.4297524079418267,-0.01714496507335395,0.12841388050395383,-1.2283310232376108
1.253341949014709,-1.4579047166032453,-0.01665017722189141,0.11638880350839677,-1.1657557885545806
1.2495777876015426,-1.4833148961512919,-0.016081661153469623,0.10456927951811079,-1.0952360860121333
1.2459540689636954,-1.5060319913032032,-0.015428935697375834,0.09297067832461081,-1.0164519298716148
1.2424916519282374,-1.5261084293763645,-0.014679038523997667,0.08160704405068579,-0.9291975775676736
1.2392147883734272,-1.543599521693082,-0.013815427170004661,0.07048941087728097,-0.8334478931434406
1.2361521462550173,-1.5585625151778046,-0.012816243424863068,0.059623575946396765,-0.7294446640370904
1.2333383506195448,-1.5710551030587396,-0.011651544709681463,0.04900762301823895,-0.6177975063048973
1.2308163610126843,-1.5811334501562229,-0.010278799697801228,0.03863017782943877,-0.49957898702926706
1.2286412601009182,-1.5888501672618531,-0.008635121274078011,0.028471710045632904,-0.37636885517244334
1.2268867253096765,-1.5942534979444147,-0.00662170299758943,0.018513774150575132,-0.25017562951416883
1.2256581595588858,-1.597391038651061,-0.004061477444068791,0.008769188515889585,-0.12315858614191666
