x,y,v_x,v_y,omega
2.375,32.48,0.0,2.4615384615384617,-6.775510204081632
2.3738154842778063,31.99274641483673,-0.011845157221935044,2.4109973900942103,-6.417917167271882
2.3704086070857477,31.515427184419107,-0.022223614698651875,2.3621949140820173,-6.088017650504471
2.365055473040428,31.047705108302733,-0.03130772575454602,2.3150258470817144,-5.782962010158474
2.3579999522831665,30.589263074475642,-0.03924748181806983,2.269394491189205,-5.500255120587419
2.349457823800914,30.139802281230534,-0.046173803004456324,2.225213441261875,-5.23770493909169
2.3396203159448614,29.699040678901014,-0.052201275556067406,2.182402582033342,-4.993379634081882
2.328657144150092,29.266711596579473,-0.05743044239162502,2.140888241182047,-4.765571657818875
2.3167191269255296,28.84256252552001,-0.06194972985400081,2.1006024694125833,-4.55276748897584
2.3039404463163278,28.426354036109366,-0.0658370762380169,2.0614824246938706,-4.35362203295689
2.290440607261984,28.01785880939223,-0.06916131430542068,2.0234698424774566,-4.16693687045493
2.276326140863761,27.616860767410152,-0.07198334967680683,1.9865105773433362,-3.991641702259499
2.261692089000333,27.223154289241123,-0.07435716895747518,1.950554204346939,-3.8267784618290848
2.2466233015899735,26.83654350175048,-0.07633070514612156,1.9155536705595064,-3.67148766469836
2.231195572787197,26.45684163578987,-0.0779465828816437,1.8814649890465822,-3.524996641391133
2.2154766382889703,26.083870439993007,-0.07924276210062305,1.8482469689220817,-3.386609362640454
2.199527052530969,25.717459645477927,-0.08025309547938834,1.8158609762286864,-3.2556976157662456
2.1834009617381365,25.357446475726036,-0.08100781244893887,1.7842707212902398,-3.1316933316079067
2.1671467864464122,25.003675196706496,-0.08153394046830088,1.7534420689051529,-3.014081894434184
2.15080782514735,24.655996702982225,-0.08185567252232441,1.723342868337551,-2.90239629428563
2.134422789055482,24.314268136094178,-0.08199468839635302,1.6939428005429198,-2.7962120034374025
2.1180262766045934,23.978352531993984,-0.08197043611253339,1.6652132404589988,-2.695142477035336
2.101649195098976,23.64811849469632,-0.0818003789436401,1.6371271325176473,-2.5988351931920044
2.0853191359433167,23.323439893664286,-0.08150021261295436,1.6096588778027232,-2.5069681605153655
2.069060709020684,23.00419558273369,-0.08108405661337392,1.5827842315032175,-2.419246831645836
2.052895841058157,22.69026913863353,-0.08056462301189694,1.556480209498395,-2.335401370271272
2.036844042194177,22.381548617376772,-0.07995336562790265,1.5307250030691768,-2.255184226573713
2.0209226444243984,22.07792632698357,-0.07926061206988039,1.5054979008628357,-2.178367982380078
2.005147015140115,21.779298615162226,-0.07849568077295326,1.480779217350585,-2.1047434326389216
1.9895467868349932,21.485572861358964,-0.07750660227826571,1.45647832068204,-2.0292300001981447
1.9741476993079565,21.19665970746115,-0.07648427299210166,1.4326532182960656,-1.9571674261214753
1.9589558588796483,20.912465716167404,-0.07543413129098038,1.4092866946414413,-1.8883569426081923
1.943976341281829,20.63290081245578,-0.07436104468721322,1.386362342474799,-1.8226134135723215
1.929213300044502,20.35787812677877,-0.07326936768605732,1.363864514295302,-1.759764249563197
1.9146700639221939,20.087313847616098,-0.07216299353702196,1.3417782773314029,-1.6996484208131026
1.900349224512045,19.821127082705978,-0.07104540056446822,1.3200893717698174,-1.6421155584780411
1.8862527150875685,19.55923972833415,-0.06991969368029508,1.2987841719484519,-1.5870251352510003
1.87238188155856,19.30157634611301,-0.06878864160979094,1.277849650262921,-1.534245717503418
1.8587375463676639,19.048064046730623,-0.06765471029917046,1.2572733435609795,-1.4836542819683047
1.8453200660458813,18.798632380192416,-0.06652009291865692,1.2370433218210801,-1.435135590733341
1.8321293830713015,18.553213232117237,-0.06538673682713868,1.2171481589307247,-1.3885816189776963
1.8191650726063366,18.311740725684402,-0.06425636782251028,1.197576905397592,-1.343891030473837
1.8064263846275836,18.074151128860457,-0.06313051196502083,1.1783190628418856,-1.3009686963951599
1.7939122819082192,17.840382766563053,-0.062010515228622866,1.1593645601321552,-1.259725253430438
1.78162147426467,17.610375937445916,-0.0608975612068662,1.140703731039217,-1.220076697614202
1.769552449436502,17.384072835012603,-0.05979268707481527,1.1223272932938986,-1.1819440106447003
1.757703500930385,17.161417472788784,-0.0586967979863567,1.1042263289443068,-1.1452528157835233
1.746072753125076,16.942355613302624,-0.05761068006673411,1.086392265917292,-1.1099330607181594
1.7346581839041146,16.726834700641206,-0.05653501214287883,1.0688168606968802,-1.0759187250248747
1.7234576450559447,16.514803796367545,-0.05547037633881913,1.0514921820397516,-1.0431475500980054
1.7124688806570723,16.306213518598124,-0.05441726764990478,1.03441059565445,-1.0115607896162326
1.701689543632325,16.10101598405498,-0.05337610259756743,1.0175647497769973,-0.9811029787994472
1.6911172106670016,15.899164752919177,-0.052347227055667016,1.00094756158101,-0.9517217208738536
1.6807493956284358,15.700614776324542,-0.05133092332999021,0.9845522043653488,-0.9233674893101493
1.6705923733420194,15.505517425596864,-0.05023929953417437,0.9664213029114459,-0.9346859202813256
1.660649396785964,15.314034404273425,-0.049190466026380004,0.948408910322957,-0.9480030900821861
1.650911989455374,15.12614233888721,-0.048183607279517544,0.9305117435392132,-0.9631933169014979
1.6413718449645969,14.941818498833296,-0.04721783762825455,0.9127266569999273,-0.9801340610533454
1.6320208403787522,14.761040769394999,-0.046292208230192415,0.8950506373830495,-0.9987056432694079
1.6228510482126968,14.583787625774207,-0.04540571343036297,0.8774807988248648,-1.018790970929912
1.6138547472125633,14.410038108031092,-0.04455729657096987,0.8600143786062803,-1.0402752710734606
1.6050244320270062,14.239771796841225,-0.043745855284601814,0.8426487332923812,-1.0630458290516873
1.5963528218679799,14.07296878998044,-0.042970246305660854,0.8253813353154609,-1.0869917317122872
1.5878328682542686,13.909609679449407,-0.042229289831452424,0.8082097699948667,-1.11200361400348
1.5794577619249988,13.749675529150899,-0.04152177346124742,0.791131732990207,-1.1379734078943706
1.5712209390050114,13.593147853033102,-0.04084645573862675,0.7741450281877604,-1.1647940924989075
1.5631160864991958,13.440008593611989,-0.04020206931952939,0.7572475660233631,-1.1923594442760144
1.5551371471886806,13.290240100784786,-0.03958732378562283,0.7404373622486704,-1.2205637861547987
1.5472783239981307,13.143825110844766,-0.039000908119874764,0.7237125371515415,-1.249301734401197
1.539534083900293,13.000746725605069,-0.038441492858502804,0.7070713152454366,-1.2784679420006584
1.5318991614213635,12.860988391535805,-0.037907731930789446,0.6905120254472087,-1.3079568372800987
1.5243685618087301,12.724533878814327,-0.03739826419554623,0.6740331017675774,-1.3376623564309236
1.5169375639211489,12.591367260183173,-0.03691171468026685,0.657633084543977,-1.367477668522961
1.5096017229005025,12.461472889503629,-0.0364466955261945,0.6413106222514484,-1.3972948915162007
1.5023568726839218,12.334835379885092,-0.03600180663961362,0.6250644739339031,-1.4270047976829054
1.495199128415298,12.21143958126115,-0.03557563604662565,0.6088935123055219,-1.4564965067466176
1.4881248888160905,12.091270557272559,-0.035166759945447365,0.5927967275803974,-1.4856571649266967
1.481130838576862,11.97431356130473,-0.034773742446837626,0.5767732320978999,-1.5143716079474627
1.4742139508332215,11.860554011512757,-0.03439513498956896,0.5608222658218136,-1.542522005930373
1.467371489792878,11.749977464650257,-0.034029475413865584,0.5449432028031889,-1.5699874879372033
1.4606010135843543,11.642569588498912,-0.03367528667137082,0.529135558710279,-1.5966437437741678
1.4539003774026753,11.53831613267348,-0.03333107514542038,0.5133989995440377,-1.6223626005049387
1.4472677370331224,11.437202897551611,-0.032995328550107166,0.49773335167463495,-1.6470115709602102
1.4407015528410376,11.3392157010488,-0.032666513370739204,0.482138613353457,-1.6704533713812333
1.4342005943237932,11.244340342925831,-0.032343071801706355,0.46661496787623113,-1.6925454052069981
1.4277639453305873,11.152562566278576,-0.03202341813035184,0.4511627985963104,-1.7131392099273945
1.4213910100668499,11.063868015817672,-0.03170593450702353,0.4357827060127231,-1.7320798639034802
1.4150815200129632,10.978242192497891,-0.03138896603184212,0.4204755271850993,-1.7492053501375797
1.4088355419020209,10.89567040400373,-0.031070815077582106,0.40524235775648887,-1.7643458742123328
1.40265348691876,10.816137710538644,-0.030749734755028398,0.39008457689438925,-1.7773231340824769
1.3965361213020868,10.739628865300375,-0.03042392141170216,0.37500387548828934,-1.7879495401998131
1.3904845785572992,10.666128248954951,-0.030091506036171507,0.3600022879659385,-1.7960273857266484
1.3845003735119672,10.595619797347762,-0.029750544417148903,0.34508222810596767,-1.8013479685521538
1.3785854184824962,10.528086921614701,-0.02939900587756289,0.33024652922465364,-1.8036906697601405
1.372742041858112,10.463512419783317,-0.02903476036627805,0.3154984890891809,-1.8028219975158453
1.3669730094574513,10.401878378890085,-0.028655563640328795,0.3008419198431508,-1.7984946116225657
1.3612815490731576,10.34316606659587,-0.02825904020260815,0.28628120309900396,-1.7904463530645895
1.355671378696406,10.287355811273784,-0.027842663564906455,0.27182135012187375,-1.7783993158570364
1.3501467390129156,10.234426869596682,-0.027403733269998183,0.25746806664914934,-1.7620590170982904
1.344712430895201,10.184357280803269,-0.02693934790714701,0.24322782128498904,-1.7411137475660898
1.3393738587986523,10.137123707127692,-0.026446373058338423,0.22910791547076143,-1.7152342227383433
1.334137081226509,10.092701260420071,-0.025921402663095384,0.2151165516054425,-1.6840737072387135
1.3290088698000646,10.051063315883997,-0.025360711601348517,0.2012628937553077,-1.6472688605554187
1.3239967790169858,10.012181315283527,-0.024760196229440482,0.18755711224938,-1.6044416566990252
1.319109229599326,9.976024564167417,-0.02411529794715659,0.17401039891171693,-1.5552028758480463
1.314355609576372,9.942560030950663,-0.023420902282383707,0.1606349332558268,-1.4991578646117856
1.3097463991559568,9.911752160507845,-0.022671201921768285,0.14744377117234,-1.4359155260662382
1.3052933283867807,9.88356272177004,-0.02185950576999341,0.13445061620572302,-1.3651018383710454
1.301009581184926,9.857950718155596,-0.020977966248552124,0.12166941993870777,-1.286379599313726
1.2969100663773483,9.83487240168304,-0.02001718182722434,0.10911374478685527,-1.1994764916006562
1.2930117873331626,9.814281445540175,-0.01896560861463181,0.09679581664180731,-1.1042237880279533
1.2893343584730084,9.796129342645465,-0.01780867998690931,0.08472521230531108,-1.0006076770513663
1.285900742404886,9.780366101447505,-0.01652748069431307,0.07290719967428759,-0.8888335236796494
1.2827383205013996,9.766941288103713,-0.015096738340552009,0.061340933763627696,-0.7693991219217873
1.279880472779559,9.755805385361349,-0.013481738877854567,0.05001809366000079,-0.6431645864169242
1.277368959834758,9.746911252687003,-0.011633390570155281,0.03892323308345409,-0.5113933830163857
1.275257675129344,9.740215098624809,-0.009479456483983845,0.028038307538481317,-0.3757244422032785
1.2736191942673512,9.735675608775498,-0.0069053521359460236,0.017356590954623507,-0.23802933013689073
1.27255921735515,9.733247546376305,-0.00369441698606391,0.006924033037302298,-0.10012528749925528
