x,y,v_x,v_y,omega
2.375,32.48,0.0,2.5128205128205128,-7.020408163265306
2.3737431242481417,31.982664621558293,-0.012568757518581001,2.4605332715965216,-6.643282702212426
2.370130469589451,31.495602664192383,-0.023557789068329005,2.4100863020625996,-6.295966870568433
2.3644590888902046,31.01845745893801,-0.03315601792413418,2.3613657504811383,-5.975333834533796
2.3569907472120297,30.550894054642267,-0.041527398857616485,2.314268292476264,-5.678653184736836
2.347956540934329,30.092597248099608,-0.04881466391938832,2.268699772950337,-5.403532308349513
2.3375608319726116,29.643269863762516,-0.05514242569778486,2.224574070420586,-5.147867714702382
2.3259846129953106,29.202631242527755,-0.06061976407522668,2.1818121419270056,-4.909804395231426
2.313388397142636,28.7704159069033,-0.0653423944515181,2.140341214317558,-4.687701714503348
2.2999147082635276,28.34637237596732,-0.06939449433956493,2.1000940950422367,-4.480104644850511
2.2856902339047642,27.93026210834409,-0.07285024924807033,2.061008581190066,-4.285719399244188
2.2708276923298922,27.521858555243064,-0.07577516650064878,2.023026949820199,-4.103392704321709
2.2554274560655743,27.12094630866218,-0.07822719614253215,1.986095515988642,-3.932094101589667
2.239578967384908,26.727320332314317,-0.08025769066413138,1.9501642474899927,-3.7709007797008662
2.2233619753762435,26.340785264826074,-0.08191222942251264,1.9151864273924288,-3.6189845316829903
2.2068476195342313,25.96115478637948,-0.08323132899761117,1.881118357073492,-3.4756005035436943
2.1900993809339653,25.58825104129599,-0.0842510570050487,1.8479190937614272,-3.340077458892416
2.173173918843888,25.22190411015729,-0.08500356389572176,1.8155502176256082,-3.211809331212176
2.1561218079695195,24.861951525965114,-0.08551754484796367,1.7839756242961184,-3.090247873558985
2.1389881892965206,24.508237829598514,-0.08581864188202692,1.7531613393698913,-2.974896246589262
2.12181334563759,24.16061416046031,-0.08592979470727685,1.723075352012171,-2.8653034113331266
2.1046332114189843,23.818937878737778,-0.0858715474787793,1.6936874652131608,-2.761059214148755
2.0874798249174678,23.483072216153396,-0.08566231753638907,1.6649691606306642,-2.6617900686782487
2.0703817300355962,23.15288595246472,-0.08531863128232321,1.6368934762560419,-2.5671551540645305
2.0533643337485694,22.828253115299592,-0.08485533158794437,1.6094348953952637,-2.476843060726776
2.036450224541823,22.509052701193156,-0.08428576047952166,1.5825692456690847,-2.390568825064287
2.0196594564624717,22.19516841593483,-0.08362192031398999,1.5562736069141758,-2.3080713029152697
2.0030098028109338,21.886488432541746,-0.08287461620139153,1.5305262270166653,-2.229110838719954
1.9865169829861609,21.582905165356486,-0.0820535820463373,1.5053064448359719,-2.153467193355615
1.9701948655560537,21.284315058924477,-0.08116759225473547,1.4805946194840813,-2.0809376987106574
1.9540723220527711,20.990625740771144,-0.08005784277808922,1.4562985620492495,-2.0062919515593114
1.9381744024367762,20.701748077807192,-0.07892135338186115,1.4324780675902762,-1.9350561164697884
1.9225059521472285,20.417588677396573,-0.0777631495136148,1.4091159365159136,-1.8670338541504534
1.9070708656134445,20.13805750613841,-0.07658771582422563,1.386195776065738,-1.8020422853250342
1.8918721888765875,19.863067733340753,-0.07539905154434368,1.3637019519108102,-1.739910919831626
1.8769122117236676,19.592535583821146,-0.07420071998485521,1.341619543285248,-1.6804806825029088
1.8621925504429178,19.32638019935844,-0.07299589282264234,1.319934301341793,-1.6236030260390941
1.8477142221853176,19.064523508178702,-0.0717873897533615,1.2986326104556205,-1.5691391221806799
1.8334777118076155,18.80689010191032,-0.07057771402365726,1.2777014522281653,-1.5169591234490962
1.8194830319757729,18.553407119490792,-0.06936908429476914,1.2571283719671145,-1.4669414885678047
1.8057297772226293,18.304004137550045,-0.06816346323666644,1.2369014474403413,-1.4189723654197635
1.7922171725784004,18.058613066833935,-0.06696258320562339,1.2170092597207856,-1.372945026052567
1.7789441173260738,17.817168054266215,-0.06576796931764278,1.197440865956415,-1.3287593488213651
1.76590922437485,17.579605390279106,-0.06458096019459324,1.1781857739146986,-1.2863213432715792
1.7531108556925215,17.345863421071165,-0.06340272662869308,1.1592339181646947,-1.2455427138168982
1.7405471541913027,17.115882465477483,-0.06223428838349592,1.1405756377721188,-1.2063404586702937
1.7282160724204203,16.889604736160898,-0.06107652932532624,1.1222016553937462,-1.168636500843139
1.7161153983821114,16.66697426485478,-0.05993021105776341,1.1041030576673996,-1.132357348345398
1.704242778755043,16.447936831407773,-0.05879598521292066,1.086271276802673,-1.097433781003014
1.6925957397800908,16.232439896398947,-0.05767440453659967,1.0686980732855738,-1.063800561561173
1.6811717060374658,16.020432537108636,-0.056565932889652754,1.0513755196175232,-1.0313961689676683
1.6699680173210185,15.811865386645312,-0.05547095427481853,1.0342959850157125,-1.000162551932258
1.6589819437948656,15.606690576042965,-0.05438978098670934,1.0174521210077625,-0.9700449010384545
1.6482106995989607,15.404861679156287,-0.05332266097234223,1.0008368478590222,-0.9409914378460038
1.63765145505368,15.206333660192811,-0.05226978448046499,0.9844433417757457,-0.9129532195675091
1.6273105856297918,15.01125769309892,-0.05113890975841745,0.9663163291631858,-0.9245731111205243
1.6171914428696161,14.819795296791586,-0.05005251784333946,0.9483076339101617,-0.9381861401887769
1.6072852199336447,14.63192313544625,-0.04900971151637325,0.9304139795431908,-0.953666704719581
1.5975832960344618,14.447618514807136,-0.04800952747545529,0.9126322268479422,-0.9708923474780969
1.5880772489786317,14.266859355261097,-0.047050943082847296,0.894959368612461,-0.9897434737235099
1.5787588664175514,14.08962416591455,-0.046132882527954375,0.8773925248530016,-1.010103076880376
1.5696201559200893,13.915892019578614,-0.04525422244666488,0.8599289385063549,-1.0318564710390794
1.5606533539719434,13.745642528570407,-0.04441379703479511,0.8425659715756969,-1.054891029145624
1.5518509339994857,13.578855821240825,-0.04361040268978082,0.8253011017201204,-1.0790959257590493
1.5432056135093577,13.415512519140698,-0.04284280221150056,0.8081319192811596,-1.1043618832646702
1.534710360429206,13.2555937147383,-0.042109728590016264,0.7910561247428265,-1.130580920433096
1.5263583987296994,13.099080949601518,-0.041409888405051096,0.774071526624983,-1.1576461022085194
1.5181432134032775,12.945956192957688,-0.040741964859166965,0.7571760398133143,-1.1854512895948877
1.5100585548709775,12.796201820543075,-0.04010462046383216,0.7403676843327974,-1.2138908884851012
1.5020984428851087,12.649800593652252,-0.03949649939485748,0.7236445845754194,-1.2428595962459887
1.4942571699925224,12.506735638295005,-0.038916229531003786,0.707004968997046,-1.2722521448301722
1.4865293046207322,12.366990424365017,-0.038362424186899176,0.6904471703028459,-1.3019630391346253
1.4789096938471697,12.230548744720174,-0.037833683548724246,0.6739696261455854,-1.3318862892643173
1.4713934659104573,12.097394694068964,-0.03732859581840224,0.6575708803665274,-1.361915135287351
1.463976032521693,11.967512647550844,-0.03684573806923755,0.641249584814652,-1.39194176298499
1.4566530910334643,11.84088723889072,-0.03638367681305098,0.6250045017865893,-1.4218570090054996
1.4494206265245762,11.717503337998348,-0.035940968275829425,0.6088345071371045,-1.4515500537245094
1.4422749138594229,11.597346027872806,-0.035516158375704814,0.5927385941183315,-1.4809080999964612
1.435212519782486,11.480400580659438,-0.0351077823936623,0.5767158780153478,-1.509816035851834
1.4282303051107492,11.366652432692277,-0.03471436432370607,0.5607656016562657,-1.5381560790537885
1.4213254270898554,11.256087158337955,-0.03433441588523266,0.5448871418869439,-1.565807401276938
1.41449534198373,11.148690442437875,-0.03396643517601981,0.5290800171138728,-1.5926457295123366
1.4077378079721812,11.044448051123094,-0.033608904939468685,0.5133438960339318,-1.6185429221401058
1.401050888436788,10.943345800751025,-0.03326029041446231,0.49767860768674055,-1.6433665169499951
1.3944329557223083,10.845369524683914,-0.03291903673033533,0.48208415298438473,-1.6669792482390031
1.3878826954689867,10.750505037596021,-0.03258356580288013,0.466560717894533,-1.6892385299863273
1.3813991116207078,10.658738096958924,-0.03225227267991107,0.4511086884764267,-1.7099959020173061
1.3749815322250662,10.570054361311794,-0.03192352127650411,0.43572866799488236,-1.7290964360453736
1.368629616154375,10.484439344875799,-0.03159563943040801,0.4204214963650544,-1.7463780985610393
1.3623433608916342,10.40187836801832,-0.03126691319699964,0.40518827220973164,-1.761671067771538
1.3561231115429202,10.322356503013307,-0.03093558029014,0.3900303778403855,-1.7747970022575885
1.3499695712579225,10.245858514479135,-0.030599822559836516,0.3749495075013473,-1.785568259808471
1.3438838132640432,10.172368793804942,-0.030257757378956113,0.3599476992405828,-1.7937870661696962
1.337867294747324,10.101871286802268,-0.029907427788235554,0.34502737078617385,-1.7992446353953047
1.3319218728465172,10.034349413742849,-0.029546791219833647,0.3301913598080166,-1.801720246430323
1.3260498230663178,9.969785980870139,-0.029173706582161205,0.3154429689190648,-1.8009802848689513
1.320253860464211,9.908163082407825,-0.028785919438908306,0.30078601570408103,-1.7967772651208709
1.314537164025597,9.84946199204412,-0.028381044947231964,0.28622488793296985,-1.78884885729165
1.308903404718379,9.793663042862253,-0.027956548124947064,0.2717646038856914,-1.7769169561025053
1.3033567778178623,9.74074549474015,-0.027509720880219704,0.25741087733535095,-1.7606868477762785
1.2979020402260741,9.690687388393574,-0.027037655037662315,0.24317018613041652,-1.7398465573064967
1.2925445536925895,9.643465385542793,-0.026537210297185056,0.2290498423773884,-1.7140664961392704
1.2872903351017049,9.599054595225489,-0.02600497561166076,0.21505806079563808,-1.6829995835334954
1.282146115362576,9.557428387178255,-0.025437221779628833,0.20120401967668183,-1.6462820898973543
1.277119408986372,9.518558194637674,-0.02482984198241137,0.18749790572913844,-1.603535555502741
1.2722185972547626,9.482413311111575,-0.024178275333683337,0.1739509295318537,-1.5543702838009816
1.267453029130261,9.44896068897133,-0.02347740591133303,0.16057529187059189,-1.4983911078037058
1.262833145971947,9.418164752543575,-0.022721425671807044,0.14738407240693863,-1.4352063934858887
1.258370639076481,9.389987245238352,-0.021903643282854077,0.13439100064527643,-1.3644415831794747
1.25407865364725,9.364387139621549,-0.021016211009458212,0.12161005552276606,-1.2857589822431594
1.2499720598937882,9.341320651403553,-0.02004972652515854,0.10905482665720753,-1.1988858917820693
1.2460678229123503,9.320741412301057,-0.01899264328922066,0.09673756436775109,-1.1036534160119227
1.2423855197637266,9.302600869551792,-0.017830388197017075,0.08466786312489358,-1.0000479332500227
1.2389480776867892,9.286848983598755,-0.016544032572356662,0.0728509964054899,-0.888275546056357
1.235782846537488,9.273435273265271,-0.015108278920653914,0.06128610692936147,-0.7688355449250652
1.2329231817032373,9.26231017855778,-0.013488369421852789,0.04996484014555686,-0.6425904650478476
1.2304108308543005,9.253426524571484,-0.011635139067516412,0.03887169971738418,-0.5108070974434726
1.228299694226041,9.24674049466277,-0.009476227215079715,0.027988599369765048,-0.3751281978869552
1.2266623902338052,9.242210749760453,-0.0068968127072778955,0.017308849653423823,-0.2374286905123804
1.2256047514280073,9.239791988953627,-0.0036795753507000714,0.006878758414847993,-0.0995271724540111
