x,y,v_x,v_y,omega
2.375,32.48,0.0,3.230769230769231,-2.4897959183673475
2.374318155801078,31.810095741831763,-0.006493754275446909,3.1492713232139504,-2.3158962689895835
2.3723829435975348,31.156926520154055,-0.011936838139253315,3.0713879308594563,-2.1602873679974595
2.369397847037275,30.519759489267003,-0.016492652910836948,2.9968695061600923,-2.020491844901147
2.365534918257863,29.897911793179457,-0.02029714498832638,2.9254895041974858,-1.8944268137353708
2.3609400138719114,29.29074601792457,-0.023463849163590646,2.85704168870621,-1.780332845876832
2.355737077811164,28.697666168646027,-0.026087922843530165,2.791337828232294,-1.6767171009273045
2.350031659983549,28.118114096727254,-0.028249389800419477,2.7282057138512417,-1.5823075329736407
2.343913819142929,27.55156631513215,-0.030015761062630722,2.667487444197404,-1.4960158159064094
2.3374605271888234,26.997531150377597,-0.03144416230980486,2.609037934417365,-1.4169071738828563
2.3307376679811673,26.455546187793836,-0.03258306823929947,2.5527236139994027,-1.3441757112804127
2.3238017049658013,25.925175973408315,-0.03347372238323321,2.498421284910316,-1.277124146057326
2.3167010771939247,25.406009941253913,-0.03415130401559251,2.446017116560176,-1.215147086798841
2.3094773717369756,24.897660539408978,-0.03464589081249114,2.395405758153496,-1.1577171753653457
2.3021663113351094,24.399761531819866,-0.03498325587194988,2.346489552218997,-1.1043735574965405
2.2947985888328986,23.911966456086066,-0.035185529863394856,2.299177835721954,-1.0547122529358188
2.2874005741385517,23.43394722001989,-0.03527175293990771,2.253386317289255,-1.0083780820305446
2.2799949147771406,22.96539282201836,-0.03525833621638753,2.2090365208205855,-0.9650578728792198
2.2726010473506117,22.506008182176398,-0.03515944879817247,2.1660552871980774,-0.9244747261089478
2.2652356341790147,22.055513072685425,-0.034987343312275584,2.1243743270016577,-0.886383156437911
2.257912936931331,21.613641137446052,-0.03475263047519062,2.0839298181352137,-0.8505649637172097
2.250645137045457,21.180138992015685,-0.03446451129503321,2.044662043106381,-0.8168257130006492
2.243442611094779,20.754765396041538,-0.03413097394951899,2.0065150614093223,-0.7849917247821508
2.2363141679118774,20.337290491222415,-0.03375896112573646,1.9694364130585216,-0.7549074939695107
2.2292672531716082,19.927495098619026,-0.03335451259111192,1.9333768498309076,-0.7264334702868159
2.2223081262209403,19.525170069809874,-0.032922886939059114,1.8982900912086147,-0.6994441442853883
2.2154420131854846,19.130115686982283,-0.03246866577956689,1.864132602387502,-0.673826392520179
2.2086732397537157,18.74214110756769,-0.03199584309442335,1.8308633920372097,-0.6494780431293177
2.2020053465161604,18.361063849487387,-0.03150790202515114,1.7984438277751753,-0.6263066293669516
2.195441189299554,17.98670931347757,-0.03100788099014827,1.7668374675564285,-0.6042283038441653
2.188983026569892,17.618910339318326,-0.030498430720918512,1.7360099053887392,-0.5831668905375054
2.182632595671071,17.257506793106344,-0.029981863553566003,1.7059286299634602,-0.5630530551958706
2.1763911794073185,16.902345182990423,-0.029460196101221324,1.6765628949501035,-0.543823577747964
2.170259664259606,16.5532783010374,-0.028935186257945326,1.6478835998405874,-0.5254207127919542
2.1642385913419684,16.21016488911739,-0.02840836533860142,1.6198631803499577,-0.50779162632364
2.158328201047523,15.872869326894556,-0.027881066037071515,1.5924755074865484,-0.49088789860003196
2.1525284722014315,15.541261340186178,-0.027354446782845838,1.565695794498012,-0.4746650844994551
2.1468391564252784,15.21521572811077,-0.0268295129900416,1.5395005109820739,-0.45908232397407034
2.14125980832117,14.894612107587662,-0.026307135620518337,1.5138673035237147,-0.44410199623463115
2.135789812001739,14.57933467387775,-0.025788067421676723,1.4887749222849902,-0.4296894121919668
2.130435790695598,14.269272485654675,-0.02520261168442727,1.4641982988871503,-0.4138175589601372
2.125203531006167,13.964318710656496,-0.024628432976820245,1.4401233677621805,-0.3986950865999814
2.120090650039511,13.664369920462779,-0.024065671467525238,1.416531776939899,-0.38427755764836374
2.115094741780342,13.36932645005156,-0.023514407191225044,1.3934060365002663,-0.3705236692343811
2.110213388828261,13.079092222089422,-0.022974668542879082,1.370729467901045,-0.3573949970464777
2.1054441724633968,12.793574581491484,-0.022446439693925176,1.3484861568412327,-0.3448557629868542
2.1007846812533737,12.512684139538816,-0.021929667068198155,1.326660909374645,-0.3328726240706631
2.096232518386524,12.236334626897989,-0.021424264997036428,1.3052392110141813,-0.32141448040463944
2.0917853078928195,11.96444275493947,-0.02093012065729561,1.2842071885907793,-0.3104523003227155
2.0874406998936497,11.696928084798959,-0.020447098382416037,1.2635515746521768,-0.2999589609693838
2.083196375003873,11.433712903668894,-0.019975043424980753,1.243259674205589,-0.289909102809027
2.079050047994146,11.174722107846627,-0.01951378523908366,1.2233193336255421,-0.2802789967044813
2.0749994708081245,10.919883092101774,-0.01906314034207583,1.2037189115635483,-0.27104642235364745
2.0710424350174,10.669125644958022,-0.01862291480767791,1.1844472517102724,-0.2621905570014859
2.0671767737868274,10.422381849514728,-0.018192906435873374,1.1654936572734687,-0.2536918734583983
2.063400363413935,10.179585989461142,-0.017772906639290428,1.1468478670463973,-0.24553204655664582
2.0597111244983237,9.940674459961329,-0.017362702080820396,1.1285000329518062,-0.23769386726571384
2.0561070227900826,9.705585683111014,-0.01696207609290418,1.1104406989559665,-0.23016116376678095
2.052586069760286,9.474260027688779,-0.01657080990515906,1.0926607812558036,-0.222918728856914
2.0491463229313513,9.246639732943674,-0.01618868370374004,1.0751515496499395,-0.21595225311633404
2.0457858860004468,9.022668836179218,-0.0158154775429687,1.057904610011544,-0.2092482633280056
2.042502908785073,8.802293103910333,-0.015450972127262983,1.040911887787341,-0.20279406568869232
2.0392955870163925,8.585459966385098,-0.015094949479215454,1.0241656124530063,-0.19657769339519615
2.0361621620027606,8.372118455277175,-0.014747193507754351,1.0076583028605621,-0.19058785822936955
2.0331009201831387,8.162219144367896,-0.014407490488645919,0.991382753418288,-0.18481390580119436
2.030112894993015,7.955849292886022,-0.014049892274433755,0.9740444035519457,-0.20481929813890204
2.0271970709798155,7.753108628623419,-0.013719860232230485,0.9568190656156912,-0.2266540506539929
2.024347666715605,7.553973746806726,-0.013417323236437143,0.9397036183528161,-0.25021142786316375
2.021558925665169,7.35842188559419,-0.013142115339144656,0.9226950598618038,-0.2753875001164
2.0188251352266784,7.166430901524311,-0.012893984075054555,0.9057905027084744,-0.30208091791326974
2.016140644098019,6.977979245950756,-0.012672598102652696,0.8889871694206112,-0.3301926928238605
2.0134998781032056,6.793045942384886,-0.012477554228904453,0.8722823883495804,-0.35962598415948355
2.0108973546037894,6.611610564670183,-0.012308383860772982,0.855673589885691,-0.39028589055641705
2.0083276956114773,6.433653215915481,-0.012164558923150114,0.8391583030162308,-0.4220792456484105
2.00578563971022,6.259154508115959,-0.012045497279303251,0.8227341522173013,-0.45491441701039553
2.0032660528887942,6.088095542392502,-0.011950567686653665,0.8063988546727593,-0.48870110755675966
2.0007639383783493,5.920457889781201,-0.01187909431758576,0.7901502178158089,-0.5233501585724909
1.9982744455834407,5.75622357250548,-0.0118303608720178,0.7739861371910709,-0.5587733535442772
1.9957928781897891,5.595375045663495,-0.011803614305617731,0.7579045946373447,-0.5948832219409637
1.9933147015272454,5.437895179263226,-0.01179806819479862,0.7419036567937797,-0.6315928420682788
1.9908355492623113,5.283767240536722,-0.01181290575695273,0.725981473934842,-0.6688156420910004
1.988351229490947,5.132974876463621,-0.01184728254175664,0.7101362791423229,-0.706465198276233
1.985857730299351,4.985502096431972,-0.011900328806776909,0.6943663878257429,-0.7444550294636015
1.9833512248578993,4.841333254961651,-0.011971151588000505,0.6786701976059069,-0.7826983867112338
1.980828076111465,4.700453034412117,-0.012058836473278956,0.663046188580115,-0.821108036999606
1.9782848411279526,4.562846427592074,-0.012162449083980818,0.6474929239917064,-0.8595960397977608
1.9757182751660616,4.4284987201831605,-0.012281036267362237,0.6320090513312727,-0.8980735152070595
1.9731253355230667,4.297395472883654,-0.012413626999256034,0.6165933039021264,-0.9364504022953825
1.970503185223816,4.169522503170633,-0.012559232993608848,0.6012445028885355,-0.9746352061183217
1.9678491966132141,4.04486586657028,-0.012716849012122347,0.5859615599719662,-1.0125347317920972
1.9651609549162492,3.9234118373156583,-0.01288545286373318,0.5707434805482414,-1.0500538038343006
1.9624362618321733,3.80514688825933,-0.013064005079846381,0.5555893676072831,-1.0870949688217009
1.959673139232848,3.6900576698941165,-0.013251448247061875,0.5404984263471423,-1.1235581792278684
1.9568698330395797,3.578130988319085,-0.013446705974539694,0.5254699696055445,-1.1593404560960254
1.9540248173581065,3.469353781968934,-0.013648681468064286,0.5105034242054177,-1.1943355279733623
1.9511367989578525,3.3637130969031226,-0.013856255677210234,0.4955983383261213,-1.2284334432815627
1.9482047221892984,3.2611960604257675,-0.014068284975687278,0.48075439002963466,-1.261520153024846
1.9452277744424276,3.1617898527780817,-0.014283598327845023,0.4659713970911691,-1.2934770604430583
1.9422053922599396,3.0654816766112845,-0.014500993886323758,0.4512493283068869,-1.3241805339068509
1.9391372682314112,2.9722587239088654,-0.014719234956804262,0.43658831647806506,-1.353501379031344
1.9360233588091122,2.8821081399820088,-0.014937045255568347,0.4219886733015278,-1.3813042656647985
1.9328638932030144,2.795016984110106,-0.015153103373933071,0.4074509064308891,-1.4074471051071185
1.9296593835319675,2.7109721863385587,-0.015366036350323428,0.39297573901240335,-1.431780372656217
1.926410636430456,2.629960499877722,-0.015574412235501404,0.3785641320431884,-1.4541463704088562
1.9231187663362443,2.5519684484686316,-0.015776731518894097,0.36421730994813506,-1.474378425216825
1.9197852107140865,2.476982267992522,-0.015971417263563045,0.34993678982432574,-1.49230001690841
1.9164117475051992,2.404987841501004,-0.016156803773459273,0.33572441485679955,-1.5077238324601396
1.9130005151322171,2.3359706267322977,-0.01633112358827367,0.32158239246422343,-1.520450742936846
1.909554035435907,2.269915575056391,-0.01649249256706141,0.30751333778251166,-1.5302687019901395
1.9060752399744794,2.2068070406605393,-0.016638892779868013,0.2935203231303655,-1.5369515679272294
1.9025675001808529,2.1466286786503552,-0.016768152873717714,0.2796069341094975,-1.5402578564343035
1.8990346619504885,2.089363330608876,-0.016877925510704436,0.265777332952218,-1.5399294388405984
1.8954810853265602,2.0349928960402863,-0.016965661383852523,0.2520363296057659,-1.535690212628953
1.8919116900664676,1.9834981880495057,-0.017028579188457557,0.2383894607826122,-1.5272447886251324
1.8883320080237205,1.9348587716111183,-0.017063630742467924,0.22484307672584442,-1.5142772657028616
1.8847482434773202,1.8890527829207606,-0.017067460175629795,0.21140443461090164,-1.4964502029866855
1.8811673428116475,1.84605672869246,-0.017036355687919974,0.1980817961348045,-1.4734039573581252
1.8775970753338014,1.80584526501125,-0.01696619172013717,0.18488452463863966,-1.4447566391968871
1.8740461275788491,1.76839095669256,-0.016852358327027174,0.1718231736346112,-1.4101050640983408
1.870524214307094,1.7336640203707638,-0.016689672832545025,0.15890955323962508,-1.3690272601962823
1.8670422107261286,1.701632058227272,-0.016472266033792936,0.14615675288885674,-1.3210873531964709
1.8636123125839665,1.6722597950689533,-0.016193430558226588,0.1335790867141805,-1.2658440237742918
1.8602482341971935,1.645508840314001,-0.015845411220563918,0.12119191095203687,-1.2028642458326702
1.8569654600662977,1.6213375094577458,-0.015419104311775556,0.10901124005991232,-1.1317446870848196
1.8537815749226803,1.5997007577991305,-0.014903611341726554,0.0970530614507005,-1.0521439488086797
1.8507167121891994,1.580550302647442,-0.014285557548566667,0.08533222570822721,-0.9638295504871476
1.8477941856884463,1.5638350357390607,-0.013548028172888747,0.07386079246684377,-0.8667436799541461
1.8450414100791637,1.549501844010063,-0.012668882391707683,0.0626457954283832,-0.7610899535655943
1.8424912823946136,1.5374969359770603,-0.011618047937341405,0.05168666202880027,-0.6474372843725483
1.8401843123127075,1.5277676535877305,-0.010353095699859271,0.04097317025054578,-0.5268227786128378
1.838172017421153,1.520264428371398,-0.008811617553039327,0.03048611752404922,-0.40081091049155654
1.8365226940265214,1.5149418230294174,-0.006896224300597651,0.02020536192337167,-0.27143704609443997
1.835332865341043,1.5117558707924807,-0.0044354774658613965,0.0101370403331631,-0.1409521253889829
1.8347609063471741,1.5106470162141612,-0.0010117510471767828,0.00042347946034878084,-0.01135351205893756
