x,y,v_x,v_y,omega
2.375,32.48,0.0,2.8205128205128203,-7.020408163265306
2.3737060893193234,31.949885315822566,-0.013620112428174439,2.759641749775925,-6.622328608189193
2.3699949755463114,31.43112207524953,-0.025444243077213942,2.701023940466557,-6.25767761633811
2.3641864156461767,30.923295762608774,-0.03569849271367982,2.644516192594044,-5.922757476149516
2.3565601805445078,30.426017793471825,-0.04457766625125606,2.589988745689633,-5.614361765622054
2.3473615380020005,29.93892312807938,-0.052250149985663415,2.5373235215992263,-5.3296996826391085
2.3368058906249303,29.46166819056078,-0.058861927667704525,2.4864126628071053,-5.0663336685316915
2.325082716246951,28.99392904343245,-0.0645399078899705,2.437157306964809,-4.822127688115727
2.3123589288540187,28.535399776851282,-0.06939469624616194,2.38946655178432,-4.595204114735175
2.298781755636197,28.08579107984704,-0.07352291657301424,2.343256574576088,-4.383907610166412
2.2844812080242045,27.644828966816707,-0.07700916355322081,2.2984498783748215,-4.186774725407185
2.269572210534761,27.21225363733889,-0.07992765212513406,2.2549746424443247,-4.002508206860186
2.2541564400480962,26.78781845115881,-0.08234361615554527,2.2127641594512357,-3.8299551929135314
2.238323919135377,26.371289003227986,-0.08431449871518411,2.1717563450837365,-3.6680886426872883
2.222154399764182,25.962442286126866,-0.0858909683500267,2.1318933086122813,-3.5159914622110673
2.2057185677731432,25.561065929181055,-0.08711778945038379,2.0931209750278446,-3.3728428912599657
2.1890790936440663,25.166957505200333,-0.08803456980305534,2.0553887510849886,-3.2379067922856626
2.1722915510962326,24.779923897099465,-0.08867640438466988,2.0186492289241746,-3.1105215456943283
2.155405221715539,24.399780717759093,-0.08907443120157736,1.9828579220270837,-2.990091306455863
2.138463801079139,24.026351777399285,-0.08925631233947558,1.947973029128793,-2.876078418218017
2.121506019540187,23.659468593502517,-0.08924665122843994,1.9139552224161487,-2.7679968147030802
2.104566188914407,23.298969938965868,-0.08906735535872057,1.880767456916999,-2.665406265706606
2.0876746846940932,22.94470142470536,-0.08873795222352626,1.8483747984567451,-2.567907347687949
2.070858372052415,22.596515113396947,-0.08827586505729919,1.8167442679476096,-2.475137037678676
2.054140982748197,22.25426916143258,-0.08769665393446703,1.7858447000983766,-2.3867648447790604
2.0375434490635294,21.91782748650765,-0.08701422695677213,1.7556466149008534,-2.302489406455489
2.021084200074724,21.58705945854704,-0.08624102555696628,1.7261221004740368,-2.2220354876650434
2.004779424847731,21.261839611928586,-0.08538818735875323,1.6972447060359739,-2.145151329897505
1.9886433065425557,20.942047377181538,-0.0844656895378265,1.6689893439329777,-2.0716063048461413
1.972688230891434,20.627566830527726,-0.08348247521082405,1.6413321997913566,-2.0011888338455273
1.9569249720690238,20.31828645980018,-0.08244656502507174,1.614250649972273,-1.9337045396497483
1.9413628585885974,20.014098945419946,-0.08136515582152198,1.5877231856091505,-1.8689746017331268
1.9260099215267301,19.714900955240843,-0.08024470798760935,1.5617293425919068,-1.8068342902138348
1.9108730270925345,19.420592952185743,-0.07909102289865902,1.5362496369354732,-1.747131656840193
1.8959579953094567,19.131079013698702,-0.07790931166005602,1.51126550503338,-1.6897263643323877
1.881269706362497,18.846266662127075,-0.0767042562026768,1.4867592483521805,-1.6344886378152799
1.8668231133639606,18.566071812458475,-0.07536514378191668,1.4626602218435978,-1.5776383806377854
1.8526307278777476,18.290413228228786,-0.07402838765190468,1.4390090858373752,-1.5232879841908917
1.8386918775418135,18.019207290825058,-0.07269635272634893,1.4157902552544606,-1.4712986009630975
1.825005468776952,17.752373276746084,-0.07137110795640407,1.392988840313714,-1.4215405580699867
1.8115700400320374,17.489833229243715,-0.07005445777953923,1.3705906070796534,-1.3738926539140504
1.798383809372857,17.231511837204213,-0.06874797021183167,1.3485819407045554,-1.3282415160247405
1.7854447170167134,16.977336320778235,-0.06745300195810237,1.3269498111478444,-1.2844810141331315
1.7727504633480344,16.727236323307476,-0.0661707208700975,1.3056817411759412,-1.242511723173371
1.7602985428911708,16.481143809131698,-0.06490212604425594,1.2847657764638332,-1.202240431466092
1.7480862746643755,16.23899296689223,-0.06364806581674794,1.2641904576358165,-1.1635796898366426
1.7361108292928247,16.000720117977576,-0.062409253883786354,1.2439447940973756,-1.12644739786161
1.7243692532176955,15.76626362978362,-0.061186283749154705,1.2240182395232102,-1.0907664238277557
1.7128584903021162,15.53556383348549,-0.059979641677994806,1.2044006688781448,-1.0564642553342993
1.701575401102711,15.308562946040535,-0.0587897183157449,1.1850823568582285,-1.0234726777778287
1.6905167800469454,15.08520499616236,-0.05761681911336769,1.1660539576488753,-0.9917274782335791
1.679679370731162,14.865435754024695,-0.056461173684352856,1.1473064859055093,-0.9611681724914912
1.6690598795316582,14.649202664471023,-0.0553229442051585,1.1288312988699862,-0.9317377532237949
1.6586549877011065,14.436454783521778,-0.05420223295854282,1.1106200795431311,-0.9033824574559729
1.648461362104744,14.227142717985366,-0.05309908910843319,1.0926648208401502,-0.8760515516875058
1.6384756647348286,14.021218567992708,-0.05201351478541347,1.0749578106615014,-0.8496971331651353
1.6286945611276384,13.818635872287238,-0.050945470553430856,1.0574916178171159,-0.8242739459515692
1.619114727794586,13.619349556113676,-0.04989488032080169,1.0402590787466885,-0.7997392105583997
1.609732858767678,13.42331588155934,-0.0488616357519161,1.0232532849831657,-0.776052466025099
1.600545671349386,13.230492400211435,-0.0478456002301054,1.0064675713105748,-0.753175423427707
1.5915499111479248,13.040837908002683,-0.046846612416856025,0.9898955045710188,-0.7310718298924506
1.5827509654541072,12.854525206524883,-0.04577386857069489,0.9712908267742287,-0.7543332991978224
1.574151073348554,12.671736754534557,-0.04475131148776301,0.9527981415449791,-0.7792253557175817
1.5657408355574445,12.492451553764806,-0.04377750736602031,0.9344144981366088,-0.8056312695328338
1.5575111281556109,12.316649155049483,-0.04285099160064919,0.9161370672878497,-0.8334366673140078
1.5494531080073117,12.144309635613912,-0.041970273118290144,0.8979631372971146,-0.8625292720403337
1.5415582174245168,11.975413577070558,-0.0411338382795489,0.8798901105276594,-0.8927986474616483
1.5338181881219786,11.809942044038507,-0.04034015437874903,0.8619155003360314,-0.9241359462008234
1.5262250445431407,11.647876563306752,-0.039587672766913946,0.84403692841929,-0.9564336603976008
1.5187711066262795,11.489199103461853,-0.03887483162109815,0.8262521225796393,-0.9895853737888167
1.5114489920761347,11.333892054900492,-0.03820005838042705,0.8085589149083878,-1.023485514105727
1.5042516182026744,11.181938210146708,-0.037561771866523,0.7909552403945992,-1.0580291046461223
1.4971722033855348,11.033320744392313,-0.036958384103368484,0.7734391359674525,-1.0931115138468015
1.490204268220054,10.888023196176807,-0.036388301849062096,0.75600873998526,-1.1286282016403273
1.4833416363987064,10.746029448120314,-0.035849927849332726,0.7386622921883402,-1.164474461328291
1.4765784353801135,10.60732370761935,-0.035341661820067254,0.721398134137594,-1.2005451556410045
1.4699090968966795,10.471890487410533,-0.03486190116344888,0.7042147101657383,-1.2367344455799514
1.4633283573512927,10.339714585901774,-0.03440904141956802,0.687110568873823,-1.272935510553771
1.4568312581534442,10.210781067163623,-0.03398147645252391,0.6700843652119659,-1.3090402582202947
1.4504131460455847,10.085075240465407,-0.033577598367049134,0.6531348631903097,-1.344939022335462
1.4440696734716054,9.962582639231282,-0.033195797148523665,0.6362609392741563,-1.380520246784143
1.437796799040989,9.843288999280247,-0.03283446001585948,0.6194615865261998,-1.415670153827419
1.431590788144539,9.72718023620121,-0.03249197047308572,0.6027359195689238,-1.4502723944453706
1.4254482137806537,9.614242421699249,-0.032166707041498155,0.5860831804517284,-1.4842076784839267
1.4193659576549709,9.504461758731896,-0.03185704164989817,0.5695027455203923,-1.517353382129398
1.4133412116209418,9.397824555234337,-0.03156133765567217,0.5529941334012889,-1.5495831300364278
1.407371479534556,9.294317196209406,-0.03127794746417894,0.5365570142295712,-1.5807663492269144
1.4014545796031954,9.193926113931987,-0.031005209708035972,0.5201912202695819,-1.610767791663589
1.395588647316506,9.096637755987135,-0.030741445941327057,0.5038967580972595,-1.6394470221895374
1.3897721390564242,9.002438550826735,-0.030484956796376035,0.48767382253853986,-1.6666578683251023
1.38400383649424,8.911314870490013,-0.0302340175424035,0.4715228125848616,-1.692247828242684
1.3782828518949986,8.823252990088438,-0.029986872975929467,0.4554443495369942,-1.716057433122133
1.3726086344638966,8.738239043604587,-0.029741731561984147,0.4394392976614224,-1.7379195600597004
1.3669809778858966,8.656258975497234,-0.029496758732752267,0.4235087876791452,-1.757658691812364
1.3614000292288824,8.577298487540517,-0.029250069235818143,0.4076542434442007,-1.7750901199791216
1.3558662994027988,8.501342980253643,-0.02899971840716781,0.3918774122071019,-1.7900190888549161
1.3503806753928578,8.428377488199022,-0.02874369222379088,0.3761803988941815,-1.8022398782886733
1.3449444345148254,8.358386608342038,-0.02847989596602346,0.3605657048635493,-1.8115348256445933
1.3395592609755904,8.291354420576528,-0.028206141289080527,0.3450362716154825,-1.8176732897047536
1.3342272650640354,8.227264399429757,-0.027920131464130016,0.3295955299294782,-1.8204105634880832
1.3289510053476257,8.166099315875105,-0.02761944449807861,0.3142474548563152,-1.8194867491048694
1.323733514311942,8.107841128109438,-0.027301513772277207,0.29899662688753526,-1.81462561678673
1.3185783279578271,8.052470860110141,-0.02696360574471986,0.28384829942084655,-1.8055334833718104
1.3134895199702992,7.999968466798162,-0.026602794123995716,0.2688084722841875,-1.7918981645586818
1.308471741204736,7.950312684734303,-0.02621592972403824,0.2538839704932598,-1.7733880827024893
1.3035302654143934,7.903480867521978,-0.025799604911147012,0.23908252647858458,-1.749651651415857
1.2986710423931433,7.859448805563787,-0.0253501111020126,0.22441286255499188,-1.7203171148490182
1.2939007600665942,7.818190530645026,-0.02486338707218857,0.2098847681687886,-1.6849931003852623
1.2892269175942972,7.7796781071751475,-0.024334954741462876,0.1955091630930884,-1.6432702583874326
1.2846579123428614,7.743881414068127,-0.023759837378912872,0.18129813277028126,-1.5947245245907637
1.280203144810482,7.710767924548101,-0.023132452435606448,0.1672649148089602,-1.5389227661060259
1.2758731474773972,7.680302496115246,-0.02244646686002318,0.1534238055368743,-1.4754318790192236
1.2716797465224918,7.652447190106123,-0.021694595823190985,0.13978994192759056,-1.4038328090402936
1.2676362700138166,7.627161150379589,-0.020868314794442046,0.126378897299077,-1.323741463513839
1.263757823534079,7.604400584077965,-0.019957437623848974,0.11320601113908065,-1.2348390188557725
1.260061665750556,7.5841189036832155,-0.018949486413235447,0.10028536143721352,-1.1369145250831467
1.2565677344580841,7.566267105866174,-0.01782873771804738,0.08762829979478656,-1.0299225342477656
1.2532994015541048,7.550794470781799,-0.0165747665343666,0.0752415431986369,-0.9140568259786904
1.250284578868607,7.537649647092298,-0.015160209102453366,0.06312502195399791,-0.7898365693198395
1.2475573673229616,7.526782107493013,-0.01354728085170844,0.0512701317226905,-0.6581912856490221
1.2451605722658352,7.518143756776563,-0.011682140802253264,0.03965987581888665,-0.5205145102744523
1.2431497150376365,7.511690051884756,-0.009484777389313272,0.02827385988435737,-0.3786366924349956
1.2416001451893341,7.507379107732344,-0.0068264841717637845,0.017104499614701726,-0.2346584468828093
1.2406232080582336,7.50516449913572,-0.0034570645766637013,0.006207169823452478,-0.0906055993072247
