x,y,v_x,v_y,omega
2.375,32.48,0.0,3.128205128205128,-7.510204081632653
2.3736081162408276,31.923179884802,-0.015465375101915358,3.0586850406615143,-7.066106913467918
2.369622845501426,31.378630896495384,-0.02881541089143668,2.9918592738564365,-6.661128166906371
2.36339998593257,30.845884015763716,-0.040327473206961034,2.9275505120510017,-6.290750331778661
2.3552490038215623,30.32450059374682,-0.05023899469312805,2.8655986214700553,-5.9510806159198655
2.3454396405243476,29.814069467712812,-0.05875393083147937,2.805858334463346,-5.638751043728375
2.3342074634155483,29.31420445741385,-0.0660480370440646,2.7481973355251266,-5.35083673173098
2.3217585511507397,28.824542177292077,-0.07227321034269782,2.6924946658279105,-5.084788615460422
2.308273464809991,28.344740112941572,-0.07756108233228587,2.6386393825110246,-4.838377754873304
2.2939106266406624,27.874474920400573,-0.0820260084380376,2.5865294235000884,-4.609648982396187
2.2788092048694644,27.41344091472856,-0.08576756679749307,2.536070639522288,-4.3968821384180545
2.2630915847786905,26.961348720482523,-0.08887265643332995,2.4871759632114525,-4.198559505575072
2.246865491753375,26.517924061561317,-0.09141726607017556,2.4397646914685898,-4.01333833521806
2.2302258204315994,26.082906671743572,-0.09346797083844183,2.3937618620619303,-3.8400275783415845
2.2132562147783013,25.656049310331696,-0.09508320308709148,2.349097709181134,-3.67756810446776
2.1960304363635625,25.237116869804066,-0.09631433485445087,2.305707185570324,-3.525015826877826
2.178613551986362,24.825885564399155,-0.09720660267000171,2.2635295411508944,-3.381527259590295
2.161062966757697,24.422142190208728,-0.09779989987071806,2.2225079498538585,-3.2463471168956937
2.1434293246208367,24.025683448717878,-0.09812945720550761,2.182589177822256,-3.1187976348298307
2.1257572948679395,23.636315326856945,-0.09822642893779628,2.1437232872992418,-2.9982693493190093
2.1080862603750186,23.253852527569556,-0.09811839876132622,2.1058633714494768,-2.884213110637116
2.090450920913233,22.87811794568848,-0.09782981748073381,2.068965316118048,-2.776133150420089
2.0728818229176658,22.50894218457444,-0.09738238247001044,2.0329875851490535,-2.673581047455298
2.055405825436087,22.146163109535607,-0.09679536732531224,1.9978910263935243,-2.5761504631068837
2.038046510584064,21.78962543452419,-0.09608590880827717,1.9636386959555958,-2.483472537580586
2.0208245456541047,21.439180339016527,-0.09526925708015639,1.9301956985739792,-2.3952118550864494
2.003758003028599,21.09468511233549,-0.09435899431435432,1.897529042326425,-2.3110628999724807
1.9868626431991991,20.75600282297813,-0.09336722601230892,1.8656075060887,-2.2307469375946463
1.9701521654743352,20.42300201077548,-0.09230474870840284,1.8344015183851619,-2.1540092634746006
1.9536384303414769,20.095556399941024,-0.09118119721224373,1.8038830464421145,-2.0806167725120877
1.9373316569248415,19.773544631264947,-0.09000517408370363,1.7740254944032365,-2.010355806936179
1.9212405985285108,19.45685001188729,-0.08878436365330575,1.7448036097929127,-1.9430302475198937
1.9053726988678537,19.145360281237963,-0.08752563257621924,1.716193397421849,-1.878459817527121
1.8897342312590522,18.83896739186794,-0.08623511863268435,1.6881720400228324,-1.8164785730573785
1.8743304227493194,18.53756730401721,-0.08491830925323617,1.6607178249853052,-1.7569335570247238
1.8591655649222898,18.241059792872054,-0.08358011104709294,1.633810076627521,-1.6996835970526398
1.8442431128983523,17.949348267560033,-0.08222491144110111,1.6074290935060656,-1.6445982301702293
1.8295657738635374,17.662339601016065,-0.08085663339017765,1.5815560903158101,-1.5915567394256511
1.8151355862989165,17.379943969929435,-0.07947878399449802,1.5561731439800355,-1.54044728944796
1.8009539909418577,17.1020747040498,-0.07809449775059998,1.5312631435714705,-1.4911661496363744
1.7870218943879612,16.828648144191668,-0.07670657507047325,1.5068097437411103,-1.443616995076702
1.7733397261356059,16.559583508332246,-0.0753175166223643,1.4827973213635897,-1.3977102765118894
1.7599145330977373,16.29480677256817,-0.07385129490950922,1.4591664093484102,-1.3508807807845236
1.7467516792959046,16.034246323837827,-0.07240263622196505,1.4359496876554043,-1.3060184626127338
1.7338479187523794,15.77782885322403,-0.07097248092831362,1.4131333191645556,-1.263018639034541
1.7211998508113315,15.52548348962318,-0.06956160730555246,1.3907040541782207,-1.221783251081197
1.708803947678783,15.277141696862902,-0.0681706497227634,1.368649198713749,-1.1822203772764182
1.6966565788652175,15.032737176342579,-0.06680011487240711,1.3469565848453868,-1.1442437876758123
1.6847540328629034,14.792205774841896,-0.06545039626441868,1.325614542939973,-1.1077725346733607
1.6730925363534992,14.555485397169292,-0.06412178717340443,1.3046118756445118,-1.0727305771892035
1.6616682712092268,14.32251592334665,-0.06281449220740189,1.2839378334959382,-1.0390464351969138
1.6504773895222882,14.093239130048918,-0.06152863764747183,1.2635820920344278,-1.0066528718542143
1.63951602687187,13.867598616037778,-0.060264280690505566,1.243534730311567,-0.9754866007732886
1.6287803140155765,13.645539731347302,-0.05902141771275676,1.223786210693719,-0.9454880162094526
1.6182663871721639,13.427009509996648,-0.057799991658494074,1.2043273598690978,-0.9166009441634724
1.607970397044706,13.211956606020728,-0.05659989864659682,1.1851493509744606,-0.8887724125862847
1.5978885167175199,13.000331232624259,-0.05542099387769133,1.1662436867640735,-0.8619524390479452
1.588016948546143,12.792085104278016,-0.05426309691538366,1.147602183749719,-0.836093834387642
1.5783519301471158,12.587171381588394,-0.053125996407141676,1.129216957246089,-0.8111520210006014
1.568889739583177,12.385544618782756,-0.0520094543032893,1.1110804072609881,-0.7870848645424711
1.559626699829515,12.18716071366357,-0.05091320962628924,1.093185205174406,-0.7638525179438848
1.5505591825978269,11.991976859893946,-0.04983698183691127,1.0755242811547545,-0.7414172767287627
1.5416836115870014,11.79995150148622,-0.048780473838927745,1.0580908122644341,-0.7197434447207276
1.5329964652221362,11.611044289373481,-0.04774337465957298,1.0408782112104435,-0.6987972093038829
1.524494278937257,11.425216039951632,-0.046725361839084475,1.023880115698992,-0.6785465254780747
1.5161736470514156,11.242428695486677,-0.04572610355915476,1.0070903783560528,-0.6589610080154854
1.5080312242827603,11.062645286288564,-0.044745260537014185,0.9905030571785337,-0.64001183108573
1.5000722508052324,10.886058337833973,-0.043687778102185895,0.9715741478725021,-0.6723128400536316
1.492298711889692,10.712869105217194,-0.04268487651492729,0.9527506589805694,-0.7059181497761863
1.4847009506906859,10.54305884965719,-0.04173469236291799,0.9340299583528037,-0.7407186027089232
1.477269645929379,10.376609296438552,-0.04083536054049368,0.9154095218542637,-0.7766066968000298
1.4699958119942633,10.213502615715623,-0.03998501651634654,0.8968869306227303,-0.8134763428891723
1.4628707986606724,10.053721403774826,-0.03918179830132953,0.8784598687194592,-0.8512226240269742
1.455886290481472,9.897248664684504,-0.03842384813423201,0.8601261211729953,-0.8897415556490543
1.4490343058983033,9.744067792261205,-0.03770931390097656,0.8418835724192031,-0.9289298455205993
1.4423071961201863,9.594162552280519,-0.037036350300320126,0.8237302051439649,-0.9686846523409441
1.435697643814145,9.447517064859095,-0.03640311976680529,0.805664099538508,-1.0089033418621252
1.4291986616507888,9.304115786932329,-0.03580779315937627,0.7876834329811148,-1.0494832393303901
1.4228035907464895,9.16394349474935,-0.03524855022172588,0.7697864801630819,-1.0903213770046096
1.41650609904291,9.026985266303356,-0.03472357981804898,0.7519716136813142,-1.131314235439788
1.4103001796641979,8.893226463610794,-0.034231079945418415,0.7342373051249175,-1.1723574771466807
1.4041801492921804,8.76265271474757,-0.033769257521442685,0.7165821266886998,-1.2133456711490975
1.3981406466003643,8.635249895543847,-0.033336327943180005,0.6990047533526751,-1.2541720068579316
1.3921766307885388,8.511004110831482,-0.03293051441043706,0.6815039656736148,-1.2947279955644475
1.3862833802612813,8.389901675129028,-0.032550047003536316,0.6640786532425272,-1.3349031577239805
1.3804564914957513,8.271929092638828,-0.0321931615023523,0.6467278188708031,-1.3745846940541573
1.3746918781468531,8.157073036418453,-0.031858097929849664,0.6294505835778139,-1.4136571383083694
1.3689857704412158,8.045320326574675,-0.03154309879945389,0.6122461924641658,-1.4520019894051344
1.3633347149155488,7.9366579073117975,-0.031246407041291783,0.5951140215678002,-1.4894973203972066
1.3577355745598494,7.831072822647354,-0.030966263577590563,0.5780535858149246,-1.5260173615516253
1.352185529431764,7.728552190586498,-0.030700904512246625,0.5610645481945927,-1.5614320545850897
1.34668207781523,7.629083175521544,-0.030448557893685547,0.544146730304913,-1.5956065748615225
1.34122303800448,7.532652958594447,-0.03020744000353523,0.5273001244406146,-1.6284008181160359
1.335806550803703,7.439248705727323,-0.029975751116210144,0.5105249074163303,-1.6596688480306978
1.3304310828432933,7.348857532988561,-0.029751670666119712,0.49382145634771474,-1.6892583007661286
1.3250954308258693,7.261466468919341,-0.02953335174970162,0.4771903666436037,-1.7170097423694217
1.3197987268293192,7.177062413396694,-0.029318914878634184,0.4606324724969129,-1.7427559748631474
1.3145404448103097,7.095632092553995,-0.029106440888136752,0.4441488701997524,-1.766321286815884
1.3093204084702885,7.017162009217625,-0.028893962889876123,0.42774094464881796,-1.7875206443648757
1.3041388006674024,6.941638388248776,-0.028679457142191295,0.4114103994494981,-1.8061588190967237
1.2989961745824623,6.869047116102074,-0.028460832690475706,0.3951592910694057,-1.8220294500225238
1.293893466875718,6.79937367382804,-0.028235919606683656,0.3789900675309602,-1.8349140382957871
1.2888320131046243,6.732603062655592,-0.028002455627691433,0.36290561216288547,-1.8445808755812776
1.2838135657121275,6.6687197211960125,-0.027758070955605733,0.34690929294356815,-1.850783910471924
1.2788403149418854,6.607707433215424,-0.027500270935972744,0.3310050179518664,-1.8532615626153324
1.2739149130935803,6.549549224836213,-0.027226416267418264,0.31519729737270036,-1.851735502033855
1.269040502601516,6.494227249960783,-0.02693370031107439,0.2994913123543078,-1.8459094226253976
1.2642207485081594,6.441722662682835,-0.026619122948443284,0.283892990734005,-1.8354678556273258
1.2594598760190947,6.392015475491625,-0.026279460263386765,0.2684090891683384,-1.8200750932241443
1.2547627139792936,6.345084402229112,-0.02591122906773627,0.2530472804151439,-1.7993743277906473
1.250134745321986,6.300906685098202,-0.025510644902349684,0.2378162432616495,-1.7729871632062757
1.2455821658414241,6.259457905646702,-0.025073571548337305,0.22272575064390776,-1.740513727934742
1.241111953078547,6.220711780721285,-0.02459545915029601,0.20778674852737927,-1.7015337244662552
1.2367319477628413,6.184639946125028,-0.024071266579768234,0.19301141365327,-1.6556088989986169
1.2324509512518005,6.151211733444942,-0.023495361320684704,0.17841317168101756,-1.6022876255574034
1.2282788439566268,6.120393949690609,-0.02286138640346692,0.16400664781157326,-1.5411125903115717
1.2242267321698865,6.092150675588748,-0.022162077893647405,0.14980750887575447,-1.471632955147352
1.2203071345472387,6.0664431073059255,-0.021389006802440408,0.135832138711173,-1.3934228854647972
1.2165342255801412,6.043229478663861,-0.020532203943087638,0.1220970684228943,-1.3061089215061605
1.2129241630387406,6.022465116697141,-0.019579602072475468,0.10861806454066891,-1.209409239152339
1.209495541568697,6.0041027011953965,-0.018516192039121585,0.09540877436760899,-1.1031880609141755
1.2062700384276739,5.988092813251402,-0.017322731750023745,0.08247886945456233,-0.9875276025224377
1.2032733544903158,5.9743848551370995,-0.015973756442842643,0.06983177625992842,-0.8628165394652727
1.20053661276841,5.962928375391865,-0.014434484911665813,0.05746244313157115,-0.7298457823094437
1.1980984790851872,5.95367468705755,-0.012655889346366083,0.04535631613859502,-0.5898870566407703
1.1960084857464455,5.946578339684759,-0.010566258861875762,0.03349198800351205,-0.4447082789869192
1.1943326492164865,5.941597336040584,-0.008054147026557297,0.021852496931752688,-0.29646181867085836
1.1931648447864287,5.938689299506855,-0.004921457751863739,0.010459020109664475,-0.1473871970632167
1.192662626627366,5.937791718395033,-0.00065874401549754,-0.0004858966449852349,0.0006239076901221052
