x,y,v_x,v_y,omega
2.375,32.48,0.0,3.948717948717949,-6.530612244897959
2.373028002275198,31.701581037764246,-0.01971997724802007,3.8354716736395638,-6.004657066331238
2.3674725813339172,30.945214490521604,-0.035834232164787316,3.7281937987868496,-5.5429877475468645
2.358991100357721,30.209756644626477,-0.04898057759717792,3.626384660164414,-5.135552558791242
2.348125581798307,29.49415783395994,-0.05967460799696078,3.529603446500993,-4.774146644380882
2.3353245765346093,28.797451603876695,-0.06833544464001512,3.437458854331435,-4.452026960540209
2.3209604805397097,28.11874555309373,-0.07530551530897918,3.349601653498182,-4.163616697648953
2.3053433403076062,27.457213518962252,-0.08086588701205775,3.265718687816617,-3.9042762551555312
2.2887319269774746,26.812088852979848,-0.08524824628925753,3.1855279720074363,-3.6701242700991124
2.271342669629704,26.18265859187821,-0.08864432718844902,3.1087746390089337,-3.45789666966772
2.2533568990155723,25.568258372345376,-0.09121337895286673,3.0352275563193976,-3.264834872484163
2.234926749494258,24.968267969159708,-0.09308811626027816,2.96467647553729,-3.0885965205012376
2.216179989224925,24.382107360418615,-0.09437948643304896,2.896929611873623,-2.9271837588230993
2.197223989748512,23.80923324181937,-0.0951805083310819,2.8318115741188423,-2.778885279042714
2.1781490010720033,23.249135926104458,-0.09556937843400432,2.7691615830302614,-2.6422292285908546
2.1590308637052167,22.701336574883953,-0.09561199523386431,2.7088319291747713,-2.515944751125911
2.139933262231139,22.165384718850902,-0.09536401950691137,2.6506866311557635,-2.3989304221241814
2.120909604032797,21.640856029461816,-0.09487256247651162,2.5946002627351255,-2.2902282228035826
2.1020045903573386,21.127350310864536,-0.09417757427807123,2.540456923237651,-2.189001985344231
2.0832555339288223,20.6244896855179,-0.09331299000708825,2.488149330228714,-2.0945194655237658
2.0646934670397283,20.131916950785175,-0.09230767888385287,2.4375780170985224,-2.006137371789179
2.046344075861704,19.6492940869658,-0.09118623289639292,2.3886506210952407,-1.9232888145518159
2.028228490163544,19.17630089988701,-0.08996962408520552,2.341281249692649,-1.8454727451192634
2.0103639523593433,18.71263378340965,-0.08867575395680043,2.295389915080949,-1.7722450369058942
1.9927643855620776,18.258004589088937,-0.08731991401585819,2.2509020281261773,-1.7032109274727305
1.97544087687776,17.812139591833702,-0.08591517282731699,2.2077479444261794,-1.6380185923908952
1.958402089378985,17.37477854177565,-0.08447270216043055,2.1658625561543268,-1.5763536638428446
1.9416546139156239,16.945673793733334,-0.08300205247318267,2.12518492426886,-1.517934540529896
1.925203270053451,16.52458950666552,-0.08151138614854744,2.0856579464092366,-1.4625083625860889
1.9090513638984428,16.11130090638185,-0.08000767540153343,2.0472280564274943,-1.409847547159184
1.893200909301733,15.705593605535778,-0.07849687056556376,2.0098449520332173,-1.3597467981636688
1.877652817896987,15.307262975584258,-0.07698404348189837,1.973461347481967,-1.312020518263529
1.8624070625576077,14.916113565973824,-0.07547350991189467,1.9380327486223756,-1.266500563053806
1.8474628181430526,14.531958566316842,-0.07396893423365435,1.9035172479474358,-1.2230342871927495
1.8328185828052859,14.15461930776413,-0.07247341914401423,1.8698753375796833,-1.1814828402978577
1.8184722826267248,13.783924800169636,-0.07098958264159658,1.837069738365247,-1.141719677083579
1.804421361942675,13.419711301986698,-0.06951962419890112,1.805065243464117,-1.103629251745212
1.7906628613500963,13.061821920139444,-0.06806538172688667,1.77382857500841,-1.0671058711906871
1.777193485109144,12.710106237382501,-0.06662838068263637,1.7433282525610243,-1.0320526855570067
1.7640096593948575,12.364419964901668,-0.06520987646022823,1.7135344722473107,-0.9983807976565935
1.7511075826459035,12.024624618121422,-0.06381089102931076,1.6844189955551385,-0.9660084756904426
1.7384832690790728,11.690587213875265,-0.06243224463899519,1.6559550469064457,-0.9348604558290956
1.7261325862870196,11.362179987264813,-0.061074583281538766,1.6281172191980742,-0.9048673231719327
1.7140512877081817,11.03928012668569,-0.05973840250683825,1.6008813865931726,-0.8759649612097393
1.7022350406483335,10.721769525634556,-0.05842406809164632,1.574224623918159,-0.8480940612838942
1.690679450439776,10.409534550034191,-0.057131833993929446,1.548125132085477,-0.8211996846981445
1.6793800812443178,10.102465819923623,-0.055861857960650935,1.5225621690202016,-0.7952308711290212
1.6683324739377898,9.80045800445961,-0.054614215104628876,1.497515985619917,-0.7701402878260419
1.6575445080165396,9.503411446518285,-0.05326544410787441,1.4729495937933506,-0.7424274125164443
1.6470228274514431,9.211230046265815,-0.05195136154309056,1.4488644087313627,-0.7159807139108252
1.6367605651621537,8.923819282124242,-0.050671261349803244,1.425243232684356,-0.6907273469361582
1.6267509982447268,8.641087993363694,-0.04942440782446597,1.4020696549211298,-0.6665994530731015
1.6169875531276867,8.362948227224425,-0.04821004334593342,1.3793280064715654,-0.6435337647501009
1.6074638092947533,8.08931509478078,-0.04702739498340038,1.3570033179648953,-0.6214712453099506
1.5981735017828251,7.8201066349525235,-0.04587568013588206,1.3350812803176622,-0.6003567609814915
1.5891105226360076,7.55524368611599,-0.044754111332292026,1.313548208047691,-0.5801387816830418
1.5802689214723848,7.294649764810185,-0.04366190030393509,1.292391005010352,-0.5607691078306603
1.5716429052993544,7.038250951072012,-0.04259826142637036,1.2715971323713646,-0.5422026206296081
1.56322683769524,6.785975779970219,-0.04156241461477335,1.2511545786465805,-0.5243970535967073
1.5550152374591781,6.537755138940181,-0.040553587745843944,1.23105183165379,-0.5073127832992587
1.5470027768176215,6.29352217055132,-0.03957101866972312,1.2112778522348029,-0.4909126375067407
1.539184279263941,6.053212180366042,-0.03861395686708408,1.1918220496179888,-0.4751617191380636
1.5315547170972952,5.816762549574015,-0.03768166479937418,1.172674258302279,-0.46002724455266764
1.5241092087179628,5.584112652108445,-0.03677341899394857,1.153824716353436,-0.44547839488079466
1.5168430157285255,5.355203775971869,-0.03588851090042424,1.1352640450123006,-0.43148617921905646
1.5097515398834949,5.129979048518358,-0.0350262475498812,1.1169832295228075,-0.4180233086339157
1.5028303199240618,4.908383365456583,-0.034185952044449665,1.0989736010949283,-0.40506408001957506
1.4960750283294904,4.690363323354649,-0.03336696390126591,1.0812268199243924,-0.3925842689495175
1.4894814680121955,4.475867155442494,-0.03256863927168287,1.0637348591971507,-0.3805610307438426
1.4830455689796347,4.2648446705215655,-0.0317903510539245,1.046489990012118,-0.36897280904873614
1.4767633849827402,4.0572471948042725,-0.031031488915021478,1.0294847671608216,-0.357799251290876
1.4706310901676565,3.853027516517468,-0.030291459235815308,1.0127120157072376,-0.34702113042919824
1.4646449757449722,3.652139833115207,-0.029569684991028487,0.9961648183153577,-0.33662027247997267
1.458807744010299,3.4547122075236913,-0.028802632355702597,0.9781114375997937,-0.3610959722965422
1.4531194868799056,3.260884027287915,-0.02807993894823176,0.9601703647579557,-0.3872776798295584
1.447571434764115,3.0706331347174007,-0.027400582209673337,0.942338560947187,-0.4150548573951028
1.4421550274217516,2.883937968013303,-0.026763491213961817,0.9246131060937846,-0.4443195630180542
1.4368619230760238,2.7007775379589347,-0.026167552243316593,0.9069911944498865,-0.4749662076862616
1.4316840064659861,2.5211314054588314,-0.02561161385705901,0.8894701305511359,-0.5068913184964046
1.4266133959313052,2.3449796598474357,-0.025094491489749956,0.8720473255628073,-0.5399933067049848
1.4216424496212086,2.1723028978906846,-0.02461497161121794,0.8547202940046891,-0.5741722397098664
1.4167637709122982,2.0030822034054516,-0.024171815477886032,0.8374866508476245,-0.6093296159925841
1.4119702131143297,1.8372991274229626,-0.023763762501799218,0.8203441089772724,-0.645368142049141
1.4072548835380623,1.6749356688228971,-0.023389533260876158,0.8032904770233822,-0.6821915103270402
1.402611146994861,1.5159742553649878,-0.02304783217113681,0.7863236575557209,-0.7197041771685492
1.3980326287938507,1.3603977250443364,-0.022737349838965203,0.7694416456507843,-0.7578111397343411
1.3935132172990712,1.2081893076955978,-0.022456765108830226,0.752642527836613,-0.7964177108472226
1.3890470661062602,1.059332606769292,-0.02220474681928126,0.7359244814264612,-0.8354292906521198
1.3846285958965887,0.9138115812010668,-0.021979955277433787,0.7192857742557911,-0.874751133935202
1.3802524960228917,0.7716105272913723,-0.02178104345953555,0.7027247648411455,-0.9142881118812424
1.3759137258826852,0.6327140605088637,-0.021606657942527297,0.6862399029839547,-0.9539444669732061
1.3716075161315573,0.49710709712573475,-0.021455439568753207,0.6698297308473458,-0.9936235596506631
1.367329369790372,0.36477483558703483,-0.021326023843100828,0.6534928845396317,-1.0332276052429175
1.3630750633001796,0.2357027375086247,-0.02121704105882338,0.6372280962444596,-1.0726573995775792
1.3588406475797894,0.10987650818970707,-0.021127116145078017,0.6210341969447349,-1.111812031534473
1.3546224491427057,-0.012717923484316884,-0.021054868225758937,0.604910119795525,-1.1505885806670413
1.3504170713325834,-0.13209442588490816,-0.02099890987546498,0.5888549042103602,-1.1888817978475
1.3462213957396005,-0.2482666863795302,-0.020957846054363315,0.5728677007358669,-1.2265837667067974
1.3420325838642408,-0.361248234133285,-0.020930272699232984,0.5569477768016968,-1.2635835434349325
1.337848079100015,-0.471052464158106,-0.020914774943025554,0.541094523446504,-1.2997667722808262
1.3336656091127337,-0.5776926628164105,-0.02090992492978682,0.5253074631365264,-1.3350152738437095
1.3294831887011895,-0.6811820350112114,-0.020914279185654795,0.5095862588114657,-1.369206602980897
1.3252991232326459,-0.7815337333236698,-0.020926375499782778,0.4939307243131462,-1.4022135728723215
1.3211120127565361,-0.8787608893926091,-0.02094472926131459,0.4783408363762486,-1.4339037414850706
1.3169207569114223,-0.9728766478689934,-0.02096782918982434,0.4628167483876053,-1.4641388563793865
1.3127245607537636,-1.0638942033229029,-0.020994132386762884,0.4473588061515071,-1.4927742535041153
1.3085229416526643,-1.151826840531406,-0.021022058624231905,0.4319675659335066,-1.519658205364353
1.3043157374127816,-1.2366879786342153,-0.021049983774594945,0.41664381509456466,-1.5446312137372422
1.300103115808349,-1.3184912197107792,-0.02107623226973177,0.40138859567109025,-1.5675252420085506
1.2958855857351999,-1.3972504024083037,-0.021099068461759657,0.38620323130418127,-1.5881628822691283
1.2916640102152974,-1.4729796613359483,-0.021116686737264554,0.371089357972299,-1.6063564526438365
1.2874396215201915,-1.5456934930365662,-0.021127200213794214,0.35604895903390077,-1.6219070210677762
1.283214038716857,-1.6154068294536472,-0.021128627819552423,0.34108440513691807,-1.6346033530818402
1.2789892879825597,-1.6821351199268193,-0.021118879523418507,0.3261984995947796,-1.6442207834913696
1.2747678260861801,-1.745894422871764,-0.021095739440378552,0.31139452985468663,-1.6505200153532698
1.2705525674937637,-1.80670150842505,-0.021056846483785658,0.29667632567819624,-1.6532458553610219
1.2663469156288611,-1.8645739734522095,-0.02099967216523883,0.28204832459339413,-1.6521259032040176
1.2621547989076543,-1.919530370414094,-0.020921495046830347,0.2675156450254313,-1.6468692252279908
1.257980712281423,-1.9715903516377722,-0.020819371215481466,0.2530841672113473,-1.637165061670427
1.2538297651645711,-2.0207748305058146,-0.02069009995303833,0.238760621469078,-1.6226816447354973
1.2497077368209966,-2.067106160901446,-0.020530183482706695,0.22455268248721,-1.6030652459502646
1.2456211405504305,-2.1106083358333834,-0.020335779222954077,0.2104690668321677,-1.5779396316150962
1.2415772984005295,-2.1513072053702373,-0.020102642276055033,0.19651962853639424,-1.5469061933732302
1.2375844286972235,-2.189230712623953,-0.01982605475700605,0.1827154440007323,-1.5095451492559264
1.2336517495456807,-2.2244091442139933,-0.01950073675842144,0.1690688718996729,-1.4654183960316702
1.2297896027901014,-2.25687538795232,-0.01912073079737198,0.15559356548358386,-1.414074858888847
1.2260096050349492,-2.286665184760004,-0.018679246754151228,0.14230440259327135,-1.3550595569426933
1.2223248357231484,-2.313817353199596,-0.01816844636385575,0.12921728180266795,-1.2879281102513742
1.2187500777595335,-2.338373952479408,-0.01757913327229442,0.11634871099547067,-1.2122690671883587
1.2153021350957034,-2.3603803325113404,-0.016900293366005327,0.10371508932384445,-1.1277371831533227
1.2120002661932798,-2.3798849977595964,-0.016118395658231387,0.09133156315872865,-1.03410143107301
1.2088667957245811,-2.3969391884868188,-0.015216309028756028,0.07921034411349615,-0.9313115172513227
1.205928004563014,-2.4115960693708445,-0.014171602586914972,0.06735846472678358,-0.8195847647177381
1.2032154590377182,-2.423909437635473,-0.012953852666043568,0.05577521791949379,-0.6995090592557263
1.2007680435284596,-2.433931974534019,-0.011520302426541815,0.044450151065978355,-0.5721437803255556
1.1986351616820539,-2.4417133600783387,-0.009808516037515922,0.03336370437720596,-0.4390772195013822
1.1968820854982052,-2.4472992169637564,-0.00772224580097077,0.022494864477001587,-0.3023718173944977
1.1956002710816651,-2.4507333482982077,-0.005095898364429278,0.011846448867543442,-0.1643183410880748
1.194935768683173,-2.452071986705427,-0.0015491256204930959,0.001539935204621411,-0.026972126203761965
