x,y,v_x,v_y,omega
2.375,32.48,0.0,2.9743589743589745,-2.612244897959184
2.3745298091442377,31.950293326250762,-0.005224342841805223,2.9112707339658734,-2.4648676753591987
2.373181797169787,31.43174310921657,-0.009753567985427054,2.8503983441918197,-2.329779673577173
2.3710731885562364,30.92396171575165,-0.013675416609573648,2.7916171387517363,-2.2056408285299867
2.3683064933226445,30.426583105466573,-0.017065641541449246,2.7348118644157613,-2.091284371178859
2.3649715030617884,29.939261218521324,-0.019989805801395533,2.679875768309234,-1.9856913325996046
2.3611469898160067,29.461668517742545,-0.022504785818400635,2.6267097958994112,-1.887969224663962
2.3569021562024606,28.99349466662301,-0.024660032109889707,2.575221883206538,-1.7973341452010758
2.352297876613148,28.53444532746088,-0.026498629993586972,2.525326329706044,-1.7130957035624501
2.3473877623806327,28.08424106612316,-0.028058194812135926,2.476943240713058,-1.6346442784376674
2.342219078172662,27.64261635176793,-0.02937162972086957,2.429998029900602,-1.561440211653038
2.3368335322922316,27.20931864140757,-0.03046776895058001,2.3844209741034073,-1.4930046148909546
2.3312679598068327,26.784107540498148,-0.031371925331631356,2.340146813779033,-1.4289115248740396
2.325554914348473,26.36675403184335,-0.032106357539034173,2.2971143934965386,-1.3687811896915472
2.3197231818857635,25.957039766040516,-0.03269066982440364,2.2552663376460362,-1.3122743070163205
2.31379822766857,25.554756407500307,-0.033142154811077906,2.2145487572451836,-1.2590870658381323
2.3078025858027784,25.159705030762282,-0.033476088142164746,2.1749109842884202,-1.208946868480891
2.3017561994622135,24.771695562425666,-0.03370598230855554,2.13630533056287,-1.1616086302191637
2.295676718534037,24.39054626453177,-0.033843805782291396,2.098686868258194,-1.1168515706632778
2.2895797604805024,24.01608325568497,-0.03390017259031808,2.062013230039643,-1.0744764249535097
2.283479139349328,23.64814006659236,-0.03388450664495481,2.026244426544848,-1.034303014258029
2.2773870671491094,23.286557227047062,-0.033805184468581835,1.9913426795140479,-0.9961681245575003
2.2713143312022313,22.93118188168282,-0.033669659385620505,1.9572722689775002,-0.9599236505829652
2.2652704505769403,22.581867432095095,-0.03348456978427754,1.9239993931083526,-0.9254349683434683
2.259263814267215,22.238473203159536,-0.03325583365711908,1.8914920395089603,-0.8925795051703596
2.2533018034210897,21.900864131588374,-0.03298873129982824,1.8597198668372854,-0.861245480806269
2.247390899604761,21.568910474950947,-0.032687977770489124,1.8286540958007933,-0.8313307969327018
2.241536780822356,21.242487539550304,-0.03235778647845176,1.7982674086507697,-0.8027420557868884
2.235744406782554,20.92147542569552,-0.03200192507491073,1.7685338564024229,-0.7753936912687749
2.2300180947072454,20.605758789041438,-0.0316237646507345,1.7394287730873348,-0.7492071982672714
2.224361586809154,20.29522661678611,-0.031226323105835053,1.7109286964163335,-0.7241104479104413
2.2187781104205366,19.98977201762218,-0.030812303434359666,1.683011294293981,-0.7000370781244925
2.213270431630341,19.689292024434366,-0.030384127567814438,1.6556552966817222,-0.6769259503185474
2.2078409031794415,19.393687408820952,-0.0299439663310692,1.6288404323562553,-0.6547206642354839
2.2024915072703926,19.102862506595056,-0.029493765991695033,1.6025473701536803,-0.6333691240562973
2.1972238938674042,18.816725053491602,-0.029035271819289523,1.5767576643291459,-0.6128231497436408
2.192039414992164,18.53518603036928,-0.028570049016712985,1.5514537036966431,-0.5930381283821713
2.186939155460229,18.25815951725455,-0.0280995013381195,1.5266186642448047,-0.573972700938105
2.181923960449663,17.985562555626792,-0.027624887668167588,1.5022364649524953,-0.5555884804339364
2.17699446024736,17.717315018391297,-0.027147336801868416,1.4782917265530178,-0.5378497980300315
2.172153280351184,17.453340045892567,-0.026643550933420274,1.4547635234328937,-0.5198731260468352
2.1674024061985904,17.193563340630938,-0.026143939650952137,1.4316443128074308,-0.5026492462153446
2.162741040709675,16.937912500324643,-0.02564901022588496,1.408920579484708,-0.486138243059543
2.158168302031133,16.686317504711994,-0.025159197313472183,1.3865793717669692,-0.4703027157502883
2.1536832358988223,16.438710616792473,-0.02467487082331499,1.3646082717832528,-0.4551075943489544
2.1492848266590454,16.19502628924126,-0.024196342951982013,1.3429953676746742,-0.44051997127390674
2.1449720070910496,15.955201075675717,-0.023723874470193876,1.3217292274980215,-0.42650894658266386
2.140743667157567,15.719173546475698,-0.02325768034628122,1.3007988747243935,-0.41304548580589834
2.1365986617963637,15.486884208880735,-0.022797934778196645,1.2801937652196476,-0.40010228919681434
2.1325358178534985,15.258275431106735,-0.022344775698083835,1.2599037656025556,-0.387653671372823
2.128553940248119,15.033291370242868,-0.021898308806132083,1.2399191328848684,-0.3756754504274796
2.124651817449003,14.811877903705774,-0.0214586111840435,1.2202304953050522,-0.3641448456808063
2.120828226334487,14.593982564043628,-0.021025734532801828,1.2008288342743536,-0.3530403833166656
2.117081936499834,14.379554476896523,-0.020599708074460286,1.181705467360141,-0.3423418092278831
2.113411714069337,14.168544301932762,-0.020180541153277814,1.1628520322372164,-0.3320300084543191
2.109816325064453,13.960904176592539,-0.01976822556765586,1.1442604715430456,-0.32208693065690497
2.1062945383738834,13.756587662481675,-0.019362737660899076,1.1259230185776632,-0.31249552112254425
2.1028451283667815,13.55554969426828,-0.018964040195787773,1.1078321837934137,-0.30323965684139
2.099466877185987,13.357746530944738,-0.01857208403526048,1.089980742023724,-0.29430408723992457
2.096158576754393,13.163135709326259,-0.018186809649119583,1.0723617204038132,-0.2856743791910038
2.092919030524162,12.971675999665347,-0.017808148464555668,1.0549683869396438,-0.27733686595603
2.0897470549954758,12.78332736326917,-0.017436024076405123,1.0377942396845479,-0.26927859974509133
2.086641481028775,12.598050912013836,-0.017070353331382848,1.020832996485837,-0.26148730760859995
2.0836011549720364,12.41580886965614,-0.016711047299043446,1.0040785852663539,-0.25395135039899075
2.0806249396224414,12.236564534849414,-0.016358012140898586,0.9875251348083668,-0.2466596845636861
2.0777144008109993,12.06050399500048,-0.015981307986238837,0.9687030857353292,-0.288319215141101
2.074868033833482,11.88782240012927,-0.015644991763950625,0.9499813017225632,-0.33105002368452235
2.0720786881556768,11.718501924240304,-0.015347737989442573,0.9313573192659396,-0.3747547448200754
2.06933945329948,11.552525176251578,-0.015088204857190726,0.9128287694976778,-0.4193371788697908
2.0666436615343793,11.38987518315486,-0.0148650369772625,0.8943933760214037,-0.46470207996081303
2.0639848901047144,11.23053537353557,-0.014676867796787448,0.8760489530818331,-0.5107549440057434
2.061356963047927,11.074489561391701,-0.01452232172307321,0.8577934040722619,-0.5574017956023213
2.058753952656218,10.921721930190472,-0.014400015962579928,0.8396247203858471,-0.6045489728664106
2.0561701806317108,10.772217017099976,-0.014308562087505004,0.8215409806196775,-0.6521029091694885
2.053600218983301,10.625959697331254,-0.014246567339267557,0.8035403501439073,-0.6999699106998449
2.051038890711955,10.482935168523639,-0.014212635675691813,0.7856210810518093,-0.7480559287047273
2.0484812703301896,10.343128935103024,-0.014205368566143328,0.7677815125105604,-0.7962663251977973
2.045922684260975,10.206526792538746,-0.014223365536241199,0.750020071536974,-0.8445056308314903
2.0433587111612215,10.07311481141996,-0.014265224461020956,0.7323352742273151,-0.8926772935360167
2.0407851822155028,9.942879321266673,-0.014329541602521034,0.7147257274758776,-0.9406834164145326
2.0381981814466554,9.815806893983751,-0.01441491138467157,0.6971901312232707,-0.9884244832560001
2.035594046091482,9.691884326858233,-0.014519925895034248,0.6797272812824839,-1.035799069881876
2.0329693670919893,9.571098624990906,-0.014643174099327902,0.6623360727989172,-1.0827035393783393
2.030320989755485,9.453436983042117,-0.014783240750722107,0.6450155044098543,-1.1290317190804895
2.027646014640482,9.338886766159074,-0.014938704971529384,0.6277646831795127,-1.1746745569669932
2.024941798729835,9.227435489937093,-0.015108138480106914,0.6105828303980485,-1.219519754891216
2.022205956957888,9.11907079925004,-0.015290103430412984,0.5934692883470083,-1.263451375816291
2.019436364164841,9.01378044576531,-0.015483149825663007,0.5764235281499837,-1.3063494219355132
2.01663115755906,8.911552263935672,-0.01568581246079419,0.5594451588460028,-1.348089380245184
2.013788739776911,8.812374145233495,-0.01589660734086093,0.5425339378448719,-1.3885417317948663
2.0109077826399813,8.716234010362072,-0.01611402751391213,0.5256897829486947,-1.4275714204718004
2.007987231721482,8.62311977914295,-0.016336538247193624,0.5089127861526412,-1.4650372767864006
2.00502631184743,8.533019337736803,-0.016562571464494743,0.49220322947121775,-1.5007913917223492
2.002024533674134,8.445920502807702,-0.016790519349908165,0.4755616030743427,-1.5346784353115481
1.9989817015018367,8.361810982185524,-0.017018727008946116,0.4589886260609634,-1.5665349142129668
1.9958979225054923,8.280678331517791,-0.017245484061550305,0.4424852702471728,-1.5961883622492261
1.992773617587912,8.202509906329453,-0.017469015022672008,0.4260527874010264,-1.6234564576372563
1.9896095340884843,8.1272928088258,-0.017687468304303164,0.409692740417362,-1.6481460606170428
1.9864067606128237,8.055013828678948,-0.017898903647480528,0.3934070389920871,-1.67005216545052
1.9831667442858798,7.985659376931434,-0.01810127776300683,0.3771979804247266,-1.6889567615013101
1.9798913107740286,7.919215412030994,-0.018292427924230897,0.3610682962468352,-1.7046275995659705
1.9765826874717276,7.855667356879568,-0.018470053212446526,0.34502120543565507,-1.7168168621773714
1.973243530306967,7.7950000056389115,-0.018631693062669572,0.32906047501607544,-1.7252597407825434
1.9698769546891672,7.737197418889938,-0.018774702690662524,0.31319048886140505,-1.7296729293073356
1.966486571206487,7.682242805602318,-0.018896224894673175,0.2974163254454879,-1.7297530538305335
1.9630765267813255,7.630118390250619,-0.018993157607121208,0.2817438451289381,-1.7251750736273401
1.9596515521201814,7.580805263340302,-0.019062116405590555,0.26617978720792124,-1.7155907122522944
1.9562170164580661,7.534283213624448,-0.01909939095124621,0.2507318763015642,-1.7006270123701153
1.9527789908160484,7.490530540469738,-0.019100893960060376,0.23540893652855097,-1.6798851602431362
1.9493443212920842,7.449523845277064,-0.01906210075065286,0.22022101005673195,-1.6529398032729328
1.9459207143375767,7.411237801748268,-0.018977976521651424,0.20517947359656077,-1.6193391986237364
1.942516836614307,7.375644906376181,-0.018842887070236115,0.1902971416488575,-1.5786066997821386
1.9391424330112896,7.342715213212866,-0.0186504862966225,0.17558833794351317,-1.5302443348867796
1.9358084679527554,7.312416061318199,-0.01839356990931455,0.16106890533054413,-1.4737395879655026
1.9325272976252323,7.284711810124904,-0.018063878174274985,0.146756107928282,-1.4085770013728542
1.9293128848322059,7.259563608359748,-0.01765181952601861,0.13266835612898098,-1.3342569138730211
1.9261810749207937,7.2369292373852225,-0.017146068378560145,0.11882465469909842,-1.2503245469153805
1.9231499623968051,7.216763090850463,-0.016532959665758337,0.10524364013155724,-1.1564136699109118
1.920240396367577,7.199016378784073,-0.01579555177010999,0.09194204949501118,-1.0523098771504005
1.9174767035373816,7.183637670460232,-0.014912146343170342,0.07893248743655035,-0.938038173423038
1.9148877578365515,7.17057389997116,-0.01385391699938636,0.0662205179975754,-0.8139760285351422
1.9125086098633617,7.159771911729457,-0.01258106048050116,0.05380157357691081,-0.6809825451354432
1.9103830402275404,7.151180440284811,-0.011036379917512586,0.041659220252492093,-0.5405120545399376
1.9085677286788625,7.144751958979949,-0.009133748401131172,0.029768349801529564,-0.3946454638400637
1.907139707793203,7.140442807726494,-0.0067331503284197205,0.018111108570186163,-0.245939646093562
1.9062130688460635,7.138207075996036,-0.003562837973130256,0.006730355101557867,-0.09700080866782068
