x,y,v_x,v_y,omega
2.375,32.48,0.0,2.717948717948718,-4.6938775510204085
2.374160256284634,31.968987368289728,-0.008839407530170163,2.661131615843602,-4.4365681448767775
2.371749119522452,31.46858314311355,-0.016540979440165943,2.606281280747759,-4.200012451592811
2.3679696073896754,30.97842439036519,-0.02324335879958587,2.5532845376559723,-3.9820092252309403
2.363000141828339,30.498168806299592,-0.02906680500395561,2.5020373998766763,-3.780635934327852
2.3569977851051043,30.02749306817247,-0.03411589734588419,2.4524440540930432,-3.5942082583679915
2.3501010041608708,29.566091363869766,-0.03848179680394063,2.4044159911985425,-3.4212462144454485
2.34243203957094,29.113674075275362,-0.042244146247966415,2.357871257163605,-3.2604457047043085
2.334098941733224,28.669966594513856,-0.04547267309641127,2.312733803483839,-3.1106545192105397
2.3251973259279413,28.234708255703342,-0.048228545906563024,2.2689329208373548,-2.970852018811162
2.3158118890451016,27.807651367663162,-0.05056552654438301,2.226402742743494,-2.8401318714125794
2.3060177236006734,27.388560335295935,-0.05253095181801569,2.185081808490469,-2.7176873326374085
2.2958814588105847,26.977210859217138,-0.05416657228818439,2.1449126765495037,-2.6027986551989164
2.2854622536952296,26.573389204727096,-0.05550927103134215,2.105841581240421,-2.494822285971357
2.274812663237294,26.176891532477523,-0.056591681157455345,2.0678181266498123,-2.3931815697277226
2.2639793953488665,25.787523284230062,-0.05744271766809503,2.030795012797151,-2.2973587269891795
2.2530039736910825,25.40509861797868,-0.05808803662436663,1.9947277898489832,-2.2068879127861973
2.2419233191284333,25.029439887443527,-0.05855043245615023,1.9595746368368323,-2.1213491952311987
2.230770260708631,24.660377161566227,-0.0588501824891402,1.9252961618715756,-2.0403633190969246
2.2195739854717855,24.2977477801659,-0.059005346319758414,1.8918552212897781,-1.9635871412210308
2.208360435056628,23.9413959423676,-0.0590320264713727,1.859216755534398,-1.890709642412632
2.197152655943535,23.591172324803416,-0.0589445957717134,1.8273476398780697,-1.821448435331784
2.1859711092191705,23.246933726921434,-0.05875589606370091,1.7962165483533208,-1.7555467001149014
2.1748339449369496,22.908542741028246,-0.05847741217020181,1.7657938294697155,-1.6927704897816236
2.1637572454577034,22.57586744494299,-0.05811942445344509,1.7360513924803374,-1.6329063560465618
2.152755241566492,22.24878111536143,-0.05769114282246426,1.7069626031150285,-1.5757592533674558
2.1418405046583993,21.927161960221643,-0.057200824631144766,1.6785021878301023,-1.5211506851285443
2.1310241178550196,21.61089286853271,-0.05665587856232305,1.6506461457376453,-1.4689170609789999
2.120315828543164,21.299861176277496,-0.05606295629931659,1.6233716674750929,-1.4189082386800724
2.1097241845087553,20.99395844713316,-0.05542803353656357,1.5966570603600476,-1.3709862274914397
2.0992566555642704,20.69308026687036,-0.05475648166854175,1.5704816792483802,-1.3250240332544068
2.0889197423308445,20.397126050396928,-0.05405313131488578,1.5448258625772056,-1.280904627995474
2.078719073630883,20.105998860504762,-0.05332232868470832,1.5196708731298059,-1.2385200291516338
2.0686594937690423,19.819605237462156,-0.05256798565045828,1.4949988431081365,-1.1977704754693135
2.058752590632486,19.537857596365843,-0.05171520526066079,1.470765800010974,-1.1559925750861773
2.0490081286407054,19.260671376749023,-0.05085807886334604,1.446983880166096,-1.1160583122993306
2.0394267324328945,18.987962351246708,-0.049998723324135734,1.4236374409108665,-1.0778650046862848
2.030008647877271,18.719649198801534,-0.049139008840326806,1.400711532196218,-1.0413167702202997
2.0207537864910283,18.455653376752558,-0.04828058469906665,1.378191857793011,-1.0063240050781688
2.01166176522643,18.195899000048,-0.04742490229670872,1.3560647390970688,-0.9728029069141657
2.0027319421143335,17.940312727107525,-0.046573235725355606,1.3343170813289815,-0.9406750391814169
1.993963448201774,17.688823651896673,-0.045726700196323876,1.3129363419431603,-0.9098669325554495
1.9853552161719599,17.441363201809743,-0.04488626853856269,1.291910501077129,-0.8803097199327508
1.9769060059924763,17.197865040988162,-0.04405278598231617,1.2712280338868753,-0.8519388018468802
1.9686144278998254,16.958264978729304,-0.04322698341401082,1.2508778846274509,-0.8246935394720717
1.9604789629951271,16.722500882666438,-0.04240948926702336,1.2308494423500564,-0.7985169726745943
1.9524979816963057,16.490512596423898,-0.04160084019425288,1.211132518097734,-0.7733555608299494
1.9446697602659166,16.26224186147291,-0.04080149065194893,1.1917173234916287,-0.7491589443532198
1.9369924956105558,16.037632242933377,-0.04001182150974544,1.1725944506087005,-0.7258797250939801
1.9294643185271683,15.816629059084864,-0.03923214778906904,1.1537548530598394,-0.7034732639291162
1.9220833055532296,15.599179314366634,-0.038462725620813425,1.1351898281846866,-0.6818974940492898
1.9148474895614471,15.385231635661906,-0.03770375850321128,1.116891000286124,-0.6611127485798951
1.9077548692250994,15.174736211675544,-0.036955402932028765,1.0988503048334706,-0.6410816013071866
1.9008034174671522,14.967644735227314,-0.03621777346741381,1.0810599735689514,-0.6217687193965405
1.8939910889947396,14.763910348294843,-0.03549094729482505,1.0635125204570517,-0.6031407270940934
1.8873158270102535,14.56348758965143,-0.03477496833134539,1.046200728420969,-0.5851660794966087
1.8807755691810668,14.366332344954053,-0.03406985092325038,1.0291176368145933,-0.5678149455585496
1.8743682529416499,14.17240179914635,-0.033375583175873545,1.0122565295822925,-0.5510590995810147
1.8680918201944527,13.981654391050114,-0.03269212995251883,0.9956109240623053,-0.5348718204953515
1.8619496078769067,13.79425476877654,-0.0319627365479648,0.9770166788174166,-0.5621255941463411
1.8559419628482288,13.610377561010718,-0.031275632174960315,0.9585328766122865,-0.5909253222619565
1.850060954643323,13.430002058615706,-0.03062971735036245,0.9401566222825705,-0.6211599364095562
1.8442988657366124,13.25310809157823,-0.030023850088697495,0.9218851360066349,-0.6527205185127914
1.8386481991558716,13.079676007443933,-0.02945685076120669,0.9037157496175564,-0.6855000581449974
1.8331016852161917,12.909686650415523,-0.028927506498583066,0.8856459033130823,-0.7193932136283248
1.8276522874579277,12.743121341038844,-0.02843457516735119,0.867673142757222,-0.7542960759247408
1.8222932078670868,12.579961856402761,-0.027976788946764752,0.8497951165699602,-0.7901059343005296
1.8170178914517803,12.420190410779188,-0.02755285753014677,0.8320095742045013,-0.8267210427336427
1.8118200302441,12.263789636629383,-0.027161470971748963,0.814314364214489,-0.8640403860128965
1.8066935667930277,12.110742565901905,-0.0268013021974357,0.7967074329168705,-0.9019634444492227
1.8016326972107672,11.961032611546148,-0.02647100919477841,0.7791868234595016,-0.9403899560814802
1.7966318738321951,11.8146435491634,-0.026169236895452825,0.7617506753062936,-0.9792196752121873
1.7916858075449142,11.671559498714412,-0.025894618760137246,0.7443972241567346,-1.0183521260512947
1.7867894698457294,11.531764906199022,-0.02564577807338723,0.7271248023210393,-1.0576863501780427
1.7819380946782055,11.3952445252187,-0.025421328953181162,0.7099318395770708,-1.0971206464512289
1.7771271801053419,11.26198339832752,-0.025219877076960433,0.6928168645406243,-1.136552301905915
1.7723524898713463,11.131966838070419,-0.02504002012299369,0.6757785065867489,-1.1758773120687689
1.7676100549070015,11.005180407599845,-0.024880347922739285,0.6588154983666449,-1.214990089003794
1.7628961748342715,10.881609900752636,-0.024739442316523506,0.6419266789724077,-1.253783155264093
1.7582074195275832,10.761241321458243,-0.02461587670124951,0.6251109978106727,-1.2921468217724887
1.7535406307917438,10.644060862336893,-0.02450821525495315,0.6083675192561883,-1.3299688474833142
1.74889292421974,10.530054882331623,-0.024415011818771898,0.59169542816772,-1.3671340784887414
1.7442616912977948,10.419209883201333,-0.024334808412229427,0.5750940363616608,-1.4035240640252231
1.739644601830137,10.311512484682389,-0.02426613335259046,0.5585627901535506,-1.4390166466091674
1.7350396067620246,10.20694939810381,-0.024207498943328853,0.5421012790946557,-1.4734855232869202
1.730444941486822,10.105507398215057,-0.024157398690384694,0.5257092460501137,-1.5067997747249815
1.7258591297314485,10.007173292955507,-0.024114303997758105,0.5093865987872411,-1.5388233585966236
1.7212809881244937,9.911933890860283,-0.02407666028597589,0.4931334232677419,-1.5694145634482248
1.716709631562873,9.819775965757572,-0.024042882467926522,0.47694999886607825,-1.598425418964555
1.7121444795063199,9.730686218367293,-0.02401134970631544,0.46083681576843644,-1.6257010583150824
1.7075852633445134,9.64465123435923,-0.02398039936533258,0.44479459484274253,-1.6510790280803125
1.7030320349995076,9.561657438369714,-0.023948320055779928,0.4288243103100681,-1.6743885411683577
1.6984851769467428,9.48169104340909,-0.02391334365753375,0.41292721559123574,-1.6954496681961
1.6939454138616685,9.404737995016795,-0.023873636185355384,0.39710487274871603,-1.71407246311179
1.6894138261264664,9.33078390943648,-0.02382728734308932,0.3813591859914244,-1.7300560195002495
1.684891865463173,9.259814004990481,-0.023772298586311996,0.36569243975594357,-1.7431874552163633
1.6803813729965662,9.19181302573153,-0.023706569483235688,0.35010734191721926,-1.7532408249944773
1.675884600093668,9.126765156342223,-0.023627882126219225,0.3346070727070679,-1.7599759638515284
1.6714042323783014,9.064653927142896,-0.023533883298691632,0.31919533991743565,-1.7631372689752267
1.6669434173811093,9.005462107963556,-0.023422064040172805,0.3038764409177162,-1.762452435137748
1.6625057963613,8.949171589546697,-0.0232897361683465,0.2886553318913306,-1.7576311696162956
1.6580955409312457,8.89576325109429,-0.023134005200645194,0.2735377044497901,-1.748363928748517
1.6537173952368718,8.845216812584074,-0.02295173895065858,0.25853006934196565,-1.7343207419371973
1.649376724607901,8.797510670604211,-0.022739530827982583,0.24363984623554524,-1.715150223516683
1.645079571812037,8.752621716763887,-0.02249365649689968,0.22887545734680717,-1.6904789232589268
1.6408327223574222,8.71052513834022,-0.0222100219727306,0.2142464207970438,-1.6599112393789741
1.6366437807387726,8.671194201884276,-0.021884100328842193,0.19976343663392923,-1.6230302235291394
1.6325212601967545,8.634600022275716,-0.021510852745034434,0.18543845398249847,-1.5793997590771887
1.6284746895916289,8.600711322541784,-0.021084627308920773,0.17128470111150987,-1.5285688101751729
1.6245147426006266,8.569494194142273,-0.02059902522794474,0.1573166504622847,-1.4700787425377555
1.6206533969927968,8.540911874037686,-0.02004671801237046,0.14354987695441424,-1.4034751321348713
1.6169041357993086,8.514924564522257,-0.019419189287502803,0.1300007495237881,-1.3283260221231763
1.613282208723539,8.491489335328207,-0.018706358878494433,0.11668587357148712,-1.2442492448403268
1.6098049826230285,8.470560165209207,-0.017896021126879432,0.10362118031271117,-1.1509520844825436
1.6064924266906284,8.45208820069119,-0.01697298868785858,0.09082055145589317,-1.0482868865696817
1.6033678046970736,8.436022327161432,-0.01591776913903368,0.0782939067520768,-0.9363254367441772
1.6004586891167467,8.422310146681635,-0.014704500127565195,0.06604483514052845,-0.8154514520019238
1.5977984807468917,8.410899404784033,-0.013297693239328971,0.054068237465823815,-0.6864617621272001
1.595428738644189,8.40173974364912,-0.011646960473331264,0.04234924816485008,-0.5506499333718367
1.5934028859345815,8.394784279285862,-0.009677804890960985,0.03086616618524829,-0.4098219300329896
1.591792612849427,8.389989701152963,-0.0072724381106614895,0.019603077318951823,-0.26617301545615346
1.5907013827794414,8.387311460773546,-0.004214194204978008,0.0085889266749102,-0.1219617000702854
