x,y,v_x,v_y,omega
2.375,32.48,0.0,2.8205128205128203,-2.8571428571428577
2.3741908318800813,31.83926221582908,-0.007036244521033871,2.751120085321236,-2.664988006654408
2.371889649535476,31.214144760368363,-0.012974036736402236,2.684683875206733,-2.4921775393083134
2.3683302175850107,30.603990504171268,-0.017977545441555533,2.6210053091158483,-2.3361925535391648
2.36371159287243,30.00818598067918,-0.02218440858088678,2.5599035908153582,-2.1949008726196575
2.3582036863265823,29.426157471503398,-0.02571043094822315,2.501213880278376,-2.0664897265250133
2.3519518488752937,28.857367544960773,-0.028653372976023307,2.4447854809618397,-1.9494114482955762
2.3450806684680443,28.301311981836133,-0.03109602186962611,2.390480285339398,-1.842339426065013
2.3376971262868307,27.757517034161758,-0.03310869274962152,2.3381714335682,-1.7441321876669262
2.329893230041218,27.225536972101626,-0.03475127460353293,2.2877421495633783,-1.6538039722004205
2.321748218711697,26.704951881423995,-0.03607491087056235,2.2390847258942865,-1.570500504496373
2.313330414645701,26.19536567998943,-0.037123385355491915,2.192099634406287,-1.4934789643046102
2.3046987843466393,25.696404326502705,-0.037934269418954274,2.146694743739138,-1.4220913540096198
2.2959042577446045,25.207714198722293,-0.038539874946567514,2.102784628264436,-1.3557706326462728
2.286990846529113,24.728960621575318,-0.038968048666404624,2.0602899556223035,-1.2940191115860347
2.2779965947495247,24.259826528329846,-0.03924283637349222,2.0191369421643994,-1.2363987071364269
2.2689543889562653,23.800011240238355,-0.03938504008963194,1.9792568673268192,-1.182522723891929
2.259892650363594,23.3492293519702,-0.039412686803162095,1.9405856393527856,-1.1320489048437912
2.250835927627818,22.90720971176277,-0.03934142394271684,1.9030634059292175,-1.0846735336720117
2.241805405670428,22.473694486592702,-0.039184853947630556,1.866634204245304,-1.0401264141033073
2.2328193433899903,22.048438303841515,-0.038954818056173374,1.831245645765044,-0.9981665828690068
2.2238934509865524,21.631207461937592,-0.038661637625897693,1.796848631660359,-0.9585786382894718
2.2150412158781663,21.22177920332552,-0.038314319838330155,1.7633970954011295,-0.9211695871277538
2.2062741847496627,20.8199410438662,-0.03792073345300334,1.7308477694625146,-0.8857661290921587
2.197602208082099,20.425490153425123,-0.03748775930842156,1.699159973503385,-0.8522123120056697
2.1890336525218115,20.03823278297618,-0.0370214194766853,1.6682954217048485,-0.8203675018132508
2.180575585624055,19.657983734047008,-0.03652698832989131,1.6382180472444572,-0.7901046207502164
2.1722339368181887,19.284565866769203,-0.03600908824286106,1.6088938421277639,-0.761308614530069
2.1640136378653594,18.917809643181258,-0.0354717722165268,1.5802907108108817,-0.7338751156340526
2.155918745596122,18.557552702771446,-0.03491859534205697,1.5523783362309795,-0.7077092749413322
2.147952549308573,18.203639467547518,-0.03435267672358672,1.5251280570205639,-0.6827247382240034
2.1401176648643703,17.855920774185893,-0.033776753226002654,1.4985127548196266,-0.6588427476026509
2.132430462138669,17.514254702286063,-0.03306848786705441,1.4724965660484688,-0.6325688189943296
2.1249054580492697,17.17850499949177,-0.03236633030163259,1.4470660669453548,-0.6076438920248509
2.1175411074889885,16.848539617986987,-0.031671500657333256,1.422198120052778,-0.5839812354759923
2.1103356077272744,16.524231695764044,-0.030985019009746196,1.3978707688423677,-0.5615007489502415
2.1032869414540905,16.205459293669485,-0.030307731191855484,1.3740631624146988,-0.5401283764947278
2.096392914265489,15.892105149112375,-0.029640331317720925,1.350755485907984,-0.5197955789103742
2.089651187296702,15.584056445179858,-0.02898338145433868,1.3279288961138938,-0.5004388582053669
2.0830593056157007,15.281204594014142,-0.028337328815240467,1.3055654618488581,-0.4819993284537523
2.0766147229101866,14.983445033404049,-0.02770252079792378,1.2836481086737,-0.46442232801470607
2.070314822931954,14.690677035633257,-0.02707921814323122,1.2621605675940415,-0.4476570686711878
2.064156938102909,14.402803527707885,-0.02646760645716246,1.2410873274092107,-0.4316563177713336
2.0581383656354504,14.119730922158809,-0.025867806303341824,1.2204135904088553,-0.41637610991308394
2.0522563814751997,13.841368957680157,-0.025279882046667694,1.2001252311446313,-0.40177548511158084
2.0465082523352742,13.567630548925127,-0.02470384960485504,1.1802087580295306,-0.3878162507377675
2.0408912460576474,13.29843164483463,-0.024139683244075585,1.1606512775400093,-0.3744627648221948
2.0354026405077987,13.033691094923647,-0.02358732153721639,1.141440460816368,-0.36168173858609537
2.030039731183398,12.773330522995131,-0.023046672588007452,1.122564512475074,-0.3494420562972996
2.0247998376955048,12.517274207792237,-0.022517618611064858,1.1040121414631396,-0.33771461075581416
2.019680309261389,12.265448970137037,-0.022000019946464024,1.0857725337994693,-0.3264721528965233
2.014678529331128,12.01778406613803,-0.02149371857754673,1.067835327061455,-0.3156891541576659
2.0097919194553224,11.77421108607994,-0.02099854121206344,1.0501905864871692,-0.30534168040621035
2.005017942488318,11.534663858637856,-0.020514301979276724,1.03282878257443,-0.2954072763373442
2.0003541052099494,11.299078360083989,-0.02004080478914778,1.0157407700679058,-0.2858648593770509
1.9957979604388802,11.067392628179224,-0.019577845394062838,0.9989177682344055,-0.27669462221592445
1.991350793286793,10.839640838191102,-0.01909317331973891,0.9815325794884053,-0.2843217221099029
1.9870123012633123,10.6158727576246,-0.018632844275745238,0.9642768167420255,-0.29434277207331155
1.9827768168686535,10.396059065333986,-0.018197454808245386,0.9471465944806933,-0.3066284314507491
1.9786385535522273,10.18017131552066,-0.017787443595459147,0.9301381865047518,-0.3210535979900439
1.9745916404686876,9.968181901968801,-0.017403104957060694,0.9132480182940107,-0.33749710720309967
1.9706301542505744,9.760064023972728,-0.017044601287401092,0.8964726599327261,-0.35584144413773233
1.966748148035704,9.555791653830628,-0.016711974494080007,0.879808819563799,-0.3759724663429546
1.9629396779694692,9.355339505786194,-0.016405156516658647,0.8632533373443174,-0.39777913686475885
1.9591988273857328,9.158683006305658,-0.016123978994092687,0.846803179877732,-0.42115326615586435
1.955519728854885,8.965798265583107,-0.01586818214371582,0.8304554351009843,-0.4459892618214393
1.9518965842737912,8.776662050171595,-0.015637422909272666,0.8142073076078312,-0.47218388515370074
1.9483236831597128,8.591251756641562,-0.015431282430538904,0.7980561143924564,-0.4996360134316856
1.944795419298721,8.409545386171398,-0.01524927288243482,0.7819992810002647,-0.5282464069784233
1.941306305888613,8.23152151997768,-0.015090843727197387,0.7660343380755463,-0.5579174799762133
1.9378509893067903,8.057159295494664,-0.014955387419088568,0.750158918298507,-0.588553074041607
1.9344242616249114,7.886438383214028,-0.014842244597249128,0.7343707537070288,-0.6200582335548273
1.9310210719843859,7.719338964096551,-0.014750708798624432,0.7186676734014789,-0.6523389817234537
1.9276365369398178,7.555841707467472,-0.014680030719358732,0.7030476016339752,-0.6853020963368791
1.9242659498713826,7.395927749306587,-0.014629422049645287,0.6875085562867788,-0.7188548841358484
1.9209047895617477,7.23957867084259,-0.01459805890369927,0.6720486477479758,-0.7529049526797399
1.917548728028548,7.086776477358988,-0.014585084863256152,0.6566660781963803,-0.7873599785424718
1.9141936376995514,6.93750357711556,-0.01458961364975691,0.6413591413117048,-0.8221274706052165
1.9108355980145597,6.791742760285199,-0.014610731437128165,0.6261262224305758,-0.8571145271395698
1.907470901535707,6.649477177800673,-0.014647498813763826,0.6109657991740011,-0.892227585287412
1.9040960596462477,6.510690319999249,-0.014698952398925805,0.5958764425775125,-0.9273721614422653
1.900707807917116,6.375365994945259,-0.01476410611526331,0.5808568187615348,-0.9624525809202052
1.8973031112205831,6.2434883063012165,-0.014841952115456997,0.565905691186676,-0.9973716951749441
1.893879168671242,6.115041630606871,-0.014931461357076278,0.5510219235467575,-1.0320305846601079
1.8904334184763911,5.9900105938124035,-0.015031583815539592,0.5362044833616678,-1.0663282452704506
1.8869635427807434,5.868380046896398,-0.01514124832052699,0.521452446342719,-1.1001612561013052
1.8834674725943148,5.75013504038122,-0.015259361996243002,0.5067650016153477,-1.133423426050596
1.879943392897491,5.635260797537189,-0.015384809280487447,0.492141457897978,-1.1660054165491367
1.876389748023715,5.523742686042446,-0.01551645049147497,0.47758125075195523,-1.1977943374421536
1.8728052474281607,5.415566187836834,-0.015653119904650167,0.46308395103599,-1.2286733127582807
1.869188871960286,5.310716866874905,-0.0157936232942597,0.44864927471990507,-1.2585210127933422
1.8655398807695525,5.209180334444856,-0.01593673488603344,0.4342770942370487,-1.2872111486088234
1.8618578189870072,5.110942211675553,-0.016081193657839585,0.4199674515829711,-1.3146119247059909
1.8581425263411957,5.015988088802477,-0.016225698914432964,0.40572057340029793,-1.3405854452978312
1.8543941468852636,4.924303480703884,-0.01636890505019528,0.39153688832659933,-1.3649870692810393
1.850613140033513,4.835873778150088,-0.016509415399808654,0.3774170469237928,-1.3876647087381553
1.8468002931305452,4.750684194130095,-0.016645775060783016,0.36336194455440524,-1.4084580656196313
1.8429567358049304,4.668719704529842,-0.01677646255325725,0.3493727476217148,-1.4271978012330517
1.8390839563927952,4.589964982333974,-0.016899880160963693,0.33545092364669016,-1.4437046333999257
1.8351838207555113,4.514404324407597,-0.017014342771937287,0.321598275713116,-1.4577883567741814
1.8312585938608867,4.442021569785517,-0.017118065007407757,0.3078169818701831,-1.4692467830638631
1.8273109645500933,4.372800008255087,-0.017209146390795484,0.29410964013355484,-1.477864600071869
1.8233440739748463,4.306722277867092,-0.017285554263526855,0.28047931976207174,-1.4834121520331307
1.819361548263394,4.24377024985283,-0.017345104096928684,0.2669296194923784,-1.4856441493509083
1.8153675360632207,4.183924899274459,-0.017385436774143163,0.2534647333630194,-1.4842983245189032
1.8113667517181034,4.127166159607153,-0.017403992313834552,0.24008952461356547,-1.479094064224122
1.8073645249751724,4.0734727593748445,-0.01739797936382593,0.22680960784128898,-1.4697310675178292
1.803366858296208,4.0228220389833105,-0.01736433958368926,0.21363143904160398,-1.455888109703244
1.799380493086185,3.9751897460904715,-0.01729970572085767,0.20056241220046173,-1.4372220359094434
1.7954129864829707,3.930549808342601,-0.017200351698398342,0.18761095952014883,-1.4133671740868172
1.7914728008275125,3.888874083270583,-0.017062132262106393,0.17478664980175493,-1.3839354544062956
1.7875694086409326,3.850132086864342,-0.016880408490762992,0.16210027546990796,-1.3485176652048916
1.783713417019381,3.8142907052504675,-0.01664995343577457,0.14956391247681786,-1.3066864849477242
1.77991671706428,3.781313898611522,-0.016364828782493995,0.13719092786182865,-1.2580022323438034
1.7761926667072645,3.7511624138875987,-0.01601821780024918,0.12499589582445418,-1.2020227060897544
1.7725563197595888,3.7237935340577515,-0.015602190440408168,0.1129943635655072,-1.13831907462173
1.769024721375445,3.699160908256111,-0.015107360726059563,0.10120238253571909,-1.0665005353213648
1.7656173022875243,3.677214529679617,-0.014522370473251061,0.08963569204248453,-0.9862513221633202
1.762356424280473,3.657900956545628,-0.013833090457630605,0.07830842216612009,-0.8973843157667486
1.759268162444355,3.6411638995526374,-0.01302136029122149,0.0672312038598819,-0.7999152220904631
1.7563834639829292,3.626945309511523,-0.012062974155958637,0.056408709541115244,-0.6941582945744098
1.7537399135325789,3.61518704823688,-0.010924421064480112,0.045837040673181145,-0.5808356962538842
1.7513844961806253,3.605833028454839,-0.00955746895250639,0.03550226177935247,-0.46117376073607785
1.74937809906474,3.5988312126857096,-0.007889462489974661,0.025383092734820027,-0.3369298872121541
1.747803535067237,3.5941337575520933,-0.005802398357877702,0.015464343209679843,-0.21026585165451703
1.746783456893302,3.5916904369068305,-0.0030678466328605686,0.005781923270856063,-0.08338765442970647
