x,y,v_x,v_y,omega
2.375,32.48,0.0,2.41025641025641,-3.4693877551020407
2.3741839912154603,31.931763499687424,-0.007095728561212931,2.3570175055050804,-3.2663811015703725
2.371847860373587,31.395546516076646,-0.013218452672469272,2.305738873719097,-3.080909824730608
2.368200848145523,30.8709117422786,-0.018494697136784873,2.2563026375682425,-2.9109911861696607
2.363425147134079,30.35744785377779,-0.023033137745336954,2.2086007406996777,-2.754908952768665
2.3576796876998585,29.854767375359902,-0.026927379073971063,2.1625338542384847,-2.611172476614516
2.3511033397282506,29.3625047814665,-0.030258255461747513,2.118010440486717,-2.478482811909994
2.3438176296444513,28.880314797033847,-0.03309574526694514,2.0749459458841883,-2.3557045291684884
2.335929053413311,28.407870871626127,-0.03550056978644825,2.0332621011394876,-2.2418421672136857
2.327531051503354,27.944863804241074,-0.03752553377839548,1.992886310904458,-2.1360204796993036
2.3187056999914026,27.49100049982429,-0.03921665328205055,1.9537511188066934,-2.0374678009254885
2.3095251624889714,27.046002841483528,-0.04061410760865411,1.9157937363303748,-1.9455019872919088
2.300052939891585,26.60960666480013,-0.04175304541209744,1.8789556261339406,-1.859518494389264
2.290344948709582,26.181560822608773,-0.04266426921401559,1.8431821320517765,-1.7789802319013894
2.2804504536414205,25.76162633024772,-0.043374818335214206,1.808422149348694,-1.7034089039911882
2.270412875870162,25.349575582639073,-0.043908466632252646,1.7746278298569298,-1.6323775953311528
2.2602704951219565,24.945191635694943,-0.044286148569532384,1.741754317483321,-1.5655044052058062
2.250057060680905,24.54826754550298,-0.044526324830915606,1.7097595102728922,-1.5024469663068472
2.2398023241956238,24.15860575955601,-0.044645296780228556,1.678603845787694,-1.442897712624894
2.229532505149862,23.776017554981735,-0.04465747753074197,1.6482501070320836,-1.3865797835093931
2.21927069823093,23.40032251932007,-0.044575626112147465,1.6186632465476298,-1.3332434695347142
2.2090372304577697,23.03134806990487,-0.04441105017619883,1.5898102266280152,-1.28266312107431
2.1988499747785943,22.668929008346574,-0.04417378181663334,1.5616598738789005,-1.2346344530779636
2.1887246258781206,22.312907106993876,-0.04387273036139968,1.534182746579356,-1.188972189972075
2.1786749431157317,21.963130724584996,-0.043515815398500565,1.5073510134978407,-1.145508003260871
2.168712964823006,21.619454448589707,-0.04311008279911616,1.4811383429829517,-1.1040887016191856
2.1588681097624978,21.28174128745569,-0.042497352509648825,1.4554978407910795,-1.0603325475670626
2.149166482981627,20.949859670920922,-0.04186461949792457,1.4304292595112764,-1.0188093108906031
2.139612232316544,20.623680646127006,-0.041215821068015975,1.405910086522745,-0.9793762466167337
2.1302086540803935,20.303080306127832,-0.040554424463727395,1.3819189569483596,-0.9419014616957477
2.120958294983855,19.98793953435641,-0.03988348072356051,1.358435580194436,-0.9062629604271957
2.1118630424050986,19.67814376534068,-0.03920567213519462,1.3354406721162722,-0.8723477849638828
2.1029242043886383,19.373582760432143,-0.03852335409489581,1.3129158923057804,-0.8400512403385223
2.0941425805797476,19.074150397421306,-0.03783859206936764,1.2908437860493127,-0.8092761947478948
2.0855185251512895,18.779744473012443,-0.03715319426505036,1.2692077305495058,-0.7799324469476466
2.0770520026498094,18.49026651721902,-0.03646874053042861,1.2479918850454779,-0.7519361535819551
2.0687426375747258,18.205621618821105,-0.035786607948560666,1.2271811445016312,-0.7252093101171533
2.0605897584060546,17.925718261098183,-0.03510799351814608,1.206761096567247,-0.6996792797847993
2.0525924367103467,17.650468167116138,-0.03443393427061627,1.1867179815375013,-0.6752783655826635
2.0447495218796448,17.379786153906053,-0.033765325126791104,1.167038655071897,-0.6519434209445104
2.0370596719928247,17.113589994926176,-0.03310293475860257,1.1477105534487866,-0.6296154951822932
2.029521381231419,16.851800290246747,-0.03244741968840445,1.128721661154951,-0.608239510236803
2.022133004231831,16.594340343941774,-0.031799336829749676,1.1100604806274004,-0.5877639656528958
2.0148927777118186,16.34113604821182,-0.031159154648619194,1.091716003980903,-0.5681406690300265
2.0077988396704507,16.09211577379853,-0.030527263102409212,1.073677686569447,-0.5493244894938265
2.0008492464267382,15.847210266285089,-0.029903982495086853,1.0559354222430681,-0.5312731319949467
1.994041987732204,15.606352547907193,-0.02928957137042965,1.0384795201734198,-0.5139469304717162
1.987375000166257,15.369477824527042,-0.02868423355084871,1.0213006831322373,-0.49730865811712227
1.980846178999991,15.136523397448425,-0.02808812441668159,1.0043899871165953,-0.48132335317145825
1.9744533886934468,14.907428579774294,-0.02750135650979051,0.9877388622236841,-0.4659581588225565
1.9681993123553334,14.682244910958708,-0.026881915995543994,0.9703799970422861,-0.4704823723264082
1.9620847006834168,14.461038846707392,-0.026288620281991224,0.953150996447406,-0.4774545848636448
1.9561034818043286,14.243780968981369,-0.025721978666600885,0.9360479403006257,-0.4867415639639063
1.9502494845349383,14.030442742578387,-0.025182345415054097,0.9190670718992292,-0.4982144394545938
1.944516472510492,13.820996478441565,-0.024669933058391963,0.9022047901601075,-0.5117483901718003
1.9388981753764247,13.615415298698572,-0.024184824629149757,0.8854576423876398,-0.5272223436913235
1.9333883172786672,13.413673103300766,-0.023726984916567707,0.8688223175932859,-0.5445186877869385
1.927980642869612,13.215744538138651,-0.023296270814346886,0.852295640338155,-0.5635229923823353
1.922668941030707,13.021604964516346,-0.02289244082830549,0.8358745650731861,-0.5841237408135083
1.9174470664978043,12.831230429873127,-0.022515163805632128,0.8195561709547906,-0.606212069260274
1.9123089595618057,12.644597639644878,-0.022164026942180517,0.8033376571169205,-0.6296815132392665
1.9072486640047286,12.461683930162323,-0.02183854311935931,0.7872163383835642,-0.6544277600763904
1.9022603434199783,12.282467242486216,-0.02153815761760083,0.7711896414086624,-0.6803484062944012
1.8973382960553071,12.106926097082376,-0.021262254249104558,0.7552551012334259,-0.707342718861029
1.8924769683075815,11.935039569241315,-0.021010160948509438,0.7394103582540474,-0.7353113992447993
1.8876709669900262,11.766787265148572,-0.0207811548563188,0.7236531555958805,-0.7641563492192571
1.8829150704850308,11.602149298512312,-0.02057446692625007,0.707981336893338,-0.7937804373414176
1.8782042388888318,11.441106267654597,-0.0203892860841759,0.6923928444780957,-0.824087265006602
1.8735336232484143,11.28363923297172,-0.020224762962932533,0.6768857179817134,-0.8549809309489286
1.8688985739857713,11.129729694667127,-0.020080013233962867,0.6614580933625597,-0.886365793014074
1.8642946486002128,10.979359570657767,-0.019954120553503915,0.6461082023710172,-0.91814622597787
1.859717618735714,10.832511174550888,-0.0198461391377881,0.6308343724714014,-0.9502263741200946
1.8551634766973444,10.689167193583621,-0.019755095978470572,0.6156350272439466,-0.9825098971866396
1.850628441498609,10.549310666411564,-0.019679992706184497,0.6005086872956654,-1.0148997082841196
1.8461089645201243,10.41292496062534,-0.01961980710672442,0.5854539717149861,-1.0472977021479248
1.8416017348594065,10.279993749865245,-0.019573494290823144,0.5704696001119236,-1.079604472106605
1.8371036844517628,10.150500990393645,-0.01953998751477477,0.55555439529328,-1.1117190139311572
1.8326119930433638,10.024430896972337,-0.01951819864521671,0.540707286631148,-1.14353841460616
1.8281240930995901,9.901767917877564,-0.01950701825716186,0.5259273141929806,-1.1749575238896703
1.8236376747347887,9.78249670886839,-0.019505315349808316,0.5112136337128892,-1.205868606339533
1.8191506907536974,9.666602105904268,-0.019511936659680387,0.4965655224968707,-1.236160971274708
1.814661361900137,9.554069096384627,-0.01952570554519437,0.481982386369584,-1.2657205779114744
1.8101681824152078,9.444882788656574,-0.01954542041070951,0.46746376778740006,-1.2944296126669212
1.805669926015363,9.33902837950589,-0.019569852631419082,0.45300935526202896,-1.322166035358407
1.8011656524104613,9.236491119310692,-0.019597743932944563,0.438618994261435,-1.348803090752244
1.7966547144934981,9.13725627449589,-0.019627803171083723,0.42429269978032524,-1.3742087816354809
1.7921367663473409,9.041309086878972,-0.019658702447673666,0.41003067080158234,-1.398245299313739
1.7876117722297646,8.948634729442954,-0.019689072487772213,0.3958333069029117,-1.4207684071947586
1.783080016716694,8.859218258009633,-0.019717497191103172,0.38170122729988526,-1.4416267729306544
1.7785421162052013,8.773044558214533,-0.01974250725665921,0.3676352926575089,-1.460661244505063
1.7739990320029255,8.690098287103503,-0.019762572763131384,0.3536366300470978,-1.477704065728093
1.7694520852597384,8.610363808578722,-0.019776094568929575,0.33970666147274514,-1.492578026935667
1.7649029740313849,8.53382512181873,-0.01978139437327513,0.3258471364402338,-1.5050955474166812
1.7603537928043411,8.460465781683023,-0.019776703253191853,0.31206016908765877,-1.5150576874097277
1.7558070548574691,8.390268809987823,-0.019760148458739656,0.2983482804358204,-1.52225308970927
1.751265717890755,8.323216596408763,-0.019729738208340817,0.2847144463386218,-1.526456854418365
1.7467332134167641,8.259290787633766,-0.01968334417418575,0.27116215170483804,-1.5274293557911238
1.7422134804896219,8.198472163265215,-0.019618681279224788,0.25769545149994344,-1.5249150183110625
1.7377110044441215,8.140740496870986,-0.01953328433382309,0.24431903888466616,-1.5186410814454565
1.733230861441267,8.086074400535924,-0.01942448090839014,0.23103832055065954,-1.5083164007882752
1.7287787697774586,8.034451151311877,-0.019289359646466102,0.2178594987888927,-1.4936303603076895
1.7243611491305546,7.985846498172492,-0.019124732935306313,0.2047896589448829,-1.4742520101562946
1.719985189215913,7.940234448553227,-0.018927092409404444,0.19183685948351023,-1.4498296027956303
1.7156589297558145,7.897587034456624,-0.01869255506971378,0.17901021961736932,-1.4199907853953473
1.711391354302694,7.857874059669069,-0.018416796696550285,0.16631999592660235,-1.3843438304554532
1.7071925014259146,7.821062832225206,-0.018094967449356427,0.15377763402002528,-1.3424804657711007
1.7030735982810778,7.78711789038843,-0.017721581636181226,0.1413957732562859,-1.2939811208616663
1.6990472239737555,7.756000736812457,-0.017290368862274037,0.12918817088261922,-1.2384237658759265
1.6951275139737998,7.727669605153533,-0.01679406591995027,0.11716949571670057,-1.1753980058339688
1.6913304230641641,7.702079297292027,-0.016224115902967566,0.10535492047030186,-1.104526715053131
1.6876740744330982,7.679181148339609,-0.015570220019344523,0.09375941824638506,-1.0254981997190336
1.6841792389605321,7.6589232003294825,-0.01481965365514449,0.08239665140688254,-0.9381124472153071
1.6808700153186913,7.641250689764362,-0.013956204099993236,0.07127735350720721,-0.8423448870201662
1.6777748242375854,7.626106966047814,-0.012958500953100492,0.060407200549723865,-0.7384289830573009
1.6749278995857375,7.613434926269285,-0.011797365584707122,0.049784449698361814,-0.6269525700839809
1.6723715777015244,7.603178914632974,-0.010431520364971473,0.0393982601826145,-0.5089489730030891
1.6701599252867532,7.595286683256706,-0.00880023976347441,0.02922983874144074,-0.38594117486128837
1.6683648842254604,7.589710248166021,-0.006808812943418306,0.019260901177555488,-0.2598725830001738
1.6670885178928043,7.586402621497765,-0.004290024731853618,0.00950106985075538,-0.13285223149335246
1.6664998082130893,7.585298471499534,-0.0008291898743627633,0.00010023448168155168,-0.00671597567719559
