x,y,v_x,v_y,omega
2.375,32.48,0.0,2.3076923076923075,-7.510204081632653
2.3739235228828677,32.045768334619495,-0.011331338075077831,2.2631673278919093,-7.149888966047257
2.3708170078621147,31.619863739644323,-0.02136882003811072,2.220038935004654,-6.814608968087383
2.36591307869807,31.202028482677402,-0.030251486951831094,2.1782269278050497,-6.502021538132205
2.3594195218621317,30.792019408031393,-0.03810174290015164,2.1376580684687174,-6.210052140039789
2.3515222301373204,30.38960669389519,-0.045027643676811106,2.098265238228162,-5.9368581193567325
2.3423877460136033,29.99457275761697,-0.051124820783366505,2.0599867225951742,-5.680798217696519
2.332165467795061,29.606711286705572,-0.05647810783286672,2.0227656027879872,-5.4404067231456965
2.320989569924464,29.225826377140983,-0.06116292238394732,1.9865492347340301,-5.214371450805442
2.3089806799792725,28.851731763774705,-0.06524644546017236,1.9512888007004632,-5.001514905812138
2.2962473475548992,28.484250130166856,-0.06878863269112519,1.9169389214874146,-4.800778104787149
2.2828873344187786,28.12321248728346,-0.07184308453119771,1.8834573193904602,-4.611206628973867
2.2689887505857556,27.768457612167097,-0.07445779792167893,1.8508045239396713,-4.431938559485479
2.254631057098637,27.4198315390763,-0.07667581773219799,1.8189436138581978,-4.262194006700157
2.2398859531191766,27.07718709672553,-0.07853580310422754,1.7878399898341064,-4.101265995354471
2.2248181623065704,26.740383486196784,-0.0800725212389976,1.7574611736263728,-3.948512506918938
2.2094861312756517,26.40928589487349,-0.08131727908646161,1.727776629776685,-3.80334951339285
2.1939426511013562,26.0837651423978,-0.0822983016955963,1.6987576068095378,-3.665244863269325
2.178235411303413,25.763697355197174,-0.08304106459854231,1.6703769953023577,-3.5337129022904072
2.1624074944528977,25.448963666584802,-0.08356858645951219,1.6426092006172992,-3.408309729668133
2.1464978184480756,25.139449939825848,-0.08390168727545956,1.615430028424342,-3.2886290054231364
2.1305415325769435,24.83504651189014,-0.08405921663119612,1.5888165814251862,-3.1742982369662087
2.1145703726905665,24.535647955892337,-0.08405825585698118,1.562747165920121,-3.0649754834802225
2.098612980132311,24.24115286045977,-0.08391429738781168,1.5372012070542669,-2.9603464254175735
2.082695188485105,23.951463624474094,-0.08364140416172779,1.5121591717423364,-2.8601217538071007
2.0668402816968428,23.666486265809816,-0.0832523515041896,1.4876024984079461,-2.764034840302791
2.0510788581019406,23.386139600854555,-0.0826573705474093,1.4634150274369078,-2.6676479917174265
2.035437128480797,23.11034527692756,-0.0819924149383126,1.4396831191630375,-2.5755239741039198
2.0199276305861114,22.83901827881317,-0.08126545763732558,1.4163905451989975,-2.487424413281765
2.0045614582465805,22.572076602988517,-0.08048372488405164,1.3935218319026186,-2.4031268223035185
1.9893483965433525,22.309441118552158,-0.07965376672887718,1.3710622147959006,-2.32242336927557
1.974297044256754,22.05103543649046,-0.07878152049847546,1.3489975963798462,-2.245119754114912
1.9594149248533848,21.79678578666558,-0.07787236795804216,1.3273145070399333,-2.171034183411049
1.9447085871472196,21.546620901963706,-0.07693118684369572,1.3060000687692894,-2.0999964337611043
1.930183696647821,21.30047190909145,-0.07596239736050127,1.2850419614649669,-2.031846994998449
1.9158451185020975,21.0582722255524,-0.07497000417343047,1.2644283915776742,-1.9664362856604851
1.9016969928415262,20.81995746237537,-0.07395763435890017,1.2441480629173536,-1.9036239338564054
1.8877428032628727,20.585465332201757,-0.07292857173218831,1.224190149436479,-1.8432781174151571
1.8739854390959119,20.354735562371424,-0.07188578792003,1.2045442698302298,-1.7852749578298444
1.860427252045324,20.127709812675786,-0.0708319705072108,1.185200463808042,-1.7294979630779626
1.847070107734862,19.904331597473075,-0.06976954855028396,1.166149169904707,-1.6758375148963298
1.8339154326291824,19.68454621188455,-0.06870071572002677,1.1473812047113678,-1.6241903965332456
1.8209642567616728,19.468300661812293,-0.06762745130638981,1.1288877434176579,-1.5744593573950811
1.8082172526545386,19.255543597538846,-0.06655153929502441,1.1106603015659744,-1.5265527113561022
1.795674770779764,19.046225250686952,-0.06547458570260395,1.0926907179276237,-1.4803839658139966
1.7833368718758362,18.840297374334078,-0.0643980343387402,1.0749711384184246,-1.435871478853777
1.771203356404877,18.63771318609138,-0.0633231811450421,1.0574940009784333,-1.392938142133365
1.7592737914076795,18.43842731397048,-0.06225118724651036,1.0402520213468163,-1.3515110873286411
1.7475475349897664,18.24239574487401,-0.06118309083678426,1.0232381796686547,-1.3115214141770373
1.7360237586496488,18.0495757755573,-0.06011981800655953,1.0064457078756592,-1.27290393833948
1.7247014676407328,17.859925965919302,-0.059062192613607074,0.9898680777874872,-1.2355969574629366
1.7135882701264145,17.673630418029276,-0.05791883385290372,0.9711376894759415,-1.2457871987900964
1.702688470243995,17.490882302058637,-0.05681590175151131,0.9525266891623699,-1.257919993900436
1.6919944656366739,17.311659240427183,-0.05575256779923853,0.934031854326639,-1.271865018346224
1.681498818064802,17.135939454582214,-0.054727932957305735,0.9156501019361634,-1.2874948337561491
1.671194266171265,16.963701738947115,-0.05374103434308337,0.8973784836964398,-1.3046845980879844
1.6610737370310638,16.79492543572507,-0.052790851343247534,0.879214181798781,-1.323311782454234
1.6511303565900606,16.62959041046457,-0.05187631119362686,0.861154505153875,-1.3432558933203442
1.6413574590909175,16.467677028295146,-0.05099629406050988,0.8431968861031961,-1.3643981988904663
1.6317485955779578,16.309166130742987,-0.05014963765485635,0.8253388776037273,-1.3866214585027388
1.6222975415670167,16.15403901303656,-0.04933514140768348,0.8075781508849894,-1.4098096538546265
1.6129983039612605,16.00227740181229,-0.048551570231854045,0.7899124935810262,-1.433847720868932
1.6038451272894418,15.85386343312943,-0.047797657892551956,0.7723398083438312,-1.458621280992581
1.594832499339092,15.708779630701635,-0.04707211000586923,0.7548581119487638,-1.484016370692996
1.585955156253733,15.567008884250352,-0.04637360668211979,0.7374655349068433,-1.5099191678805854
1.5772080871602987,15.428534427881871,-0.04570080482771707,0.7201603216034935,-1.536215713940358
1.5685865383905813,15.29333981838564,-0.045052340116676984,0.7029408309884001,-1.5627916300006643
1.560086017358696,15.161408913346303,-0.04442682864000936,0.6858055378467143,-1.589531826002314
1.5517022961552458,15.032725848955508,-0.04382286823841181,0.6687530346879703,-1.616320201056657
1.5434314149181256,14.907275017402043,-0.04323903952074923,0.6517820342958679,-1.643039333496546
1.5352696850397174,14.78504104370992,-0.04267390656775915,0.6348913729896108,-1.6695701589295207
1.5272136922706432,14.6660087618836,-0.04212601731723222,0.6180800146558879,-1.6957916344984374
1.5192602997812699,14.550163190207392,-0.04159390362354006,0.6013470556199638,-1.7215803874418834
1.5114066512438598,14.437489505532188,-0.04107608098077753,0.5846917304348286,-1.7468103459264437
1.5036501740006698,14.327973016366368,-0.04057104789490454,0.568113418679082,-1.771352349997459
1.4959885823864782,14.221599134569459,-0.0400772848860595,0.5516116528673277,-1.7950737403677615
1.4884198812780298,14.118353345425874,-0.03959325309760862,0.5351861275914608,-1.81783792264015
1.4809423699478323,14.018221175852076,-0.03911739248341739,0.518836710027462,-1.8395039044465717
1.4735546463056846,13.921188160463245,-0.0386481195391926,0.5025634519602474,-1.8599258028959245
1.4662556116184051,13.827239805194637,-0.038183824537433055,0.4863666034987842,-1.8789523196684708
1.4590444758066003,13.736361548138127,-0.03772286821840565,0.47024662867500244,-1.8964261810997989
1.4519207634271143,13.648538717215438,-0.037263577881448656,0.45420422314276837,-1.9121835406915686
1.4448843204612785,13.563756484266271,-0.0368042428115573,0.43824033421686637,-1.9260533417126688
1.4379353220424766,13.481999815081675,-0.03634310896530421,0.4223561835157157,-1.9378566379724351
1.4310742812721848,13.40325341486075,-0.03587837282724066,0.4065532924940164,-1.9474058715402622
1.4243020592920208,13.327501668512625,-0.03540817433238187,0.390833511170443,-1.9545041072689031
1.4176198768009718,13.254728575166528,-0.03493058873129229,0.3751990503674262,-1.9589442256129335
1.4110293272327177,13.184917676192548,-0.03444361725033016,0.3596525177797209,-1.9605080776435053
1.4045323918388977,13.118051975977519,-0.03394517636882841,0.34419695816797036,-1.9589656096580976
1.3981314569618855,13.054113854649056,-0.03343308549445777,0.3288358979211187,-1.9540739698053142
1.3918293338273953,12.993084971904196,-0.032905052763334136,0.3135733941300389,-1.9455766162979362
1.3856292812463677,12.934946161088654,-0.03235865861590449,0.29841408813883297,-1.9332024569208732
1.3795350316920174,12.879677312706416,-0.03179133669304482,0.283363263253147,-1.916665063837355
1.3735508213190546,12.8272572466432,-0.03120035144340537,0.2684269058333294,-1.8956620278027945
1.3676814246291176,12.777663572599764,-0.03058277160856292,0.25361176830811266,-1.8698745440927056
1.361932194676464,12.730872538608157,-0.02993543841936964,0.23892543160352261,-1.8389673618789477
1.3563091099771454,12.686858868126453,-0.029254926836614653,0.22437636294074345,-1.8025892837187623
1.3508188296736245,12.645595587189721,-0.028537497410973833,0.2099739627090725,-1.7603744779527017
1.345468759077451,12.607053844597491,-0.02777903518032668,0.19572859089335987,-1.7119449715016608
1.3402671285616703,12.571202730358475,-0.026974970248944703,0.181651558991021,-1.6569148327864895
1.335223090051058,12.538009100878106,-0.026120171968027777,0.1677550671181445,-1.5948967440316348
1.3303468372911498,12.507437424013457,-0.02520880445205824,0.15405205777289174,-1.5255119069361998
1.325649759015908,12.479449663509833,-0.02423412476101429,0.14055594752841977,-1.448404524912944
1.3211446386056458,12.454005230755232,-0.02318819534700978,0.127280186730516,-1.363262434763928
1.3168459206127803,12.431061042137124,-0.022061467735784206,0.11423758819692624,-1.2698457433788282
1.3127700747702162,12.410571731437386,-0.020842172712259466,0.10143936653715735,-1.1680253744314049
1.3089361034253304,12.392490075299559,-0.019515420391801742,0.08889385596628999,-1.0578328602694007
1.3053662612068644,12.376767688148703,-0.01806186611836639,0.0766049561479662,-0.939520826708515
1.3020870903419728,12.363356015869986,-0.016455721933124164,0.0645705415227462,-0.8136293580496263
1.2991309309375951,12.352207578780007,-0.014661745481377681,0.05278142784546322,-0.6810456934801078
1.2965381709522774,12.34327724317276,-0.012630464890387315,0.0412221048623878,-0.5430335352252912
1.2943607529817727,12.33652297100511,-0.01028972427282094,0.029875496902360306,-0.4011971395949499
1.2926682367344442,12.331904827714293,-0.007526236225372414,0.018736537737801307,-0.25734270644428237
1.2915609683228104,12.32937899171862,-0.00412922073919419,0.007851209585073437,-0.11321604745302344
