x,y,v_x,v_y,omega
2.375,32.48,0.0,2.41025641025641,-4.938775510204081
2.374051595508398,31.979084107773616,-0.009032423729544695,2.36037113475674,-4.67250905355352
2.3713264013333704,31.488464373772818,-0.016921806508812955,2.3121977604889445,-4.427332743051701
2.367050080132392,31.007791733452,-0.02380506207193154,2.26563690923314,-4.201042972654304
2.361421423442474,30.5367371203353,-0.029801192117764146,2.220597501402114,-3.9917120024081827
2.3546158386331504,30.07498982369668,-0.03501390130436523,2.1769957999180676,-3.797648135753094
2.346788331619966,29.622256031991327,-0.039533784535489114,2.1347545972757684,-3.617362409379693
2.3380760669183833,29.178257534707488,-0.04344016500338915,2.093802519713185,-3.4495406013133953
2.3286005718339395,28.74273056021086,-0.04680264532465045,2.054073427873737,-3.2930196066768707
2.318469639799022,28.31542473104247,-0.04968242167456358,2.015505897539526,-3.1467674193824875
2.307778978401983,27.896102121238414,-0.05213340115438068,1.978042767260989,-3.0098661054127036
2.2966136400018415,27.484536402740975,-0.05420315503744039,1.9416307422384247,-2.8814972693040954
2.285049266596309,27.080512069997297,-0.05593373453906119,1.9062200457965908,-2.760929607307094
2.273153175517355,26.68382373349557,-0.05736237097478462,1.8717641113627437,-2.6475082139305055
2.260985308339494,26.294275474346286,-0.058522078338175354,1.838219309106608,-2.5406453673244935
2.2485990619241636,25.91168025313811,-0.05944217323640316,1.80554470239986,-2.4398125663409296
2.2360420176500786,25.535859367230096,-0.06014872461202675,1.7737018300573892,-2.3445336305333178
2.2233565824844455,25.166641951421738,-0.06066494363209506,1.7426545109745957,-2.2543787056680067
2.2105805535460874,24.80386451759724,-0.061011522447508126,1.7123686683063424,-2.1689590429487615
2.197747616129004,24.447370529494364,-0.06120692914376025,1.6828121707686492,-2.0879224412289856
2.184887783737441,24.097010009218334,-0.0612676650616019,1.6539546890030787,-2.010949258881184
2.1720277874856166,23.7526391725227,-0.06120848971767754,1.6257675652410515,-1.9377489164085333
2.1591914211999397,23.41412009022334,-0.06104261776496103,1.5982236947528725,-1.8680568228726018
2.1463998476985426,23.08132037340808,-0.06078189177215265,1.571297417773403,-1.8016316692170888
2.1336718709875226,22.75411288036097,-0.06043693404708866,1.544964420770489,-1.7382530399453437
2.121024178484958,22.432375443342785,-0.060017280263047805,1.519201646069397,-1.6777193016461356
2.1084715568457173,22.115990613563504,-0.05953149725353064,1.4939872089713455,-1.6198457327899303
2.096045702321014,21.80484984193528,-0.05880997441031085,1.4692582351069738,-1.5596831934688788
2.083774646493885,21.49884858159584,-0.05805722394329629,1.4450394824115056,-1.5023861807401029
2.071664423377176,21.197881676164705,-0.0572782343110762,1.4213119978850453,-1.4477832516736628
2.059720076063154,20.901847853500144,-0.05647745439389502,1.3980577417774334,-1.3957151710901632
2.0479457640673955,20.610649539770037,-0.05565885032761587,1.3752595318426137,-1.3460339041931402
2.036344859393204,20.324192684797914,-0.054825956093256564,1.3529009917014314,-1.2986017034896504
2.024920032551338,20.042386597858997,-0.05398191859118168,1.3309665029549274,-1.253290280140579
2.013673329626266,19.765143793172456,-0.05312953783807489,1.3094411607264087,-1.209980051020269
2.0026062413544383,19.49237984440021,-0.052271302845996556,1.2883107323425849,-1.1685594537593922
1.9917197650697949,19.224013247520535,-0.05140942367441845,1.2675616188924301,-1.1289243229152623
1.9810144602748823,18.95996529149693,-0.0505458600866531,1.2471808194276262,-1.0909773211768539
1.9704904985108012,18.700159936209985,-0.04968234719031116,1.227155897590857,-1.0546274201819676
1.9601477081242105,18.444523697162737,-0.04882041839626616,1.2074749504782145,-1.0197894261135656
1.949985614463529,18.19298553650874,-0.04796142599117641,1.1881265795598321,-0.9863835457617899
1.9400034759781213,17.945476759987578,-0.047106559584134906,1.1690998634988385,-0.9543349891966403
1.930200316642715,17.70193091938428,-0.046256862657828836,1.1503843327230523,-0.9235736056014845
1.9205749550836904,17.46228372015861,-0.045413247428121035,1.131969945616699,-0.8940335491762236
1.911126030743501,17.226472933916696,-0.04457650819273069,1.1138470662110045,-0.8656529723368471
1.9018520273836912,16.994438315421935,-0.04374733332926789,1.0960064432629404,-0.8383737437202904
1.892751294195203,16.766121523864143,-0.042926316084905734,1.078439190620803,-0.812141188754316
1.883822064756453,16.541466048126658,-0.042113964284141284,1.0611367687838023,-0.7869038507753628
1.8750624740545692,16.320417135809453,-0.04131070906713285,1.0440909675705272,-0.7626132708762239
1.866470573762849,16.102921725783645,-0.04051691275877177,1.0272938898181196,-0.7392237848429044
1.8580443459476144,15.88892838406851,-0.039732875957749186,1.0107379360403062,-0.7166923356985707
1.8497817153599008,15.678387242836568,-0.03895884392523588,0.9944157899781821,-0.6949783005143216
1.841686941791479,15.47139778012792,-0.03813423767878289,0.9769124262946617,-0.7021705587668372
1.8337618776741045,15.268071326490322,-0.03734256343906889,0.9595299893014874,-0.7115534194705194
1.8259996189301428,15.068382850303852,-0.03658371031294635,0.942265021998242,-0.7230034548550166
1.8183932959179159,14.87230803112146,-0.03585746123207119,0.9251142083102638,-0.7364008065878302
1.8109360947517454,14.679823230714213,-0.035163502255267244,0.9080743669968513,-0.7516289131594173
1.803621276746324,14.490905465345683,-0.034501431129699,0.8911424460367492,-0.7685742469459887
1.7964421961354646,14.305532379177588,-0.03387076516419846,0.8743155174689142,-0.7871260598722655
1.7893923162045335,14.123682218713064,-0.03327094846371726,0.857590772669396,-0.8071761366350458
1.7824652239660144,13.945333808187748,-0.032701358569798826,0.8409655180479154,-0.8286185544798633
1.7756546434986293,13.770466525821924,-0.032161312548155206,0.8244371711504064,-0.8513494485474381
1.7689544480621826,13.599060280849706,-0.031650072560859735,0.8080032571564378,-0.8752667818241944
1.7623586710927757,13.431095491243155,-0.03116685095730179,0.7916614057630795,-0.9002701187418605
1.755861516176198,13.26655306205084,-0.0307108149148673,0.7754093484494429,-0.9262604014750928
1.7494573660911221,13.10541436427117,-0.030281090657283172,0.7592449161188566,-0.9531397279830729
1.743140791008162,12.947661214181252,-0.029876767275671023,0.7431660371184493,-0.9808111308309745
1.7369065559258865,12.793275853041735,-0.02949690017457171,0.7271707356388518,-1.0091783558098746
1.7307496274204934,12.642240927097173,-0.02914051416250387,0.7112571304998337,-1.0381456393487953
1.7246651797820123,12.494539467789934,-0.028806606203983218,0.695423434331001,-1.0676174836797752
1.7186486006066244,12.350154872103353,-0.028494147847331362,0.679667953160243,-1.097498428675753
1.7126954959119525,12.209070882946744,-0.02820208734001866,0.6639890864264955,-1.1276928192311488
1.706801694839978,12.07127156949101,-0.02792935144069024,0.6483853274376216,-1.1581045669957863
1.7009632540105946,11.936741307358677,-0.02767484693439132,0.6328552642988983,-1.1886369052036698
1.6951764615877285,11.805464758566302,-0.02743746185480922,0.6173975813427823,-1.219192135258474
1.689437841119445,11.677426851110184,-0.027216066414555266,0.6020110610964243,-1.2496713636468144
1.6837441552135501,11.55261275807792,-0.027009513641587865,0.5866945868298913,-1.2799742276478447
1.6780924091109202,11.43100787615857,-0.02681663971679297,0.571447145735359,-1.3099986081929487
1.6724798542201895,11.312597803412803,-0.026636264004451633,0.5562678327957741,-1.3396403281018763
1.6669039916795239,11.197368316151113,-0.026467188763793597,0.5411558554108018,-1.3687928337814979
1.6613625760140942,11.085305344752843,-0.026308198526013106,0.5261105388584274,-1.3973468583206696
1.6558536189615825,10.97639494824104,-0.02615805911695525,0.5111313326825347,-1.4251900637503998
1.650375393542686,10.870623287407788,-0.026015516301107156,0.49621781811034565,-1.4522066600643309
1.6449264384592344,10.767976596261214,-0.02587929401747927,0.4813697166189513,-1.4782769984135957
1.6395055629093016,10.668441151538534,-0.025748092172357198,0.46658689978752277,-1.503277135707314
1.6341118519167006,10.572003239998754,-0.025620583947650356,0.4518694005913417,-1.5270783676730377
1.6287446722816599,10.478649123173511,-0.025495412576547125,0.4372174263157201,-1.5495467272718306
1.623403679270444,10.38836499921467,-0.0253711875302713,0.42263137329230593,-1.5705424452373133
1.6180888241744367,10.30113696143182,-0.02524648005075092,0.40811184368720865,-1.5899193694415694
1.612800362883965,10.216950953061694,-0.02511981795374154,0.3936596645996822,-1.6075243398187955
1.6075388656392358,10.135792717753787,-0.024989679615107622,0.37927590976133047,-1.6231965157508585
1.602305228140536,10.057647745192249,-0.024854487039175036,0.3649619241580708,-1.6367666532100777
1.5971006842227844,9.982501211203125,-0.024712597891794943,0.35071935192883325,-1.6480563296668582
1.5919268203262145,9.910337911618626,-0.024562296361251793,0.3365501679235383,-1.6568771159500748
1.5867855920262204,9.84114218908763,-0.024401782686312275,0.3224567133240359,-1.663029696104905
1.5816793429222602,9.774897851936043,-0.024229161160926525,0.30844173573869843,-1.6663029391225013
1.576610826229737,9.71158808409627,-0.024042426386913857,0.29450843416390193,-1.6664729306399093
1.571583229472067,9.651195345048531,-0.023839447495655454,0.2806605091478854,-1.6633019789266226
1.566600202735906,9.593701258659095,-0.023617949991594653,0.26690221837054096,-1.6565376185401237
1.5616658910353944,9.53908648977897,-0.023375494775180677,0.2532384376306454,-1.6459116481631149
1.5567849714385114,9.487330607507836,-0.023109453766562493,0.23967472685634955,-1.6311392580618858
1.5519626957511357,9.438411934172574,-0.02281698135130273,0.22621740014615033,-1.611918329789756
1.5472049397494296,9.392307379378803,-0.02249498056970794,0.21287359788978333,-1.5879290296855233
1.5425182602255814,9.348992259058374,-0.022140062514558825,0.1996513575428664,-1.5588338732780982
1.5379099615084957,9.30844010038987,-0.021748496695781952,0.18655967739526583,-1.5242785166898407
1.5333881737076425,9.27062243500692,-0.021316149026628674,0.17360856434709457,-1.4838936427303568
1.5289619458135046,9.2355085853069,-0.02083840234611444,0.16080905184359987,-1.4372984655794068
1.5246413581453875,9.203065452310096,-0.020310051635953685,0.1481731671735874,-1.3841065932994445
1.52043766074382,9.173257318894787,-0.01972516171230928,0.13571381773411273,-1.323935276905455
1.5163634476003787,9.14604568993962,-0.019076868225224267,0.12344455326747447,-1.2564194474097818
1.5124328817953754,9.121389201513377,-0.018357091822426855,0.11137914603006167,-1.1812323850831865
1.5086619947495574,9.099243644972805,-0.01755611813774489,0.09953091626109628,-1.0981153067442768
1.5050690955338553,9.079562167694796,-0.016661969630844944,0.08791172448186532,-1.006918393983546
1.501675346003555,9.062295726314371,-0.015659454467253957,0.07653057437932911,-0.9076553503633449
1.4985055882555116,9.047393870759176,-0.01452871456173213,0.06539185947966658,-0.8005715446685262
1.495589559166139,9.034805906675391,-0.013242991051338662,0.05449351274684329,-0.6862206458410778
1.492963707408389,9.024482380494277,-0.011765120927233896,0.0438257842161362,-0.5655345902689969
1.4906739862542469,9.016376590608107,-0.010041747207454309,0.033372214699753724,-0.4398564213820397
1.4887803958509658,9.010445338332772,-0.00799244710950718,0.023115902208208784,-0.3108899295393397
1.4873654127520564,9.006647045109077,-0.00548358240391582,0.013058318969850729,-0.180516846387218
1.4865552414325123,9.00493124634005,-0.0022323349250760968,0.003282621687564078,-0.05046387576195574
