x,y,v_x,v_y,omega
2.375,32.48,0.0,2.1025641025641026,-3.1020408163265305
2.37454247982237,32.06339351186317,-0.0045752017762965905,2.0635007788041495,-2.9586831880398465
2.3732211357085142,31.654490441344027,-0.008638239362265876,2.0255299263873074,-2.8247831564317174
2.3711331142419,31.253077495123406,-0.012241975303874683,1.9885995358189048,-2.6995068211982396
2.3683655807246677,30.85895144076923,-0.01543335986844821,1.9526610077228725,-2.5821087191439402
2.3649968284134926,30.47191845464934,-0.018254163243303194,1.9176688534760007,-2.471921042544893
2.361097251357595,30.09179352631805,-0.02074160731567161,1.8835804298368863,-2.3683443372711617
2.35673019940025,29.718399913057027,-0.0229289122577794,1.8503557027733644,-2.270839454799801
2.351952731115149,29.351568639130274,-0.02484577059323164,1.8179570364941624,-2.1789205702957792
2.34681627812151,28.99113803504685,-0.026518759343157897,1.786349004340098,-2.0921491099522576
2.341367232272441,28.636953312740914,-0.027971699147535684,1.755498218719244,-2.0101284561826165
2.3356474655722312,28.288866173098608,-0.029225967854556383,1.725373177703807,-1.932499320152535
2.3296947912957044,27.946734442701906,-0.03030077491071183,1.6959441262632127,-1.8589356884019355
2.3235433736125706,27.610421737035274,-0.03121340192062714,1.6671829304031094,-1.7891412646218772
2.3172240920262905,27.279797147722412,-0.03197941394217362,1.6390629627255207,-1.7228463395674374
2.3107648660910702,26.954734951636805,-0.032612845410030636,1.6115589981305414,-1.659805032041253
2.304190945148435,26.635114339968528,-0.03312636401632254,1.5846471185522322,-1.5997928522245506
2.297525167206659,26.32081916553664,-0.03353141540143661,1.5583046257666462,-1.5426045456461939
2.2907881905558765,26.011737706816675,-0.03383835110638772,1.5325099614329831,-1.4880521819948418
2.2839987012554652,25.707762447310024,-0.034056541897724064,1.5072426336335591,-1.4359634579813092
2.2771735992370115,25.4087898690199,-0.03419447828681429,1.4824831492676998,-1.3861801877000706
2.2703343533946656,25.11472232829222,-0.034197980136644386,1.4581922580090703,-1.3364190373893505
2.2634997429968404,24.82546571544014,-0.03414812384160937,1.4343738705117584,-1.2889349880671295
2.2566798912350685,24.540927217865242,-0.03405039377610759,1.411011105237191,-1.2435968385918954
2.2498838757671673,24.26101732169151,-0.03390976090290454,1.3880878565001136,-1.2002823790276047
2.243119826435409,23.985649661115417,-0.03373073241467993,1.365588749260849,-1.15887767629252
2.236395013568275,23.714740876480278,-0.03351739625665953,1.343499097090509,-1.1192764241983013
2.2297159278328516,23.448210480466614,-0.03327346109757317,1.321804863046147,-1.0813793513932914
2.223088352498238,23.185980731840186,-0.033002292248566864,1.3004926232181284,-1.0450936814455922
2.2165174288763065,22.92797651624492,-0.032706943970743155,1.2795495327345183,-1.0103326399353036
2.2100077156231803,22.674125233568734,-0.032390188560519076,1.25896329402735,-0.9770150039827891
2.203563242511432,22.42435669144764,-0.03205454255696172,1.2387221271835749,-0.9450646901310451
2.197187559218154,22.17860300450733,-0.0317022903758196,1.2188147422195368,-0.9144103769337373
2.1908837796165352,21.936798498972156,-0.03133550564037162,1.1992303131322117,-0.884985158983591
2.1846546220076153,21.6988796222996,-0.03095607044882744,1.1799584535933667,-0.8567262294549487
2.1785024456836037,21.464784857523817,-0.03056569279128577,1.1609891941644246,-0.8295745885349141
2.1724292841739032,21.234454642015347,-0.030165922305719396,1.142312960920293,-0.8034747753843392
2.166436875489161,21.007831290385333,-0.029758164541700313,1.1239205553798706,-0.7783746215071029
2.160526689646766,20.784858921282396,-0.029343693882254815,1.1058031356494824,-0.7542250236172399
2.1546999537327363,20.565483387848126,-0.02892366525804155,1.0879521986932355,-0.7309797342816299
2.148957674729561,20.349652211613673,-0.028499124773712938,1.0703595636512833,-0.7085951687838511
2.1433006603168274,20.137314519635208,-0.028071019353622287,1.053017356133356,-0.687030226804807
2.1377295378311874,19.928420984679803,-0.02764020550277738,1.0359179934206824,-0.6662461276499205
2.1322447715540154,19.722923768286265,-0.02720745726894235,1.0190541705146934,-0.6462062578728625
2.126846678478831,19.520776466537228,-0.026773473482903015,1.0024188469756816,-0.6268760302535274
2.12153544269594,19.321934058389765,-0.026338884346004433,0.9860052344989562,-0.6082227531846895
2.1163137346951855,19.126539065868453,-0.0258781956615427,0.9679446907141693,-0.6270357229620693
2.111181450403031,18.934744745482455,-0.02544464725999998,0.9499985131458223,-0.6476369121149379
2.106133181212602,18.74652853508825,-0.025038044644290415,0.9321635907962428,-0.6699121282341098
2.1011635665844253,18.561868482343353,-0.024658101637478346,0.9144369366527085,-0.693749784754778
2.0962673115972406,18.380743220362124,-0.02430444823436866,0.8968156831595819,-0.7190406562144027
2.0914392029920963,18.203131944235757,-0.023976637817072204,0.879297078104089,-0.7456776389746931
2.08667412383262,18.02901438833493,-0.02367415377768934,0.8618784809042038,-0.7735555164377999
2.0819670668961088,17.85837080431553,-0.023396415587422375,0.8445573592897586,-0.8025707277944504
2.077313146902586,17.691181939749498,-0.023142784347808455,0.8273312863705805,-0.8326211393424688
2.072707611682172,17.527429017303618,-0.022912567856329103,0.8101979380881991,-0.8636058174077951
2.068145852375002,17.367093714389746,-0.022705025215373147,0.7931550910505017,-0.8954248018865185
2.0636234127524267,17.21015814320953,-0.02251937101037879,0.776200620751678,-0.9279788794052934
2.059135997743396,17.05660483111607,-0.022354779079931202,0.7593325001829246,-0.961169355068425
2.054679481245641,16.9064167012135,-0.02221038589761708,0.7425487988427322,-0.994897821722467
2.050249913297628,16.75957705311331,-0.02208529358251049,0.7258476821591785,-1.0290659256228196
2.0458435266841515,16.616069543763338,-0.02197857255225634,0.7092274113405873,-1.0635751273309593
2.041456743045946,16.475878168261755,-0.02188926382980099,0.6926863436752191,-1.098326456604868
2.037086178561779,16.33898724056369,-0.021816381011862944,0.6762229333054275,-1.133220259968206
2.0327286492701724,16.205381373982444,-0.021758911904208447,0.6598357325070152,-1.168155939554932
2.0283811760971853,16.075045461380697,-0.0217158198256629,0.6435233935104567,-1.2030316817245468
2.0240409896566676,15.947964654938918,-0.021686044579511843,0.6272846709073209,-1.2377441738279629
2.019705534889968,15.824124345378909,-0.021668503087484654,0.6111184246927543,-1.272188307374272
2.015372475613437,15.703510140509291,-0.021662089677825513,0.595023624003411,-1.306256865703511
2.0110396990441552,15.586107842946962,-0.021665676014990257,0.5789993516198928,-1.3398401941091655
2.006705320377235,15.471903426853594,-0.02167811065420993,0.5630448093137862,-1.372825850176093
2.0023676874918674,15.36088301350902,-0.021698218199470615,0.5471593241319344,-1.4050982319047358
1.9980253858680896,15.253032845523336,-0.02172479803830526,0.5313423557249078,-1.4365381809814735
1.9936772438021495,15.14833925946655,-0.02175662262109814,0.5155935048429722,-1.4670225583293428
1.989322338015412,15.046788656668106,-0.021792435246276453,0.4999125231414727,-1.4964237888361975
1.984959999760214,14.948367471908085,-0.021830947305701825,0.48429932445874496,-1.524609371913979
1.9805898215359783,14.853062139686841,-0.021870834936656362,0.46875399775369947,-1.5514413543015968
1.9762116645405228,14.760859057719731,-0.021910735017898253,0.45327682191739105,-1.5767757612980697
1.9718256669950163,14.671744547257656,-0.0219492404371671,0.43786828270337125,-1.6004619824217474
1.9674322534966961,14.585704809781763,-0.021984894546034008,0.4225290920555445,-1.622342107364791
1.9630321455716082,14.502725879561257,-0.022016184704844167,0.40726021014950164,-1.6422502080923356
1.9586263736205902,14.422793571495962,-0.022041534805336733,0.39206287050345834,-1.6600115630848702
1.954216290475969,14.345893423589917,-0.022059296640874738,0.37693860855700323,-1.675441820129953
1.9498035868145394,14.272010633318416,-0.022067739973422946,0.3618892941580147,-1.6883460948644464
1.9453903087050426,14.201129987058899,-0.022065041121545368,0.34691716843715004,-1.698518003636529
1.9409788776065477,14.133235781657188,-0.022049269863402277,0.3320248855799684,-1.7057386314643626
1.9365721131791087,14.068311737097137,-0.022018374410987366,0.31721556002055623,-1.7097754392984812
1.9321732593216518,14.006340899138664,-0.0219701641635814,0.3024928195641757,-1.7103811199984666
1.927786013916809,13.947305530694315,-0.021902289884846524,0.2878608648792954,-1.707292420203806
1.923414562842157,13.891186990641415,-0.021812220861674583,0.27332453564968556,-1.700228956755555
1.919063618907791,13.83796559873677,-0.021697218481985015,0.2588893833967784,-1.6888920731545014
1.9147384665101743,13.787620485347269,-0.021554305494180526,0.2445617504982235,-1.6729638060925371
1.9104450129655228,13.740129424884344,-0.021380229952335964,0.23034885413102665,-1.6521060677743686
1.9061898477244075,13.695468652211826,-0.021171422458818222,0.2162588725941419,-1.6259602014362788
1.901980311007618,13.653612662004708,-0.020923944709073536,0.20230102947704162,-1.5941471421010085
1.8978245738977517,13.614533992247672,-0.020633426389591286,0.1884856680933264,-1.5562685218979646
1.893731732662483,13.57820299503739,-0.020294985963095424,0.1748243040094785,-1.5119092125100706
1.8897119212221138,13.544587600964032,-0.019903128440596253,0.16132963672411346,-1.460642013873196
1.8857764474470002,13.513653088111091,-0.019451609310539263,0.14801549180530554,-1.402035499085875
1.88193796177228,13.48536187380174,-0.018933247436663123,0.13489665128820938,-1.3356664313399251
1.8782106710829534,13.459673357417618,-0.01833965945660419,0.12198851255299763,-1.2611386885934384
1.8746106179696702,13.436543856605088,-0.017660871676225362,0.1093064955722892,-1.1781112338735686
1.871156056893522,13.415926696948102,-0.016884739085259302,0.09686510099756124,-1.0863382154008956
1.8678679770319815,13.397772534593535,-0.01599605953014561,0.0846765225481046,-0.9857243943192697
1.8647708504976432,13.382030005146607,-0.014975205813236,0.07274877192117367,-0.8763979318438284
1.8618937305772274,13.368646782655873,-0.013795993390922169,0.06108345298617695,-0.7587985069966461
1.8592719000078035,13.35757106303419,-0.012422312303315305,0.049673743230658915,-0.633769338295558
1.85694940681047,13.34875329132828,-0.010802619670020523,0.038503973828444706,-0.5026248387606503
1.8549831383986886,13.342147522925629,-0.008860064447794117,0.0275537101980677,-0.3671435461378528
1.8534500492006953,13.337710895621466,-0.006470827532137629,0.016812562843558126,-0.22942104821847853
1.8524633856054376,13.335396955642544,-0.0033958084204399855,0.006326836945663291,-0.0915325372308311
