x,y,v_x,v_y,omega
2.375,32.48,0.0,2.1025641025641026,-2.612244897959184
2.374694585854259,32.10485690229549,-0.0033934905082329187,2.065692538597107,-2.501437834945531
2.373810338719065,31.736267639800754,-0.006431477660587928,2.0297437113443686,-2.397227507530215
2.3724082080846003,31.374069699941835,-0.009147751611246018,1.9946778426436536,-2.2990849310384918
2.370543373358196,31.018107521566815,-0.01157263423768735,1.9604574726343333,-2.206532341128858
2.368265832739133,30.66823209367535,-0.013733372640794786,1.927047281715272,-2.1191374926236093
2.36562092569898,30.324300584622677,-0.01565448336090022,1.894413929981105,-2.0365086716840795
2.36264979732745,29.98617599884406,-0.017358054100545202,1.8625259120035251,-1.9582903223340198
2.3593898116737675,29.65372685850149,-0.018864008718151977,1.8313534251361305,-1.8841592034428274
2.3558749202531173,29.326826907758967,-0.020190340400183134,1.800868249780776,-1.8138210048680077
2.352135991068926,29.00535483765439,-0.02135331720194093,1.771043640270073,-1.7470073619808806
2.3482011028017706,28.689194029761858,-0.02236766354422982,1.7418542252025535,-1.6834732166287405
2.3440958082157617,28.378232317033795,-0.023246720744758732,1.7132759162203324,-1.6229944800171137
2.3398433703177415,28.072361760382563,-0.024002589233244286,1.6852858243489175,-1.565365959267939
2.3354649743606406,27.771478439709536,-0.024646254734540116,1.6578621831291702,-1.510399514719243
2.330979918399072,27.475482258220005,-0.025187700394001696,1.6309842778656314,-1.4579224195392158
2.3264057847736743,27.184276758976445,-0.025636006554863654,1.604632380396157,-1.4077758970638603
2.3217585946133132,26.897768952743636,-0.025999439671370757,1.5787876888572536,-1.3598138145407044
2.3170529471945938,26.61586915626833,-0.026285531647734627,1.5534322719794518,-1.3139015147607895
2.3123021457808965,26.33849084021527,-0.026501150726678257,1.5285490174990009,-1.2699147694613635
2.3075183113737565,26.065550486051805,-0.02665256490820764,1.5041215843173117,-1.2277388404439917
2.3027124856439936,25.79696745123614,-0.026745498755828014,1.4801343580789512,-1.187267636128567
2.2978933677883804,25.532665057768217,-0.026800255195428703,1.4565589026757464,-1.1474997641450195
2.2930681649293705,25.272569212162573,-0.026813109904681803,1.433394937386957,-1.1094081571190837
2.2882440697481807,25.016607077406576,-0.026787947664092496,1.4106287821241177,-1.0729033659330947
2.283427605810505,24.764708226993726,-0.026728318310082457,1.388247333574238,-1.0379016128731056
2.2786246851587046,24.51680454388633,-0.02663746670992172,1.3662380342856946,-1.0043243743564496
2.2738406607666115,24.272830124864033,-0.026518359868890555,1.3445888437398394,-0.9720979984933082
2.269080374346576,24.032721189914213,-0.026373711464834915,1.3232882112581856,-0.9411533542324063
2.264348199948208,23.79641599634624,-0.02620600407259252,1.302325050608147,-0.9114255091757857
2.2596480837435973,23.563854757335115,-0.026017509311967463,1.2816887161821189,-0.8828534334446885
2.2549835803540432,23.33497956462155,-0.025810306127524062,1.2613689806353336,-0.8553797272425423
2.2503578860378233,23.10973431511539,-0.025586297386027648,1.241356013877537,-0.8289503699958852
2.245773869026905,22.88806464116741,-0.025347224957510735,1.2216403633222324,-0.8035144891632889
2.241234097272176,22.66991784429095,-0.025094683428366973,1.2022129353051103,-0.7790241469889689
2.2367408638314865,22.45524283213035,-0.02483013257929382,1.1830649775904283,-0.7554341436444574
2.2322962101121133,22.243990058487057,-0.024554908747076075,1.164188062890586,-0.7327018353507748
2.227901947158954,22.0361114662272,-0.024270235176915494,1.145574073330047,-0.7107869662069866
2.223559675161534,21.831560432906386,-0.023977231461082982,1.1272151857901176,-0.6896515125706505
2.2192708013365423,21.630291718958436,-0.023676922149939102,1.109103858075999,-0.6692595389430045
2.215036556327905,21.43226141830492,-0.02337024461269538,1.0912328158519833,-0.649577064408174
2.210858009253183,21.23742691125171,-0.023058056217550728,1.0735950402947536,-0.6305719387624042
2.20673608151315,21.045746819547517,-0.022741140893926516,1.0561837564184762,-0.6122137275474001
2.2026715594706956,20.857180963487266,-0.022420215133345987,1.0389924220287867,-0.5944736052722218
2.1986651060954965,20.67169032095074,-0.022095933479976113,1.0220147172659109,-0.5773242561716656
2.194717271662178,20.48923698827381,-0.021768893556899482,1.005244534700023,-0.5607397819063831
2.1908285035817796,20.30978414285579,-0.021439640669746223,0.9886759699445925,-0.5446956156618118
2.187000187600633,20.133523506915154,-0.021097203565213805,0.9697755405069372,-0.5788404943698197
2.183230631764135,19.960655560108776,-0.02078675017365476,0.950979424008394,-0.6142180870578681
2.1795141567540344,19.791161759699357,-0.02050741660523861,0.9322850249851462,-0.6507245079007219
2.1758452427576715,19.625024020847558,-0.020258294465458748,0.9136898511459374,-0.6882572495242895
2.172218537089864,19.462224698264308,-0.02003843517684933,0.8951915108901959,-0.7267149606342228
2.1686288610736923,19.30274656827728,-0.019846853891722444,0.876787711187864,-0.7659972240892501
2.165071216251758,19.146572811246294,-0.01968253301866147,0.8584762558230703,-0.8060043344541029
2.1615407899956356,18.993686994261616,-0.019544425382700934,0.8402550440066876,-0.846637074037247
2.1580329605779185,18.844073054058082,-0.019431457036374805,0.8221220693659147,-0.8877964863808437
2.154543301768396,18.69771528007614,-0.019342529736099352,0.8040754193223639,-0.9293836461239023
2.151067587013539,18.554598297598485,-0.019276523095646557,0.7861132748737768,-0.9712994241037674
2.1476017932566145,18.414707050887984,-0.019232296425732858,0.7682339107984845,-1.0134442464951916
2.1441421044543616,18.278026786248567,-0.019208690265966596,0.7504356963061496,-1.0557178467094193
2.1406849148452967,18.144543034926322,-0.019204527612535053,0.7327170961632397,-1.0980190086870107
2.137226832024385,18.01424159576218,-0.019218614842035527,0.7150766723271897,-1.1402453001165587
2.1337646798790164,17.88710851750109,-0.01924974232872804,0.6975130861294006,-1.1822927939958392
2.1302955014420055,17.763130080654562,-0.019296684749170807,0.6800251010542165,-1.224055776821146
2.1268165617187615,17.642292778804475,-0.01935820106464973,0.6626115861689591,-1.2654264415433287
2.123325350547825,17.52458329922505,-0.019433034167981835,0.645271520269117,-1.3062945632641916
2.119819585556767,17.409988502687654,-0.01951991017710562,0.6280039968130854,-1.346547155463242
2.1162972152790296,17.298495402298542,-0.01961753735330858,0.610808229732605,-1.3860681043413647
2.1127564225017097,17.19009114120294,-0.019724604616915706,0.59368356021851,-1.4247377786441844
2.1091956279196946,17.084762968969564,-0.019839779627695498,0.5766294645968058,-1.4624326120836122
2.105613494178008,16.982498216447354,-0.01996170639104502,0.5596455634277523,-1.4990246552121715
2.1020089303918454,16.883284268860578,-0.02008900234409226,0.5427316319808558,-1.5343810933233373
2.0983810972427492,16.78710853687874,-0.020220254868088133,0.5258876122617944,-1.5683637266565467
2.0947294127597966,16.693958425363743,-0.02035401716471759,0.5091136267937075,-1.6008284088849698
2.091053558906805,16.603821299457632,-0.020488803424082835,0.4924099943853066,-1.6316244395691966
2.087353489110555,16.516684447629252,-0.020623083200913796,0.47577724815224975,-1.660593905988706
2.0836294368812194,16.432535041246872,-0.020755274902814477,0.45921615609641675,-1.6875709695425056
2.0798819256947865,16.35136009018508,-0.02088373827977558,0.44272774459019715,-1.7123810917810947
2.0761117803287394,16.27314639390761,-0.021006765787413617,0.426313325159464,-1.7348401951533168
2.0723201398669455,16.19788048739246,-0.021122572676960567,0.40997452500884174,-1.7547537538104983
2.0685084726182135,16.125548581181043,-0.021229285642284712,0.39371332178469565,-1.7719158104325372
2.0646785932259535,16.056136494739423,-0.021324929827274207,0.37753208312219616,-1.786107916208941
2.0608326822846967,15.989629582217297,-0.021407413964466892,0.361433611568076,-1.7970979930864015
2.0569733088240594,15.92601264958095,-0.021474513375946747,0.3454211955024407,-1.8046391205654224
2.053103456073663,15.865269861983759,-0.02152385051734556,0.32949866668858074,-1.8084682542445396
2.0492265509858303,15.807384640128255,-0.021552872680798637,0.3136704650392481,-1.8083048907721004
2.0453464980698315,15.7523395442784,-0.021558826385853245,0.29794171107027917,-1.8038497050322424
2.0414677181870395,15.700116144517782,-0.02153872786739049,0.28231828626991995,-1.7947832019458836
2.0375951930781064,15.65069487584805,-0.021489328898529714,0.26680692117154686,-1.7807644496498138
2.0337345165530967,15.604054876827533,-0.02140707693491371,0.2514152901675332,-1.7614299965651843
2.029891953492144,15.560173810733662,-0.02128806818678024,0.23615211087549054,-1.73639312709533
2.0260745081079152,15.519027668802444,-0.021127991637984116,0.2210272439158361,-1.7052436867532759
2.0222900033609132,15.480590556117566,-0.020922061106487564,0.20605178591612952,-1.6675488178654903
2.018547174074632,15.44483446243419,-0.020664930963304372,0.1912381438991449,-1.6228551062166963
2.014855777301379,15.411729022983852,-0.020350588739504315,0.17660007221574225,-1.5706928667672717
2.0112267250581057,15.381241278621726,-0.019972213963531684,0.16215264291900475,-1.5105836178144985
2.0076722470421573,15.353335451228048,-0.01952198621367368,0.14791210589964754,-1.442052235322017
2.0042060949360825,15.327972759906952,-0.01899081496493535,0.13389557544587172,-1.3646458632699472
2.0008438063744998,15.305111317100135,-0.018367946830425037,0.12012045574097598,-1.2779623687599215
1.997603057113594,15.284706161648892,-0.017640378290749915,0.10660349371728417,-1.1816918618301229
1.9945041468561895,15.266709506812518,-0.016791957902635622,0.09335933779798522,-1.0756752052962053
1.9915706913797249,15.25107129960696,-0.01580199183585985,0.08039852004155998,-0.9599826849121056
1.988830637290866,15.237740188203926,-0.01464305359590601,0.06772493999214556,-0.835012387290191
1.9863177873274578,15.226664942731734,-0.013277501553073143,0.05533334303221815,-0.7015984980587348
1.984074151632759,15.217796208012533,-0.01165178394358119,0.043208153847781136,-0.5611015494403677
1.9821537167810201,15.211088076969908,-0.009686381075739702,0.03132663551473756,-0.4154262071878835
1.9806290316445612,15.206498140938415,-0.007254564884914445,0.019672653724094158,-0.26688950360486
1.979605361833766,15.203982392412883,-0.004119544123923575,0.008280107670715403,-0.11786956236309873
