x,y,v_x,v_y,omega
2.375,32.48,0.0,2.871794871794872,-6.775510204081632
2.3737223491131147,31.940309377906686,-0.013448956704055244,2.8091590449768207,-6.385350970676575
2.3700603001981517,31.41229656271984,-0.025098926611342817,2.7488705885689306,-6.028509582944248
2.3643338274445482,30.895529777993254,-0.03517973395290784,2.6907797769740784,-5.7012465470640485
2.3568222987213274,30.38960436383611,-0.04388898944941308,2.634750898364269,-5.400325405075995
2.347770114755836,29.894140287529986,-0.0513971575557592,2.5806604311738752,-5.122934478670274
2.337391470999149,29.408779971533246,-0.05785172409358076,2.5283955266865727,-4.866622461925355
2.3258743959570234,28.933186386565623,-0.06338064477089815,2.4778527361304965,-4.629245102728359
2.3133841893465266,28.467041367830245,-0.06809521428696293,2.428936934768219,-4.408920827054709
2.3000663597932367,28.01004412045661,-0.07209246522135122,2.3815604060068942,-4.203993623340023
2.2860491432272876,27.561909886516926,-0.07545718284127106,2.3356420565161,-4.013001856711013
2.2714456684460824,27.122368750904236,-0.07826360432931312,2.291106739406922,-3.8346519537622896
2.2563558245892708,26.69116456727808,-0.08057685732133182,2.2478846671842083,-3.6677961085771305
2.240867875850104,26.268053988415645,-0.08245418203831685,2.205910899788794,-3.5114133247944452
2.2250598611249504,25.852805587829323,-0.08394597296330407,2.1651248958567124,-3.3645932377095344
2.2090008100988414,25.4451990615577,-0.0850966694167895,2.1254701175287556,-3.226522262793547
2.1927518021875345,25.04502450070812,-0.08594551912328403,2.086893680887913,-3.0964716986994456
2.176366890580086,24.652081726702196,-0.08652723463933042,2.049346045490236,-2.973787478368534
2.1598939101744588,24.266179682311815,-0.0868725591041177,2.0127807375663873,-2.8578813147403204
2.1433751853340044,23.88713587251813,-0.08700875500592549,1.9771541023671564,-2.748223030464635
2.1268481510055475,23.514775850017237,-0.08696002739888432,1.9424250818527724,-2.6443338959747797
2.1103458987431605,23.148932740861966,-0.08674789115255811,1.9085550145184704,-2.545780828901682
2.0938976575059547,22.789446806292396,-0.08639149029171463,1.8755074546349064,-2.452171331340805
2.077529217687101,22.436165037286692,-0.085907876222535,1.8432480085830207,-2.363149060908668
2.06126330563946,22.088940778773235,-0.08531225059473757,1.8117441862955006,-2.2783899476218696
2.045119914953633,21.747633380796213,-0.08461817767712644,1.7809652660941957,-2.1975987820168883
2.029116599886753,21.41210787422998,-0.0838377703952947,1.7508821714450769,-2.120506211098138
2.013268735610127,21.08223466889966,-0.08298185356918548,1.7214673583478193,-2.0468660880518956
1.9975897493204875,20.757889272193584,-0.08206010737439065,1.69269471224242,-1.976453129515223
1.9820913257262323,20.438952026452263,-0.08108119361776935,1.6645394534557023,-1.9090608408015084
1.9667835899626422,20.12530786359258,-0.08005286705160006,1.6369780503303706,-1.8444996750689904
1.951675270596948,19.816846075579413,-0.07898207363991748,1.6099881392819237,-1.7825953971480455
1.936773845045611,19.513460099491517,-0.07787503742679022,1.5835484511169926,-1.7231876267585315
1.9220856694340696,19.21504731604823,-0.07673733743153786,1.557638743022869,-1.6661285392663128
1.90761609467669,18.921508860569176,-0.07557397580403637,1.532239735704008,-1.6112817050442092
1.893369570335937,18.632749445433426,-0.07438943830915482,1.5073330551986688,-1.5585210509963914
1.8793497376300403,18.348677193188454,-0.07318774806870444,1.4829011789589184,-1.507729929942631
1.8655698244446666,18.069207985926724,-0.07186396967207283,1.458879950111901,-1.4553808252708633
1.852040835517962,17.794260556330393,-0.07054644008271173,1.4353035193232018,-1.4053280163818105
1.8387613986726574,17.523751858004893,-0.0692371056573368,1.412156463050474,-1.3574442651119376
1.825729796347582,17.25760171000316,-0.06793765565924598,1.3894240422309054,-1.3116107197707443
1.812944011806581,16.99573267043924,-0.06664955003550194,1.3670921637051028,-1.2677162739072232
1.8004017703537305,16.738069917183328,-0.06537404420502779,1.3451473442518753,-1.2256569806961277
1.7881005760909543,16.484541135161933,-0.06411221119261602,1.3235766770259692,-1.1853355175558569
1.776037744694258,16.235076409824522,-0.06286496140418692,1.3023678002099246,-1.1466606961856858
1.7642104326319847,15.989608126372286,-0.06163306030395206,1.2815088677083477,-1.1095470137187122
1.7526156632018508,15.74807087437581,-0.060417144223776025,1.2609885217282406,-1.073914241136779
1.7412503497222926,15.510401357436859,-0.05921773450841386,1.2407958671028203,-1.0396870454921288
1.7301113161771837,15.276538307575368,-0.05803525017694378,1.220920447228665,-1.0067946428340284
1.7191953155806559,15.04642240404641,-0.05687001926018998,1.2013522214972054,-0.9751704790525596
1.7084990463001297,14.819996196313568,-0.0557222889558761,1.1820815441116646,-0.944751936131022
1.6980191665502233,14.597204030924942,-0.0545922347273506,1.1630991441896699,-0.9154800615470826
1.6877523072476426,14.377991982056223,-0.053479968457708596,1.1443961070600097,-0.8872993187845585
1.6776950833970776,14.16230778550192,-0.05238554575876522,1.1259638566694852,-0.8601573571157056
1.6678441041602712,13.95010077591117,-0.05130897252340816,1.1077941390225923,-0.8340047989908612
1.6581959817445289,13.741321827078647,-0.05025021080019437,1.0898790065829334,-0.8087950435306676
1.6487473392327625,13.535923295114035,-0.049209184060503446,1.072210803570864,-0.7844840847580146
1.6394948174645214,13.33385896432559,-0.04818578192098252,1.0547821520969907,-0.7610303433341251
1.6304350810661847,13.135083995664175,-0.04717986437729873,1.0375859390757858,-0.7383945106775106
1.6215648237184124,12.93955487758453,-0.046191265599251276,1.0206153038678423,-0.7165394044472757
1.6128807727399437,12.747229379189786,-0.04521979733199778,1.0038636266031689,-0.6954298344647203
1.6043796930587773,12.558066505534043,-0.04426525194343938,0.9873245171414833,-0.6750324782304822
1.5960666165370379,12.372239429294858,-0.04324081670645036,0.9687499695867731,-0.7000040173181984
1.5879434362557856,12.18993099510179,-0.04226634414883508,0.9502861798139333,-0.726553820784934
1.5800007975796644,12.011120434832783,-0.04134037875770443,0.9319302440703503,-0.7545671878989776
1.5722296250735082,11.835787520793165,-0.0404614370965706,0.9136793773993045,-0.7839316703819227
1.5646211274167439,11.663912543502398,-0.039628011922001855,0.8955309098719239,-0.8145368169585043
1.5571668015752755,11.495476290156748,-0.03883857588292938,0.8774822832401797,-0.8462739222379677
1.5498584363075105,11.330460023688527,-0.0380915848303846,0.859531048004239,-0.879035778841907
1.5426881150761855,11.168845462343526,-0.03738548076251173,0.8416748608905201,-0.9127164316929853
1.5356482184331928,11.010614759698633,-0.03671869442688533,0.8239114827399288,-0.9472109333701572
1.5287314259406917,10.855750485041483,-0.036089647599441894,0.8062387768090057,-0.9824150994187341
1.5219307176883596,10.704235604033062,-0.03549675505668537,0.7886547074901609,-1.018225262477552
1.5152393754637283,10.55605345957272,-0.03493842625522312,0.7711573394608279,-1.0545380240502173
1.5086509836301216,10.411187752782787,-0.03441306673010863,0.7537448372753176,-1.091250002702452
1.5021594297647776,10.269622524026975,-0.03391907922088286,0.7364154654174349,-1.12825757741237
1.4957589051082925,10.131342133872842,-0.033454864531592146,0.7191675888366125,-1.1654566247344418
1.4894439048755943,9.996331243903793,-0.03301882212838835,0.7019996739954965,-1.2027422483602639
1.4832092284782195,9.864574797280266,-0.032609350475556256,0.6849102904626653,-1.2400084995692402
1.4770499797077883,9.736057998942705,-0.03222484710793208,0.6678981130905906,-1.2771480869591276
1.4709615669312437,9.610766295340614,-0.03186370843464001,0.650961924826152,-1.3140520737292702
1.464939703349698,9.48868535356226,-0.03152432926584222,0.6341006202091413,-1.3506095606574648
1.4589804073746238,9.369801039728173,-0.031205102050729794,0.6173132096233668,-1.3867073527641158
1.4530800031777376,9.254099396498294,-0.03090441581123011,0.6005988243753768,-1.4222296074941743
1.447235121474248,9.141566619527307,-0.030620654751817807,0.5839567226876254,-1.457057462068214
1.4414427006032986,9.03218903268488,-0.030352196521332704,0.5673862967063332,-1.491068637459338
1.4356999879744845,8.92595306183702,-0.030097410097761422,0.5508870806395614,-1.5241370162437278
1.430004541955359,8.822845206961215,-0.029854653261454065,0.5344587601583731,-1.55613219135214
1.4243542342819882,8.722852012340873,-0.029622269616134202,0.5181011832136591,-1.5869189825219705
1.4187472530829848,8.62596003455344,-0.02939858511021687,0.5018143724435208,-1.6163569170217724
1.4131821066172052,8.532155807931034,-0.02918190400325299,0.4855985393712864,-1.6442996710033828
1.407657627836602,8.441425807131626,-0.02897050421362197,0.4694541006224855,-1.6705944676476325
1.402172979898805,8.353756406412536,-0.028762631973715615,0.45338169642056203,-1.6950814281324529
1.396727662769083,8.26913383514529,-0.028556495707566583,0.4373822116557173,-1.7175928714027504
1.391321521068741,8.187544129051414,-0.02835025903287529,0.4214567998587516,-1.7379525588113358
1.385954753347061,8.108973076571953,-0.028142032774283864,0.4056069104513741,-1.7559748800037893
1.3806279229770904,8.03340615970902,-0.027929865856987975,0.38983431968475174,-1.7714639770439955
1.3753419709024595,7.960828488595894,-0.027711734928597624,0.37414116571657596,-1.7842128048736854
1.370098230493756,7.891224728963419,-0.02748553253144132,0.35852998830948596,-1.7940021279866913
1.3648984448097865,7.824579021576923,-0.02724905361560587,0.3430037736536409,-1.8005994559883933
1.359744786602773,7.7608748926225815,-0.026999980142430727,0.3275660048131042,-1.8037579249486613
1.354639881459105,7.700095153931276,-0.026735863475126513,0.3122207182532702,-1.8032151377803087
1.3495868345317008,7.642221791851217,-0.026454104181758874,0.2969725667999899,-1.7986919861982258
1.3445892614006398,7.5872358435338185,-0.026151928776777633,0.28182688917263893,-1.789891490446384
1.3396513237021817,7.535117259405119,-0.025826362785939767,0.2667897858662945,-1.7764977127974957
1.334777770302825,7.4858447506958115,-0.025474199312552036,0.2518682005474617,-1.7581748295201325
1.3299739849806913,7.439395621154809,-0.02509196197306605,0.23707000514728954,-1.7345664874059854
1.325246041836535,7.395745582562245,-0.024675860596999756,0.22240408530075476,-1.7052956304984812
1.3206007700313167,7.354868554518593,-0.024221737352666573,0.2078804204219025,-1.6699650680055502
1.3160458300009772,7.316736450409763,-0.023724999808802064,0.19351014914472472,-1.6281591760492982
1.3115898041354301,7.281318953711022,-0.023180535618009226,0.1793056055788657,-1.5794472979696985
1.3072423061947571,7.248583292285371,-0.022582600599600745,0.16528030416484374,-1.52338964807388
1.3030141157398163,7.2184940235790265,-0.021924667347145654,0.15144884011246929,-1.4595468518092656
1.2989173470076771,7.191012851271498,-0.021199214043793706,0.137826657861509,-1.3874946873002687
1.2949656666493452,7.166098504694311,-0.020397421307068724,0.12442962189835674,-1.3068461250820604
1.2911745826428855,7.143706726629269,-0.019508726129348758,0.11127330510207695,-1.2172833330708226
1.287561839156455,7.123790432363553,-0.018520152675182713,0.09837189769493813,-1.1186027228054014
1.2841479716756945,7.1063001198639135,-0.01741529449071653,0.08573665493284395,-1.010775871100733
1.2809571071603463,7.09118461841517,-0.016172753039265204,0.07337388663289028,-0.89402723778339
1.2780181417296932,7.078392240254431,-0.014763725178135357,0.061282725585412284,-0.7689242241921908
1.2753665069007118,7.067872306556019,-0.01314822039008828,0.049453418608407254,-0.6364639263941658
1.273046884237777,7.059576788182913,-0.011268860272385134,0.037867827424304105,-0.49812280947959964
1.271117592470398,7.053461320956899,-0.009039474121077508,0.026505511796875856,-0.3558151394166635
1.2696585801149434,7.049483816678826,-0.00631855067318005,0.015362954288115597,-0.21169820983215792
1.268790759954657,7.047595292897061,-0.002816398382465468,0.00451624341467049,-0.06779099604982888
