x,y,v_x,v_y,omega
2.375,32.48,0.0,3.1794871794871797,-2.4897959183673475
2.3741922760417915,31.758567228390064,-0.007023686593119142,3.093841269294856,-2.3029882710342418
2.3719089547843315,31.05636248245627,-0.012831280863052763,3.012286956216386,-2.1373264027556886
2.368406439813663,30.37247954145896,-0.017625371055803567,2.934521226368901,-1.989737932625017
2.3638987278369683,29.70607843375098,-0.021572124393715076,2.8602710145700456,-1.8576742051130521
2.358564963403197,29.056378980805675,-0.024808435899947506,2.7892894458239237,-1.7390095094248292
2.352555524925517,28.422655138674713,-0.02744755086248963,2.721352659662699,-1.631961737392948
2.3459969525402697,27.804230015420227,-0.029583513357050388,2.656257107767631,-1.5350295053389245
2.338995957345436,27.200471465457788,-0.03129470572846029,2.593817239731841,-1.4469420128040638
2.3316426980225735,26.610788179242036,-0.032646679687737636,2.5338635099703493,-1.3666188227291498
2.3240134701660775,26.03462620056351,-0.033694432107878154,2.476240652451653,-1.2931374200702228
2.3161729225189016,25.47146581478976,-0.03448424308495555,2.4208061803635212,-1.2257069059924617
2.3081758903456007,24.92081876031977,-0.0350551671176624,2.3674290758972925,-1.1636465597548973
2.300068917604048,24.38222572280202,-0.03544024802627301,2.315988641648342,-1.1063682835946735
2.2918915251079883,23.855254077648596,-0.035667512809027246,2.2663734901205377,-1.053362161285525
2.2836772705373516,23.339495851327193,-0.03576078780520786,2.2184806518047115,-1.0041845258968176
2.275454637227619,22.834565876036358,-0.03574037140985846,2.1722147855069185,-0.9584480592438468
2.267247781607007,22.340100115824644,-0.03562359050850699,2.127487477203619,-0.9158135438767291
2.259077163535931,21.85575414512609,-0.03542526228345658,2.0842166158272817,-0.8759829650738287
2.250960079320395,21.381201763150354,-0.03515807872120081,2.042325836135635,-0.8386937203069177
2.242911113576364,20.916133729664114,-0.03483292774863615,2.001744020266456,-0.8037137408709436
2.234942523228124,20.460256609493094,-0.0344591622360609,1.9624048507859049,-0.7708373677215138
2.2270645645845177,20.01329171461221,-0.034044825969210255,1.9242464090478586,-0.739881853240081
2.219285772539244,19.57497413401569,-0.03359684398969303,1.8872108135305663,-0.7106843843317273
2.2116131993963233,19.14505184270327,-0.03312118334005338,1.8512438935339584,-0.6830995412440789
2.204052619559468,18.72328488211052,-0.03262298915433656,1.816294894229103,-0.6569971217740321
2.1966087052892798,18.309444605173724,-0.032106700151648626,1.782316209569111,-0.6322602728736683
2.189285177881189,17.90331297997175,-0.031576146875230186,1.7492631400132577,-0.6087838816793493
2.1820849379150604,17.504681946544746,-0.031034635438930255,1.7170936723954897,-0.5864731861390489
2.175010177646548,17.113352822065863,-0.03048501906987383,1.6857682795947975,-0.5652425720722324
2.168062478128329,16.729135750048616,-0.029929759349422564,1.6552497379464797,-0.5450145289558461
2.161242893248335,16.351849189718425,-0.02937097873748095,1.6255029605769067,-0.5257187412203744
2.154552022537509,15.981319442070674,-0.028810505704484634,1.596494845055708,-0.5072912955453422
2.1479900743197473,15.617380209485813,-0.028249913580397332,1.5681941339431054,-0.489673987710876
2.141556920541995,15.259872186080763,-0.027690554052232478,1.5405712869703723,-0.47281371510860054
2.1352521444251584,14.908642676250054,-0.02713358609417255,1.5135983637314439,-0.4566619431358237
2.1290750819102744,14.563545239094005,-0.02658000099177773,1.487248915886383,-0.44117423546794093
2.1230354668335663,14.224439977059365,-0.025938390979596295,1.4614924931104711,-0.42369139595004585
2.1171419002124763,13.891192560282335,-0.02531001442118718,1.4363111310376149,-0.4070991942240333
2.1113913159607667,13.56367332032039,-0.024695066028460545,1.4116822599358259,-0.3913407939767225
2.1057806128604915,13.241757648356163,-0.024093656582629335,1.387584452796581,-0.3763636723050858
2.1003066724094364,12.925325740675579,-0.023505825600458767,1.3639973531215606,-0.362119241015571
2.0949663739533477,12.614262360132098,-0.02293155227856964,1.3409016081260978,-0.34856250555491197
2.0897566074718794,12.308456612405323,-0.022370764951589087,1.3182788068893572,-0.3356517574078663
2.084674284336813,12.00780173596489,-0.021823349266383203,1.2961114230274504,-0.32334829630410916
2.079716346317882,11.712194904743448,-0.021289155246061925,1.2743827615068288,-0.3116161790161681
2.074879773074375,11.421537042606186,-0.020768003393128006,1.2530769092519654,-0.3004219919124172
2.07016158833872,11.13573264878029,-0.02025968996039124,1.2321786892340885,-0.2897346447618761
2.0655588649707135,10.854689633476312,-0.019763991500535316,1.2116736177570275,-0.27952518357778416
2.0610687290372964,10.578319162995772,-0.01928066879004726,1.1915478646824629,-0.269766620540496
2.0566883630522668,10.306535513675843,-0.018809470210210816,1.171788216360404,-0.26043377926218103
2.052415008492572,10.039255934073434,-0.018350134656700434,1.1523820410518557,-0.25150315385035915
2.048245967692484,9.776400514837764,-0.01790239403971734,1.133317256649635,-0.2429527803981238
2.044178605203656,9.517892065763206,-0.017465975428352185,1.1145823005204183,-0.23476211967912156
2.040210348697535,9.263655999553109,-0.017040602885744664,1.0961661013065225,-0.22691194995765065
2.0363386894765947,9.013620221860776,-0.016625999035473554,1.078058052539858,-0.21938426894092888
2.0325611826521697,8.767715027206389,-0.016221886394310502,1.0602479879330715,-0.21216220400364807
2.028875447039107,8.525873000398292,-0.015827988501888438,1.042726158224292,-0.20522992990609834
2.0252791648108945,8.288028923114346,-0.015444030873869117,1.0254832094622046,-0.19857259330789667
2.0217700809531975,8.054119685324025,-0.015069741801757807,1.008510162627536,-0.1921762434509744
2.018346002548749,7.824084201254873,-0.014704853019532583,0.9917983944955238,-0.18602776844908728
2.015007715009835,7.597960392685245,-0.014323734275373546,0.9744955930664684,-0.19696986526914464
2.0117544205061173,7.375801697324384,-0.013965783148256358,0.9573191492018966,-0.2101833317103049
2.0085807263330175,7.157579484284245,-0.013631557487394448,0.9402653120166956,-0.2255439855796323
2.0054811288416876,6.943265967949806,-0.013321464176344028,0.9233304821958089,-0.2429315950850669
2.0024500466765303,6.73283417393764,-0.013035772042415187,0.9065112048665157,-0.2622295942101438
1.999481851161811,6.5262579066335,-0.01277462373775349,0.8898041629955646,-0.28332480926819487
1.9965708940649582,6.323511718191469,-0.01253804666966183,0.8732061712829801,-0.3061071955001688
1.9937115329470467,6.124570878883269,-0.012325963051307978,0.8567141705274552,-0.3304695826262643
1.9908981542952735,5.929411348691872,-0.012138199138026043,0.8403252224412071,-0.35630742830004897
1.9881251946178748,5.738009750048207,-0.0119744937089189,0.824036504895013,-0.3835185784448447
1.985387159668788,5.550343341613935,-0.011834505848356939,0.807845307576917,-0.412003033476044
1.9826786419573486,5.366389993016746,-0.011717822077203122,0.7917490280508042,-0.4416627194297372
1.9799943366873696,5.186128160447474,-0.011623962879135318,0.7757451682037338,-0.47240126302756613
1.9773290562599959,5.009536863030579,-0.011552388663246581,0.7598313310736176,-0.5041237697099716
1.9746777434657055,4.8365956598811835,-0.011502505200146942,0.74400521805157,-0.536736603664798
1.9720354834827099,4.667284627762804,-0.011473668565032269,0.7282646264560731,-0.570147168865286
1.969397514791708,4.501584339260269,-0.011465189617593737,0.7126074474790212,-0.6042636901104753
1.9667592391104887,4.339475841381901,-0.011476338045183006,0.6970316645067979,-0.638994993031489
1.9641162304461792,4.180940634503994,-0.011506345992291061,0.6815353518228179,-0.6742502819885428
1.961464243358013,4.025960651568699,-0.011554411296110302,0.6661166737015001,-0.7099389147351334
1.95879922051932,3.8745182374436666,-0.01161970034469644,0.6507738839074859,-0.7459701726669423
1.9561172996640157,3.72659612834822,-0.01170135057099488,0.6355053256181394,-0.7822530254026381
1.9534148200001897,3.5821774312460484,-0.011798472592708935,0.6203094317920407,-0.8186958883609288
1.9506883281714962,3.4412456030986505,-0.01191015200462632,0.6051847260114044,-0.8552063719017451
1.9479345838459117,3.303784429866635,-0.012035450826544308,0.5901298238322159,-0.8916910204880031
1.9451505650111347,3.1697780051374416,-0.012173408606297799,0.5751434346824992,-0.9280550401965671
1.9423334730564523,3.039210708247939,-0.012323043173549285,0.5602243643566499,-0.964202012761225
1.9394807377223666,2.9120671817582533,-0.01248335103589074,0.5453715181623449,-1.000033594165034
1.9365900220017362,2.788332308119152,-0.012653307404374396,0.53058390478635,-1.0354491956125529
1.933659227079695,2.6679911853586873,-0.012831865830764611,0.5158606409568195,-1.0703456445025137
1.9306864974043036,2.551029101594498,-0.013017957433510296,0.5012009569926468,-1.1046168227867932
1.927670225985837,2.437431508155626,-0.01321048968359062,0.48660420334537635,-1.13815327984078
1.9246090600300119,2.327183991071415,-0.013408344714888203,0.4720698582564505,-1.1708418166826005
1.9215019070194044,2.220272240654584,-0.013610377116481935,0.457597536672503,-1.2025650380642752
1.9183479413680575,2.1166820188700335,-0.01381541115609798,0.44318700058444843,-1.2332008686183114
1.9151466117870086,2.016399124139813,-0.01402223737476424,0.428838170982702,-1.2626220288823433
1.9118976495134452,1.9194093531868788,-0.014229608482308385,0.4145511416514998,-1.2906954666495534
1.908601077573755,1.825698459465002,-0.014436234471519486,0.40032619506046935,-1.3172817387162874
1.9052572212711687,1.7352521076580878,-0.014640776855316569,0.38616382065182336,-1.3422343377408048
1.9018667201124857,1.6480558236583995,-0.014841841915839924,0.37206473586721406,-1.3653989586202115
1.8984305414159508,1.5640949393480632,-0.015037972836637813,0.35802991030961034,-1.3866126985848732
1.894949995874349,1.483354531410832,-0.015227640568596153,0.3440605934924137,-1.405703185174268
1.8914267553844817,1.4058193532898962,-0.015409233256337574,0.3301583466896498,-1.422487626504854
1.8878628734972818,1.3314737592820372,-0.01558104402366052,0.3163250794656433,-1.436771778931867
1.8842608088930142,1.260301619617934,-0.01574125688301374,0.3025630915265601,-1.4483488285840687
1.8806234523447414,1.1922862252241586,-0.015887930493271737,0.2888751205932365,-1.456998185669618
1.8769541577024642,1.127410180697023,-0.016018979439573745,0.2752643970340289,-1.4624841944388454
1.8732567775127784,1.0656552838480877,-0.016132152644650476,0.26173470600018983,-1.464554768023797
1.8695357039884524,1.007002390017309,-0.01622500843644533,0.24829045774570327,-1.4629399672060792
1.8657959161648852,0.9514312592126544,-0.016294885681529578,0.23493676664259322,-1.4573505571987695
1.8620430342349736,0.8989203840581403,-0.01633887023074541,0.2216795390488412,-1.4474765992928416
1.8582833822547355,0.8494467965709411,-0.016353755684368323,0.20852556953551205,-1.4329861684624703
1.8545240606820692,0.8029858520309148,-0.01633599712142573,0.19548264385602607,-1.4135243392995425
1.8507730305878745,0.7595109887926341,-0.016281655871572237,0.1825596451725112,-1.3887126591503878
1.8470392119248986,0.7189934640392863,-0.016186332502130495,0.16976665703052785,-1.3581494410563384
1.8433325990598526,0.6814020675257559,-0.016045083715660553,0.15711505178277457,-1.3214113773647422
1.8396643980455936,0.6467028188123969,-0.01585231640833163,0.1446175457247022,-1.278057221979941
1.8360471921329815,0.614858659097834,-0.015601648049164956,0.13228819092366098,-1.2276346475804705
1.832495145307305,0.5858291575699575,-0.01528571565236999,0.12014225714481644,-1.1696918926708133
1.829024259048916,0.5595702655780883,-0.014895903985793263,0.108195934088828,-1.1037965075645861
1.8256527065236736,0.536034171393684,-0.014421944059793352,0.09646575447119725,-1.0295643887055843
1.8224012834421912,0.5151693348000848,-0.013851300127010944,0.08496760721226604,-0.9467032397449584
1.8192940398864828,0.49692081257375875,-0.013168209053062391,0.07371519475577729,-0.8550751902503153
1.8163591989885153,0.4812310140752274,-0.012352146581436742,0.06271783566622129,-0.754782424953609
1.8136305373481534,0.46804102448710694,-0.011375345943451073,0.05197772596962891,-0.6462749264775678
1.8111495197180942,0.45729254157826205,-0.010198720404888418,0.041487342802960764,-0.5304667041442831
1.808968703630506,0.4489301735768976,-0.00876489774805423,0.031228900687194305,-0.40882186547530397
1.8071574702892041,0.4429031329712032,-0.006984957393698814,0.021180148057969247,-0.28333706903127287
1.8058130055826445,0.43916369682590783,-0.004706040054646888,0.01133668798806227,-0.15632324606119258
1.8050896873684128,0.43765343472653484,-0.0015836835473678366,0.0017960259195429658,-0.029925785828613688
