x,y,v_x,v_y,omega
2.375,32.48,0.0,2.769230769230769,-6.408163265306122
2.3737057849469747,31.932259160173103,-0.01294215053025323,2.708177629038175,-6.034169377085302
2.3699984380945676,31.396497157485353,-0.024131317993818437,2.6494423978393336,-5.692574101574716
2.3642058691365,30.8722653330827,-0.0337943715868523,2.5928758461871517,-5.379692973748373
2.356613832816513,30.359143467468698,-0.04212599161302484,2.5383428099529,-5.092343223525578
2.3474718548144526,29.856737151548533,-0.049293788407576644,2.485720349248744,-4.827764854413652
2.33699822558323,29.36467549477951,-0.055442503904649706,2.4348962184414877,-4.5835558295067305
2.32538422705688,28.882609114518118,-0.06069748135884921,2.385767584172422,-4.357618527849659
2.3127977242692315,28.41020836181688,-0.0651675465176369,2.33823994283996,-4.148115270766431
2.2993862284124247,27.947161747547014,-0.0689474120504321,2.2922261998587254,-3.953431196346168
2.2852795178804177,27.493174539442357,-0.07211969326963616,2.247645881187812,-3.772143123823002
2.2705918880495486,27.047967505940022,-0.07475660503905489,2.2044244538355686,-3.602993328374515
2.2554240879673304,26.611275786875563,-0.07692139578312679,2.162492736809008,-3.444867362538413
2.239864992025675,26.182847874429495,-0.07866956363342985,2.1217863876516616,-3.2967752286523893
2.223993046540748,25.76244469040701,-0.08004989121583793,2.082245452573201,-3.1578353388906404
2.2078775245356304,25.349838748108198,-0.08110532883533925,2.0438139704149316,-3.027260804044685
2.1915796166077195,24.94481338882034,-0.08187375044376943,2.0064396224636325,-2.9043476754704125
2.1751533813162944,24.547162084420844,-0.08238860247047847,1.9700734215313238,-2.788464831333237
2.1586465748567734,24.15668779878347,-0.08267946212473487,1.9346694348424225,-2.6790452520217225
2.1421013767478603,23.773202401681782,-0.08277251896439733,1.900184536174456,-2.5755784731146307
2.1255550257282145,23.396526129721202,-0.08269099123205585,1.8665781834313493,-2.4776040396937504
2.1090403779467906,23.026487089535518,-0.08245548658218732,1.8338122184254952,-2.3847058147370506
2.092586397760692,22.662920799079536,-0.08208431527879355,1.8018506861343409,-2.296507018085781
2.0762185899660084,22.30566976335603,-0.08159376266804391,1.7706596711007336,-2.212665892062186
2.0599593810318337,21.95458308134788,-0.08099832667370706,1.7402071489807343,-2.132871906017192
2.043828455846047,21.60951608129768,-0.08031092518415528,1.7104628515212663,-2.056842425541786
2.02784305558102,21.270329981797218,-0.07954307746611763,1.6813981434833511,-1.9843197832863002
2.0120182415217918,20.936891576426575,-0.07870506312616339,1.6529859102230753,-1.9150686977032516
1.996367129046661,20.609072939923422,-0.07780606162514693,1.625200454808495,-1.8488739938877168
1.9809010953924924,20.2867511540734,-0.07685427491653843,1.5980174036917274,-1.7855385872984362
1.9656299643595523,19.969808051696646,-0.0758570354128616,1.5714136200757898,-1.724881696717202
1.9505621707008614,19.658129977267187,-0.07482090117404792,1.5453671242188063,-1.6667372575184873
1.935704906588645,19.351607562844624,-0.0737517399481166,1.5198570200068253,-1.610952510318788
1.9210642522467771,19.05013551812364,-0.07265480347056072,1.4948634272030004,-1.5573867434733129
1.9066612295895276,18.7536173244471,-0.07137542310193656,1.4703185095624005,-1.501256844099599
1.892514035705039,18.461959868375157,-0.07009651574294946,1.4462560511570284,-1.4477030204899575
1.8786223090499592,18.1750683965384,-0.06882075080784734,1.422658667210556,-1.3965763794122752
1.8649851882203519,17.89285155177692,-0.06755045748822566,1.3995097804042327,-1.3477382683061037
1.8516013762581238,17.615221216400805,-0.06628766213405439,1.3767935733569316,-1.30105945872693
1.8384691978950647,17.342092364618175,-0.06503412149653634,1.354494944469341,-1.2564194036335599
1.8255866505142024,17.073382923486058,-0.06379135231208723,1.3325994668518317,-1.2137055610621736
1.8129514495181989,16.80901364179262,-0.06256065764794819,1.3110933500825577,-1.172812777561238
1.8005610687155218,16.548907966327725,-0.0613431503788224,1.2899634045664115,-1.1336427254909596
1.788412776265699,16.29299192504239,-0.06013977411940692,1.269197008286909,-1.0961033889326928
1.7765036666638716,16.041194016637473,-0.05895132189886371,1.2487820757622508,-1.0601085935191301
1.7648306891910486,15.79344510615785,-0.05777845282936743,1.2287070290339597,-1.0255775759950452
1.75339067320899,15.549678326201267,-0.05662170699121889,1.2089607705318872,-0.9924345897593019
1.7421803506367624,15.309828983380761,-0.055481518731056056,1.1895326576731866,-0.9606085430290985
1.7311963759089626,15.073834469706913,-0.05435822854694137,1.1704124790652854,-0.9300326666132993
1.7204353436828548,14.841634178580975,-0.05325209371413581,1.1515904321940835,-0.900644208588685
1.7098938045326588,14.613169425112694,-0.0521632977878261,1.1330571024887028,-0.8723841534457734
1.699568278843512,14.3883833704975,-0.051091959103639645,1.1148034436632435,-0.8451969635136418
1.6894552690948288,14.167220950206751,-0.050038138383193986,1.0968207592442598,-0.8190303406895048
1.6795512707025144,13.949628805762309,-0.04900184553994981,1.0791006852001506,-0.793835006691793
1.6698527815715125,13.735555219882748,-0.0479830457700683,1.0616351735954432,-0.7695645002278673
1.660356310494142,13.524950054803291,-0.046981665003638914,1.0444164771991222,-0.7461749896216658
1.651058384515439,13.317764693585204,-0.0459975947833908,1.0274371349817535,-0.7236250995846176
1.6419555553740302,13.113951984242902,-0.04503069663069807,1.0106899584412654,-0.7018757509368803
1.6330444051157382,12.913466186528588,-0.044080805952220005,0.9941680187018973,-0.6808900121969923
1.6243297153566307,12.716445739989126,-0.04306609163885393,0.9760364466927316,-0.6971415711817374
1.6158134395250752,12.523039930158813,-0.042096666676702775,0.9580216516104186,-0.7153041861286139
1.607486615434305,12.333225723352935,-0.04117157423099943,0.9401204164483692,-0.7352574387440516
1.5993404782361966,12.146980716167747,-0.04028979775008334,0.9223296554035016,-0.756883908698638
1.5913664717262552,11.964283109745036,-0.039450267349329445,0.9046464088236185,-0.7800689049568658
1.5835562584280853,11.78511168500178,-0.03865186563237178,0.8870678386089286,-0.8047002045518749
1.575901728565886,11.609445778735651,-0.03789343298961985,0.8695912240523634,-0.8306677977038144
1.5683950080258757,11.437265260519787,-0.037173772410483134,0.8522139581062694,-0.8578636382029564
1.5610284654005933,11.26855051030256,-0.0364916538423414,0.8349335440659802,-0.8861813979933778
1.5537947182037493,11.103282396629591,-0.0358458181260994,0.8177475926637182,-0.9155162248999141
1.5466866383376274,10.941442255406294,-0.0352349805351189,0.8006538195692721,-0.9457645024401033
1.5396973568899752,10.783011869119669,-0.03465783394140321,0.7836500432969913,-0.9768236106538468
1.5328202683328251,10.627973446437782,-0.03411305163009603,0.7667341835218636,-1.008591686866299
1.5260490341917534,10.47630960210451,-0.03359928978062206,0.7499042598108445,-1.0409673852737464
1.5193775862506793,10.328003337045502,-0.03311518963011824,0.7331583907792341,-1.0738496342075918
1.512800129354452,10.183038018599,-0.03265937933215568,0.7164947936858019,-1.107137389887548
1.5063111438691257,10.04139736078196,-0.032230475521108526,0.6999117844846037,-1.1407293854212615
1.4999053878580288,9.903065404497891,-0.031827084589860055,0.6834077783560766,-1.1745238737432084
1.4935778990304607,9.768026497587769,-0.031447803685820126,0.6669812907451322,-1.2084183631102112
1.4873239965191356,9.63626527461929,-0.031091221427431967,0.6506309389396541,-1.2423093436835768
1.4811392825423484,9.50776663630241,-0.030755918340438015,0.6343554442291631,-1.2760920036279784
1.475019644007293,9.38251572841044,-0.03044046701011904,0.6181536346905459,-1.3096599330440508
1.468961254112033,9.260497920075807,-0.030143431942480484,0.6020244486557632,-1.3429048139246358
1.4629605740053955,9.141698781317679,-0.029863369123892643,0.5859669389255283,-1.3757160941831907
1.4570143545665113,9.026104059644805,-0.029598825264950737,0.569980277803206,-1.4079806436468345
1.4511196383689906,8.913699655561,-0.029348336710255083,0.55406376303483,-1.4395823897360227
1.4452737618988287,8.804471596782083,-0.029110427991362334,0.5382168247543494,-1.4704019303687512
1.4394743581001666,8.698406010951825,-0.028883609995259664,0.5224390335482237,-1.500316121431248
1.4337193593291118,8.595489096619954,-0.028666377715289036,0.5067301097705048,-1.529197635952551
1.4280070008030417,8.495707092217021,-0.028457207545410538,0.49108993425882624,-1.5569144919124067
1.4223358246413067,8.39904624272879,-0.02825455407193866,0.4755185606234859,-1.5833295454087801
1.4167046846031839,8.305492763735813,-0.028056846309290465,0.46001622930627634,-1.6082999457253426
1.4111127516404849,8.215032802441883,-0.027862483317699485,0.4445833836330355,-1.6316765486890215
1.4055595203956062,8.12765239526717,-0.027669829131087443,0.4292206881141088,-1.6533032846199696
1.4000448167912865,8.04333742152777,-0.027477206912108684,0.4139290492798852,-1.6730164771901626
1.394568806876228,7.962073552662396,-0.027282892238476682,0.3987096393738515,-1.6906441096783553
1.3891320071114177,7.883846196398785,-0.027085105409624766,0.38356392326224903,-1.7060050355187313
1.3837352963059595,7.80864043517699,-0.02688200264495779,0.36849368895570883,-1.718908130803104
1.378379929439106,7.736440958064293,-0.026671666023580575,0.3535010821712728,-1.7291513876758369
1.3730675536378254,7.667231985308341,-0.02645209198922331,0.3385886453882643,-1.736520949590365
1.3678002266177722,7.600997184583406,-0.02622117821130798,0.32375936186107646,-1.7407900925095343
1.362580437941545,7.537719577893849,-0.025976708550965708,0.3090167050344831,-1.7417181608043981
1.357411133503938,7.477381438015929,-0.02571633582510409,0.2943646937447064,-1.7390494735167263
1.3522957437228496,7.4199641732959485,-0.025437561985781648,0.2798079534550926,-1.7325122267698545
1.3472382160016823,7.365448199597644,-0.025137715225892154,0.2653517835279383,-1.7218174328284248
1.3422430521421695,7.313812798233595,-0.024813923369234374,0.2510022301125319,-1.7066579576033578
1.3373153515374905,7.265035958868069,-0.02446308267755674,0.236766163542746,-1.686707749103497
1.332460861182966,7.219094206708657,-0.02408182086768767,0.22265135805135816,-1.6616213934698914
1.3276860338350178,7.175962413910792,-0.023666452611794807,0.20866656992728067,-1.6310341984613694
1.3229980960752559,7.135613596149426,-0.023212924985824373,0.19482160768638157,-1.5945630944787084
1.3184051286704668,7.098018696980105,-0.02271674906206686,0.1811273840068229,-1.551808771146421
1.3139161625810156,7.063146365221822,-0.022172911832444984,0.16759593357600114,-1.5023596471294185
1.3095412954526244,7.030962734567403,-0.021575759451466912,0.15424037296819798,-1.4457985192189038
1.305291835738634,7.001431220514828,-0.02091883768843689,0.14107476755754433,-1.381713071165987
1.301180485234106,6.974512358168877,-0.020194667356844137,0.12811385590195531,-1.3097118531073313
1.2972215765364454,6.950163716103955,-0.019394419619761,0.11537256474725849,-1.2294478509016709
1.2934313909877242,6.928339936481681,-0.018507435867452206,0.10286523147548073,-1.140652260724361
1.2898285968465018,6.908992968748311,-0.017520505544771577,0.09060444585822033,-1.0431813128974639
1.2864348695655743,6.892072578816482,-0.016416767264501995,0.07859945346008383,-0.9370783667632635
1.2832757904261507,6.877527215717404,-0.015174024129734951,0.06685417753071335,-0.8226508815952108
1.2803821740286234,6.865305278010414,-0.013762139845536906,0.05536519953917606,-0.700555409112325
1.2777920672418142,6.855356696573068,-0.012138928022556363,0.04412061483429106,-0.5718714211051721
1.275553849239174,6.847634463669905,-0.010243252003845743,0.03310171419733607,-0.43812673530942403
1.273731362782232,6.842095154871842,-0.007981612565574744,0.022291373783293184,-0.30122053723277853
1.2724138278765795,6.838696121364457,-0.005193736490950219,0.01169896129055566,-0.16319036681645144
1.2717434869387791,6.8373809183667085,-0.0015096728870525812,0.0014530686869171448,-0.02582406563546677
