x,y,v_x,v_y,omega
2.375,32.48,0.0,3.1794871794871797,-6.040816326530612
2.373711585181499,31.88293778381583,-0.01356226124737915,3.1053782540303825,-5.660492537501519
2.370033621329149,31.299669485803516,-0.025153147724728816,3.034288040836076,-5.315961124714659
2.3643145721588845,30.729640768291176,-0.03504736985699909,2.9660142487675034,-5.002838207650302
2.356854669683429,30.17233388652632,-0.04347791935832524,2.9003739803362287,-4.717378051536458
2.3479131727457423,29.62726424595738,-0.05064310103837497,2.837201183547329,-4.456366598502155
2.337714414832427,29.093977402417803,-0.056712245417575476,2.7763445379219176,-4.217035004265438
2.3264528656329517,28.572046431266294,-0.061830377734793295,2.717665684725564,-3.9969889898330484
2.3142973845340715,28.061069606594163,-0.06612205488500086,2.661037732875817,-3.7941507891212773
2.3013948085636757,27.56066834313094,-0.06969453427705882,2.606343987789701,-3.6067111972870984
2.2878729895341654,27.07048536238421,-0.0726404028756832,2.5534768621758444,-3.4330897697287712
2.273843373343339,26.590183051500652,-0.07503976755406369,2.5023369365984665,-3.271901636295494
2.2594031971544624,26.11944198881227,-0.07696208706569317,2.4528321443318752,-3.121929713327933
2.2446373664492874,25.657959614386883,-0.07846770983088763,2.4048770601459015,-2.982101342191479
2.229620062945101,25.205449027394323,-0.07960916916054604,2.3583922766178724,-2.851468574709468
2.2144161254974692,24.761637894924135,-0.08043227765663152,2.3133038546472373,-2.7291914763721095
2.1990822389228435,24.32626745919218,-0.080977054707848,2.2695428372680895,-2.6145239370318585
2.18366795982229,23.899091631963582,-0.0812785147716652,2.2270448177697815,-2.5068015732070648
2.168216603699977,23.479876166582436,-0.0813673391474198,2.1857495546633476,-2.405431381538885
2.152766013737469,23.068397899299818,-0.08127044993160637,2.1456006272589723,-2.309882863512964
2.137349228341938,22.664444052681958,-0.08101150160030038,2.1065451266132134,-2.2196803904300384
2.1219950619024,22.267811594799348,-0.08061130302641524,2.068533377414252,-2.1343966172264572
2.10672861095903,21.87830664867644,-0.08008818058800755,2.0315186870374338,-2.0536467859978984
2.0915716961333013,21.4957439471455,-0.07945829126176647,1.9954571185514212,-1.9770837864434276
2.076543248614434,21.119946328816635,-0.07873589314736723,1.960307284910285,-1.904393862080765
2.0616596486964434,20.750744271365207,-0.07793357967358387,1.9260301619468303,-1.8352928689011565
2.046935022766366,20.387975458760625,-0.0770624827482833,1.8925889181014217,-1.7695230078581095
2.032381504222388,20.031484379427464,-0.07613244929359088,1.8599487590897426,-1.7068499647955986
2.0180094630217087,19.681121952649526,-0.07515219492408359,1.8280767859411693,-1.6470604015799648
2.003827707898175,19.3367451808069,-0.07412943795522213,1.7969418650338673,-1.5899597506765668
1.9898436647295386,18.99821682528137,-0.07307101645147585,1.7665145089190735,-1.535370272506603
1.9760635340575043,18.665405104081415,-0.0719829906225682,1.736766766869945,-1.4831293408736577
1.9624924303571731,18.338183409428478,-0.07087073253881335,1.7076721242136177,-1.4330879267603802
1.9491345053050582,18.01643004371506,-0.06973900485187079,1.6792054096118243,-1.3851092550237882
1.9359930569973036,17.700027972394867,-0.0685920299665955,1.6513427095481072,-1.339067612094396
1.9230706268144306,17.388864592498553,-0.06743355090575238,1.624061289360454,-1.2948472858174682
1.9103690854094437,17.08283151558757,-0.06626688493621676,1.5973395202288037,-1.2523416211529637
1.8978897091070979,16.781824364064903,-0.06509497087794897,1.5711568115888022,-1.211452177647418
1.8856332478390085,16.48574257985669,-0.06392041089141218,1.5454935484976404,-1.1720879764667878
1.8735999855983048,16.194489244564462,-0.0627455074317864,1.52033103352581,-1.1341648263845086
1.8617897942754693,15.90797091026436,-0.061572295966480665,1.4956514327910444,-1.0976047194956362
1.8502119268144204,15.626100182501894,-0.060299993097192785,1.4714088594454562,-1.0593383417883753
1.8388740306557463,15.348792665998538,-0.05904628225727181,1.4476176300635468,-1.0227574843664535
1.8277725107280762,15.075964091575184,-0.0578118222445193,1.4242621007085992,-0.9877684272480245
1.8169036601718989,14.80753309667185,-0.056597130978399864,1.401327319326494,-0.9542836482889903
1.806263685479728,14.54342109756222,-0.05540260262339593,1.378798987090672,-0.922221347917671
1.7958487285686786,14.283552168667814,-0.05422852275607128,1.3566634223241325,-0.891505015190086
1.7856548861354833,14.027852928501222,-0.05307508180388221,1.3349075267978767,-0.8620630311570029
1.7756782266032962,13.776252431804231,-0.05194238695597903,1.3135187542230773,-0.8338283059624899
1.7659148049338869,13.52868206747986,-0.05083047272201591,1.292485080770318,-0.8067379464723
1.7563606755473797,13.285075461947624,-0.04973931029384786,1.2717949774637265,-0.7807329515653255
1.7470119035640441,13.045368387579035,-0.048668815846526776,1.2514373843108761,-0.7557579325180495
1.7378645745582328,12.809498675895593,-0.04761885789885591,1.2314016860411288,-0.7317608561751061
1.7289148029930779,12.577406135234789,-0.046589263839619206,1.21167768933575,-0.7086928088328375
1.7201587394855595,12.349032472610826,-0.04557982571320471,1.1922556014427947,-0.6865077789706583
1.7115925770347962,12.1243212195163,-0.04459030534746239,1.1731260100785148,-0.665162457150212
1.7032125563315645,11.903217661428968,-0.04362043889708137,1.15427986452499,-0.6446160515674045
1.6950149702539417,11.685668770804206,-0.04266994086736906,1.135708457840915,-0.6248301178898011
1.6869961676423293,11.47162314334896,-0.04173850767591992,1.1174034101090449,-0.605768402143621
1.679152556436818,11.26103093738687,-0.040825820803146735,1.0993566526497993,-0.5873966955324527
1.6714806062507133,11.05384381613722,-0.039931549576902814,1.0815604131359766,-0.5696827001754323
1.663976850445929,10.850014892742191,-0.03905535363135332,1.0640072015485285,-0.5525959048473531
1.6566378877687518,10.64949867788788,-0.03819688507577577,1.0466897969178919,-0.5361074698882182
1.649460383598077,10.452251029874724,-0.037355790405010136,1.0296012347995485,-0.5201901205261982
1.6424410708525223,10.258229107002318,-0.03653171217977587,1.0127347954362973,-0.5048180479267296
1.6355767505977563,10.067391322142363,-0.03572429050197086,0.9960839925632202,-0.4899668173424441
1.6288712103092602,9.87990091278041,-0.03486034411377882,0.9774992638783896,-0.518401180342997
1.6223252378202382,9.695931168628267,-0.03404462945487257,0.9590243587757606,-0.5483620928780066
1.6159298006566487,9.515461496252161,-0.033275761740806944,0.9406564030779939,-0.5797388985525943
1.6096761321388033,9.33847183744501,-0.03255232792072373,0.9223926369972696,-0.6124230998977744
1.603555736361357,9.164942647841059,-0.03187289078923693,0.9042304114653775,-0.6463081141291704
1.5975603924314052,8.994854876189983,-0.031235992683940762,0.8861671848617564,-0.68128903288675
1.5916821580407958,8.828189944215488,-0.03064015879615706,0.868200520132941,-0.7172623849251006
1.5859133724437977,8.664929726984386,-0.03008390011961164,0.8503280822997205,-0.7541259007208128
1.5802466589068374,8.505056533712544,-0.029565716058920034,0.8325476363512381,-0.7917782779526257
1.5746749266931204,8.348553088933986,-0.02908409671704705,0.8148570455283265,-0.8301189467908479
1.5691913726415665,8.195402513958644,-0.028637524878258026,0.7972542700015962,-0.8690478339048294
1.5637894823965865,8.045588308542936,-0.028224477700477917,0.7797373659532421,-0.9084651240604801
1.558463031342844,7.899094332695231,-0.027843428128392137,0.7623044850752415,-0.9482710181334515
1.5532060852972234,7.755904788535521,-0.027492846036034496,0.7449538745006579,-0.9883654863069976
1.5480130010088264,7.616004202124984,-0.02717119910498515,0.7276838771891886,-1.028648015155952
1.5428784265168995,7.4793774051766775,-0.0268769534416162,0.7104929327929949,-1.0690173472388893
1.5377973014162118,7.346009516553085,-0.026608573934043502,0.6933795790342945,-1.1093712117284449
1.5327648570795567,7.215885923449758,-0.026364524346536442,0.676342453632297,-1.1496060445039589
1.5277766168877593,7.088992262156417,-0.026143267146066837,0.6593802968239182,-1.1896166960100036
1.5228283965189047,6.9653143982777515,-0.025943263052403014,0.6424919545304572,-1.2292961250478722
1.5179163043504613,6.844838406285394,-0.025762970299631562,0.625676382231204,-1.268535076513635
1.5130367420306454,6.727550548260012,-0.025600843593167773,0.6089326496149361,-1.3072217409249212
1.5081864052787912,6.613437251667886,-0.025455332742141266,0.5922599460916451,-1.3452413933883112
1.5033622849787547,6.502485085999496,-0.02532488094245403,0.5756575872598395,-1.3824760094496567
1.4985616686345518,6.394680738078048,-0.02520792268073404,0.5591250224396225,-1.4188038550408322
1.493782142263624,6.290010985823404,-0.025102881223769538,0.5426618433987423,-1.454099047489327
1.4890215928104529,6.188462670230791,-0.02500816565171596,0.5262677944182321,-1.488231084293968
1.4842782111718398,6.090022665293748,-0.02492216738631494,0.5099427838664369,-1.5210643360952212
1.4795504959351842,5.994677845566265,-0.024843256157430584,0.49368689747549815,-1.5524574999891205
1.4748372579427147,5.902415051019503,-0.0247697753422485,0.4775004135430572,-1.5822630090614174
1.470137625808075,5.813221048803047,-0.024700036601325165,0.46138382031435343,-1.6103263937706114
1.465451052527159,5.727082491468742,-0.024632313724108002,0.44533783583623915,-1.6364855906116498
1.4607773233429546,5.643985871155877,-0.024564835583305474,0.4293634306149629,-1.6605701933854868
1.4561165650447285,5.563917469169358,-0.024495778082230944,0.41346185345364767,-1.682400642440937
1.451469256905572,5.486863300306474,-0.02442325496152265,0.3976346608924934,-1.7017873475281042
1.446836243489698,5.4128090512029665,-0.024345307310837172,0.38188375072336794,-1.7185297405286066
1.4422187495925645,5.341740011874947,-0.02425989160635495,0.36621140009788516,-1.7324152554824719
1.4376183976137895,5.273640999530631,-0.024164866064962178,0.35062030878965184,-1.7432182352685759
1.433037227706072,5.208496273616664,-0.024057975068907715,0.33511364819945877,-1.7506987673809993
1.4284777210945911,5.14628944095173,-0.023936831367728888,0.31969511669459494,-1.7546014560064445
1.4239428270228824,5.087003349691798,-0.023798895702891964,0.30436900183099563,-1.7546541448121802
1.4194359938563985,5.0306199707783215,-0.02364145341799194,0.28914024988982545,-1.7505666156055286
1.4149612049689488,4.977120265461146,-0.023461587502529278,0.27401454292256333,-1.74202930392547
1.4105230201577088,4.926484037491772,-0.023256147352629774,0.2589983830708548,-1.7287120959925537
1.40612662349174,4.8786897686957005,-0.02302171228914603,0.2440991832035687,-1.7102633056283645
1.4017778787161943,4.833714436926549,-0.022754548506071573,0.22932536173487394,-1.6863089795977197
1.397483393640453,4.791533315988033,-0.022450557554362184,0.21468643761793335,-1.6564527522622101
1.393250595383287,4.752119758146936,-0.022105213573701897,0.20019311860416153,-1.6202765753008206
1.389087819012823,4.71544496159413,-0.02171348506276025,0.1858573714253702,-1.5773427992375133
1.385004413136297,4.681477727996455,-0.021269734690146636,0.17169245591858534,-1.5271982990103152
1.3810108675813748,4.650184219620975,-0.02076758694061282,0.15771289540226452,-1.4693816390091339
1.377118970822575,4.62152773208091,-0.020199747362543444,0.14393434186157805,-1.4034346894171565
1.3733420088219477,4.595468508383146,-0.019557747380901633,0.13037327600962817,-1.3289206539787817
1.3696950234078689,4.571963633496704,-0.0188315727672975,0.11704645963713847,-1.2454511362871732
1.3661951586995742,4.5509670664956765,-0.01800910837264738,0.10397003511053866,-1.1527255530426082
1.3628621407309116,4.532429888190432,-0.017075291297485393,0.09115815757624307,-1.0505865770445706
1.3597189619425416,4.516300860489508,-0.016010801211672053,0.07862108138084475,-0.9390945855293141
1.3567928843115462,4.5025273945706275,-0.014790015956701612,0.0663627703968489,-0.818620723135676
1.3541169429177935,4.491056975521875,-0.013377788188063873,0.0543784827479262,-0.6899495402586873
1.3517322508378746,4.481838930127907,-0.011724233705819013,0.04265357403068796,-0.5543653311461364
1.3496916598634008,4.474826049708735,-0.009755671288642489,0.03116621985534459,-0.4136717300141749
1.348066059891872,4.469974791303365,-0.007355907359030174,0.01989965809591625,-0.27007270466592403
1.346957545056817,4.467240713210828,-0.004312669852074391,0.008880111299209525,-0.1258483152764656
