x,y,v_x,v_y,omega
2.375,32.48,0.0,2.5128205128205128,-5.795918367346939
2.3740646151770393,32.00734389334866,-0.009846156031166738,2.46250692561456,-5.4983725967768295
2.3713717962928476,31.544091107979835,-0.018499305907691336,2.4138381835310314,-5.223120899889308
2.3671352735357463,31.08993794367755,-0.026095670482849276,2.3667214407035275,-4.9679461494872665
2.361544514265846,30.644597615681764,-0.03275442709504752,2.3210714855678907,-4.730896730127175
2.354767733860804,30.20779888706327,-0.03858010348434481,2.276809868311015,-4.510249692663533
2.3469544877749513,29.779284854605038,-0.0436645921562088,2.233864157565114,-4.3044797329107025
2.3382379104637376,29.358811865828233,-0.04808885322498842,2.192167303243348,-4.112232956399165
2.3287366552057565,28.946148548742613,-0.0519243600169153,2.151657087131586,-3.932304598114898
2.3185565795523595,28.54107493904704,-0.055234331071477086,2.112275646506049,-3.763620027286971
2.307792213632713,28.143381692033728,-0.05807478387216911,2.073969058897246,-3.6052184938313228
2.2965280424506664,27.752869368494412,-0.06049543909674279,2.0366869783587034,-3.456239173141164
2.2848396283327093,27.36934778559043,-0.06254049898701697,2.000382315367409,-3.315909145611853
2.272794595596374,26.99263542501109,-0.06424931929019369,1.9650109538887948,-3.1835330111580107
2.260453496129646,26.622558891866632,-0.06565699088589129,1.9305315002634176,-3.05848389047155
2.2478705717669745,26.258952418691305,-0.06679484451065067,1.8969050594768715,-2.9401956065116814
2.2350944270083297,25.901657409705937,-0.06769088979087409,1.8640950351059276,-2.8281558737339654
2.2221686236688387,25.55052202113714,-0.06837019799324258,1.8320669498287623,-2.7219003504205506
2.2091322073996804,25.205400773935434,-0.0688552364189499,1.800788283873423,-2.6210074323883816
2.196020174631355,24.866154195695522,-0.06916616114236784,1.770228329178269,-2.5250936852838195
2.182863887314007,24.532648488973617,-0.06932107377708704,1.7403580573681015,-2.4338098283766105
2.16969144183031,24.204755223530917,-0.06933624710393402,1.711149999923508,-2.3468371958434457
2.1565279976052945,23.882351050319006,-0.06922632368570457,1.6825781391492218,-2.2638846124603718
2.1433960702104113,23.565317435269673,-0.06900449099727204,1.654617808738484,-2.184685629788265
2.1303157931364054,23.25354041116485,-0.06868263609753071,1.6272456028912305,-2.1089960766461573
2.1173051518748442,22.946910346047602,-0.06827148244521421,1.6004392930798141,-2.0365918841742388
2.1043801934879647,22.64532172679625,-0.06778071110088803,1.5741777516712503,-1.96726715129587
2.0915552144494733,22.34867295662473,-0.06721906825165111,1.548440881713193,-1.900832421062495
2.0788429291957877,22.056866165395867,-0.06659446073451397,1.5232095522748204,-1.8371131423435834
2.0662546215298865,21.7698070317432,-0.06591404101181601,1.498465538805915,-1.7759482947180156
2.053809228290457,21.48740935769052,-0.0650900983505975,1.474141556485413,-1.7138575321068945
2.041522893005393,21.209589921866623,-0.06423974675534236,1.4502735574503662,-1.6545175912709689
2.029400230860676,20.93626360428249,-0.0633672231890487,1.4268455750141635,-1.597774627476275
2.0174450933506414,20.667348250332864,-0.06247632954815485,1.4038423612976751,-1.543485032554967
2.00566064684658,20.402764538142158,-0.06157047575775585,1.3812493459729442,-1.4915146445552514
1.9940494433993032,20.142435853477146,-0.06065271842410474,1.3590525978692876,-1.4417380266660464
1.9826134845735859,19.88628817170496,-0.05972579553081546,1.337238789206328,-1.3940378086263434
1.9713542790253737,19.63424994631746,-0.05879215760825988,1.3157951622410287,-1.3483040845649001
1.9602728944557821,19.38625200358166,-0.057853995755861205,1.2947094981358618,-1.3044338618642193
1.949370004507905,19.1422274429108,-0.05691326685337111,1.2739700878731484,-1.2623305562150464
1.9386459311122337,18.902111542582478,-0.055971716258958644,1.2535657050565983,-1.2219035285335618
1.928100682733091,18.66584167045884,-0.05503089825833251,1.233485580455404,-1.1830676598613963
1.9177339889210914,18.43335719939046,-0.054092194499559126,1.2137193781590843,-1.1457429607658067
1.9075453315345234,18.204599427009178,-0.053156830622207545,1.1942571732228153,-1.1098542121100434
1.8975339729550964,17.97951149963714,-0.05222589126649866,1.175089430693373,-1.0753306343775568
1.887698981590131,17.75803834005933,-0.05130033362787273,1.1562069859151698,-1.0421055830129173
1.8780392549235576,17.54012657892508,-0.05038099970447983,1.1376010260243223,-1.0101162674912707
1.8685535403515532,17.32572448956087,-0.04946862736925143,1.1192630725463233,-0.9793034920503738
1.8592404540149778,17.114781925992084,-0.04856386038417446,1.1011849650198116,-0.9496114162178788
1.8500984978195967,16.90725026398556,-0.047667257461942975,1.0833588455752032,-0.9209873334442659
1.8411260748161462,16.703082344937663,-0.046779300469114236,1.0657771444026425,-0.8933814663110667
1.8323215030953477,16.50223242244477,-0.0459004018550799,1.0484325660489038,-0.8667467769268462
1.823683028337784,16.3046561114038,-0.04503091138243211,1.0313180764875904,-0.8410387912516609
1.8152088351449325,16.11031033950091,-0.04417112222653205,1.0144268909112673,-0.8162154362060106
1.8068970572654215,15.919153300955522,-0.043321276505162876,0.9977524621980789,-0.7922368885240461
1.7987524868558054,15.731354211728132,-0.04241104359606041,0.9790800559849759,-0.8128485075058458
1.7907768292424355,15.547092013931842,-0.041543247070989185,0.9605220260812432,-0.835176768987361
1.7829621179256692,15.366345264989153,-0.04071687205286641,0.9420753312102285,-0.8591029993473199
1.7753005842763083,15.189093088288011,-0.03993085057198661,0.9237370551175965,-0.8845109972226095
1.7677846670914863,15.015315149822836,-0.039184067162979744,0.9055044024105497,-0.9112867725094508
1.7604070211351037,14.844991635584684,-0.03847536395683712,0.8873746948331448,-0.9393182903842303
1.7531605247555446,14.678103229618479,-0.03780354530168229,0.8693453679689965,-0.9684952192615438
1.7460382866673285,14.514631092666683,-0.037167381942696566,0.8514139683656847,-0.9987086816111564
1.7390336519778655,14.354556841319507,-0.036565614788492976,0.8335781510782638,-1.0298510065517614
1.7321402075355756,14.197862527591987,-0.035996958288242925,0.8158356776324736,-1.0618154831274649
1.7253517866713004,14.044530618847801,-0.03546010344097153,0.7981844144115939,-1.0944961131525872
1.7186624734011235,13.89454397798863,-0.034953720455625975,0.780622331474429,-1.127787362481334
1.7120666061554517,13.747885843826069,-0.034476461077761075,0.7631475018156866,-1.1615839095207443
1.7055587810964492,13.604539811550588,-0.03402696059595182,0.7457581010841077,-1.1957803897576107
1.6991338550836943,13.464489813208672,-0.033603839538308124,0.7284524077781467,-1.2302711350122286
1.6927869483462183,13.327720098095078,-0.03320570506670429,0.7112288039438825,-1.2649499060632758
1.6865134469178973,13.194215212961911,-0.03283115207351616,0.6940857764052326,-1.2997096172081832
1.680309004892552,13.063959981939973,-0.03247876398275151,0.6770219185625336,-1.3344420512313513
1.6741695465550195,12.936939486060318,-0.03214711325443081,0.660035932802249,-1.369037563147792
1.668091268444999,12.813139042255138,-0.03183476158788969,0.6431266335680746,-1.4033847709715856
1.6620706414116018,12.692544181706715,-0.03154025981629247,0.6262929511521726,-1.4373702316263683
1.6561044127183568,12.57514062740115,-0.03126214748102351,0.6095339362748199,-1.4708780999685491
1.6501896082609417,12.460914270729543,-0.030998952070712918,0.5928487655315646,-1.5037897687330362
1.644323534963211,12.349851146963115,-0.03074918790540009,0.576236747799239,-1.5359834870363698
1.6385037834212381,12.24193740941011,-0.030511354641682645,0.5596973317060662,-1.5673339548845187
1.6327282308701692,12.137159302040782,-0.030283935369570057,0.5432301142868512,-1.5977118909345
1.6269950445547823,12.035503130342136,-0.030065394266080837,0.5268348509620777,-1.6269835705543716
1.6213026855918964,11.936955230135748,-0.02985417376429754,0.5105114669998914,-1.6550103310212787
1.6156499134212843,11.841501934059707,-0.029648691189515172,0.4942600706426395,-1.6816480405017546
1.6100357909516956,11.749129535378675,-0.029447334806155218,0.4780809681050565,-1.7067465272867146
1.6044596905201505,11.659824248744147,-0.029248459210108137,0.46197468067944075,-1.7301489656266853
1.5989213007960537,11.573572167479249,-0.02905037999091016,0.44594196421424104,-1.7516912144614007
1.5934206347771598,11.490359216908615,-0.028851367576395188,0.42998383126612266,-1.7712011054061076
1.587958039042312,11.41017110319352,-0.028649640158845305,0.41410157626120137,-1.78849767660795
1.5825342044465778,11.332993257065137,-0.028443355585724635,0.3982968040375527,-1.8033903496098043
1.5771501784684132,11.258810771774826,-0.028230602079165255,0.38257146217625715,-1.8156780472842897
1.571807379446466,11.187608334500002,-0.028009387625540807,0.3669278775587227,-1.8251482524099678
1.566507612976448,11.119370150359128,-0.02777762784833631,0.35136879760836914,-1.8315760088146191
1.5612530907773614,11.054079858102074,-0.027533132142046526,0.335897436676409,-1.8347228705762586
1.5560464523829722,10.991720436457701,-0.027273587798893828,0.32051752800122324,-1.8343358100769918
1.550890790071176,10.93227410004667,-0.0269965417989613,0.30523338158860125,-1.8301461034968816
1.545789677514482,10.87572218371718,-0.02669937985044988,0.2900499481954975,-1.8218682236824284
1.5407472027245785,10.822045014154408,-0.026379302148530778,0.2749728893073737,-1.8091987867493355
1.5357680059811933,10.771221767681688,-0.02603329515026337,0.2600086525107333,-1.7918156224505466
1.5308573235929657,10.723230313359782,-0.02565809841002685,0.24516455087774713,-1.7693770723400204
1.526021038555889,10.678047040869963,-0.0252501651381483,0.23044884375192906,-1.7415216684486792
1.521265739484564,10.635646673341707,-0.024805614560011634,0.21587081444022646,-1.7078684146699352
1.5165987896432216,10.596002066409621,-0.02432017324358992,0.20144083747645947,-1.6680179917583968
1.5120284085770965,10.55908399657796,-0.02378910113667411,0.18717042390944935,-1.6215553461068108
1.5075637698680362,10.524860944746823,-0.023207095800801804,0.17307222694463398,-1.5680543168110128
1.5032151201155508,10.493298884936376,-0.022568164751676806,0.15915998158638178,-1.5070852219711603
1.498993926701583,10.46436109437835,-0.021865450132194268,0.14544834007702429,-1.4382266797658074
1.4949130657503904,10.438008009847543,-0.021090980932992165,0.13195254972095732,-1.3610833878027198
1.4909870677531876,10.41419716690347,-0.020235313774403872,0.11868790232190704,-1.2753120961323117
1.4872324478394,10.392883273564784,-0.019287001107574,0.1056688696642426,-1.1806584690207864
1.483668162536222,10.374018486175139,-0.018231791557456096,0.09290783970043792,-1.0770076331696234
1.4803162579166975,10.357552967348699,-0.017051414963852606,0.08041341110417649,-0.9644502866647492
1.477202809767717,10.343435800649402,-0.015721723446470843,0.06818834362525446,-0.8433630350550353
1.4743593130899115,10.331616287047666,-0.014209820530428612,0.056227589024600025,-0.7144942124432193
1.4718247765372827,10.322045506436382,-0.012469511602504448,0.04451747004153223,-0.5790330208853506
1.469648985186753,10.314677716944491,-0.01043355524518017,0.033038208820481245,-0.4386214230424203
1.4678979765019684,10.30947053672508,-0.007998115120970527,0.02177421454173022,-0.2952533760570949
1.4666649868011512,10.306381289160154,-0.0049807238349998785,0.010744180878524964,-0.15101121131079992
1.466103676761576,10.305348828716745,-0.000927802897369991,0.00012382378892727974,-0.007674223838634281
