x,y,v_x,v_y,omega
2.375,32.48,0.0,3.333333333333333,-7.755102040816326
2.3728647920882655,31.789164441803564,-0.020335313445089504,3.2460529352041365,-7.196221921001091
2.3668092058577916,31.116217787673698,-0.03733693636894795,3.1629628184136434,-6.698238790364789
2.35747774192789,30.4603151165387,-0.051534148677734794,3.083729287633943,-6.2525752173803
2.3454134081555025,29.820677487421577,-0.06336426820214694,3.0080576563386687,-5.852088325573222
2.331075158901726,29.196584410004174,-0.07319048659572736,2.935685938112774,-5.490794178727825
2.314851996189443,28.587367502744044,-0.08131582494982018,2.866379845317038,-5.163652028752594
2.2970744481039995,27.992405097849726,-0.08799415681630743,2.7999287727240856,-4.866393873081624
2.2780239679688363,27.411117610703396,-0.09343898732810622,2.736142533431435,-4.595388695495309
2.2579406721486444,26.842963533630353,-0.09783049667372357,2.6748486767880157,-4.3475335254660665
2.237029741038868,26.28743594504403,-0.10132122818128346,2.6158902621293563,-4.120165423582544
2.2154667376383173,25.744059448190946,-0.1040407089668245,2.559123993614287,-3.9109899298283324
2.1934020447229736,25.21238747121508,-0.1060992235602574,2.5044186442511247,-3.7180225605156907
2.170964580610536,24.691999873610058,-0.10759091084390592,2.451653713891918,-3.5395407186653514
2.148264921679845,24.182500814426604,-0.10859631706744106,2.400718278331454,-3.3740439672393476
2.125397934920107,23.683516845632656,-0.10918450921577826,2.351509995896634,-3.220221057617211
2.102445004176379,23.194695200348427,-0.10941483120067742,2.303934244905566,-3.07692244433069
2.079475918206561,22.71570225070806,-0.10933836851187717,2.2579033707169778,-2.943137278014498
2.056550476256933,22.246222114135826,-0.10899917386553024,2.2133360252090695,-2.8179740711045436
2.033719856907899,21.785955390092017,-0.108435296125271,2.170156584731956,-2.700644389154332
2.0110277879134544,21.33461801201026,-0.10767964667896353,2.1282946350942735,-2.590449045189578
1.9885115482534186,20.891940201340965,-0.10676073103566149,2.087684514137118,-2.4867663730697127
1.9662028283243438,20.45766551243245,-0.10570326828886165,2.0482649040392515,-2.389042234230394
1.9441284698700594,20.031549958496704,-0.1045287169900363,2.0099784667773664,-2.2967814748825526
1.922311103705375,19.6133612101788,-0.10325572267362355,1.972771517202657,-2.2095406011296514
1.9007697003662365,19.20287785932313,-0.10190049960388754,1.9365937290418171,-2.1269214801398153
1.8795200464075377,18.799888741441947,-0.10047715714562556,1.9013978698265939,-2.0485659084871273
1.8585751570709401,18.404192311170327,-0.09899797939339867,1.8671395613316761,-1.9741509156231674
1.837945634383551,18.015596065659636,-0.09747366524840208,1.8337770625796839,-1.9033846923809048
1.817639978363174,17.63391601143712,-0.09591353494566471,1.8012710728728565,-1.8360030524116022
1.7976648578478562,17.2589761707574,-0.09432570805736208,1.7695845526482756,-1.7717663492724112
1.778025346496762,16.890608123904276,-0.09271725719115637,1.7386825602386202,-1.7104567841217835
1.7587251286936119,16.52865058427863,-0.0910943409340797,1.7085321028627452,-1.6518760491231805
1.7397666793966253,16.172949003438443,-0.08946231903722134,1.6791020003771582,-1.595843260090206
1.721151421398451,15.823355203546686,-0.087825852373964,1.650362760496702,-1.5421931389379657
1.702879862968269,15.479727034938282,-0.0861889898182448,1.622286464345247,-1.4907744123860245
1.6849517184314324,15.141928056742493,-0.08455524386591413,1.594846661328925,-1.4414483982900694
1.6673660138876727,14.809827238696904,-0.08292765655084369,1.5680182724385898,-1.3940877551266682
1.650121179967028,14.483298682466167,-0.08130885697910652,1.5417775011874841,-1.3485753736522812
1.6332151332649574,14.162221360936428,-0.07970111161204167,1.516101751476691,-1.3048033927135136
1.616645347877726,13.84647887409692,-0.07810636826635141,1.4909695517567307,-1.262672323690339
1.6004315156093372,13.535963739418705,-0.07631108190878091,1.4663174451786471,-1.215949335239822
1.584590875335795,13.23057235697134,-0.07455215879162255,1.442171911462926,-1.1714378203494593
1.5691157681208914,12.930200311809699,-0.0728298146836493,1.4185142329336442,-1.1290062247883859
1.5539985065564326,12.634747025884113,-0.07114410497786174,1.3953265854052512,-1.0885323103355076
1.5392314060029735,12.344115576047262,-0.06949494791222467,1.3725919844695325,-1.0499023903840372
1.5248068112639148,12.058212522935069,-0.06788214484071468,1.3502942356465786,-1.0130106366343663
1.51071711927308,11.776947749944313,-0.06630539792914082,1.3284178880749058,-0.977758449501352
1.4969547983024196,11.500234311594493,-0.06476432560095698,1.3069481914471783,-0.9440538857045837
1.4835124041326568,11.227988290620324,-0.0632584760158302,1.285871055925875,-0.9118111372477032
1.4703825935741515,10.960128663194304,-0.061787338827078715,1.2651730147981406,-0.8809500566395474
1.457558135676905,10.69657717172711,-0.060350355432412184,1.244841189651324,-0.8513957237778468
1.445031920926478,10.437258204737304,-0.05894692790498725,1.2248632578706427,-0.8230780504158338
1.4327969686858113,10.182098683321666,-0.05757642676803008,1.2052274222782964,-0.7959314185722719
1.4208464331108233,9.931027953793755,-0.05623819775566392,1.1859223827494254,-0.7698943496337802
1.4091736077395878,9.683977686091318,-0.05493156768467474,1.1669373096547582,-0.7449092012414842
1.397771928930327,9.440881777583321,-0.053655849546379766,1.1482618189928266,-0.7209218893576692
1.386634978301965,9.201676261935006,-0.052410346914212196,1.1298859490863735,-0.697881633177168
1.3757564843121357,8.966299222714476,-0.05119435775082753,1.1118001387282002,-0.675740720786946
1.3651303230910339,8.734690711447527,-0.05000717768823785,1.0939952066713032,-0.6544542936894479
1.3547505186349926,8.506792669848519,-0.048848102845488996,1.0764623323668558,-0.6339801484939609
1.3446112424509598,8.282548855974543,-0.04771643224053809,1.0591930378614733,-0.6142785542483225
1.334706812731861,8.06190477406799,-0.0466114698461167,1.0421791707723733,-0.5953120840331917
1.3250316931330173,7.844807607869008,-0.045532526333348755,1.0254128882655493,-0.5770454595749521
1.3155804912111453,7.631206157194484,-0.04447892054162172,1.0088866419680051,-0.5594454077529608
1.3063479565798732,7.42105077759404,-0.04344998070858783,0.9925931637504969,-0.5424805279839549
1.2973379816135466,7.214437927800361,-0.0423593046849994,0.9751482628559826,-0.5538431833406242
1.2885521395039607,7.011476098917125,-0.04131538207296217,0.9578215360319845,-0.5672988089987275
1.2799806978319608,6.812140826285418,-0.0403173957556091,0.940609631889035,-0.582726990155538
1.271614102982098,6.616408334785525,-0.039364459957369695,0.9235093347766113,-0.6000107948529037
1.2634429938016036,6.424255510947795,-0.03845562747591063,0.906517558916051,-0.6190365028478552
1.255458213805824,6.235659876246611,-0.037589896293419585,0.8896313429999715,-0.6396933442097539
1.2476508220556353,6.050599561481771,-0.03676621561313965,0.8728478452366157,-0.661873246544817
1.24001210282312,5.869053282155786,-0.035983491363196486,0.8561643388203763,-0.6854705897892492
1.2325335741533385,5.691000314759336,-0.03524059120615045,0.8395782078124953,-0.7103819675450871
1.2252069954223137,5.516420473880068,-0.03453634908932343,0.8230869434186192,-0.7365059539584339
1.218024373984319,5.345294090052597,-0.03386956936776929,0.8066881406525416,-0.7637428751581588
1.2109779709951842,5.17760198826938,-0.033239030528753245,0.7903794953781066,-0.791994584284426
1.2040603064925708,5.013325467073667,-0.03264348854375516,0.7741588017239276,-0.8211642391405879
1.197264163808991,4.852446278156481,-0.032081679871292214,0.7580239498683029,-0.8511560814989347
1.1905825933887244,4.694946606379883,-0.031552324131245243,0.7419729241945374,-0.8818752170803973
1.1840089160757146,4.5408090501483755,-0.03105412646884814,0.7260038018198347,-0.9132273952102985
1.1775367259359615,4.390016602049368,-0.030585779624039224,0.7101147515040482,-0.9451187871263615
1.1711598926748945,4.24255262968191,-0.030145965719455117,0.6943040329479189,-0.977455761881015
1.1648725637076671,4.098400856590505,-0.02973335777794829,0.6785699964940293,-1.0101446587371414
1.1586691659382815,3.9575453432176317,-0.029346620978106197,0.6629110832476293,-1.043091554904282
1.1525444073019295,3.8199704677845574,-0.028984413653817383,0.6473258256387866,-1.0762020274003286
1.1464932781239272,3.6856609070050155,-0.028645388041442527,0.6318128484520782,-1.1093809077512782
1.14051105234814,3.5546016165302383,-0.028328190775578105,0.6163708703553242,-1.1425320281579796
1.134593288687874,3.4267778110166276,-0.02803146313171707,0.6009987059647816,-1.175557957663247
1.128735831752859,3.302174943698784,-0.027753841011282254,0.5856952684908573,-1.2083597267445394
1.1229348132072172,3.1807786853405773,-0.02749395466149821,0.5704595730158896,-1.2408365386359217
1.1171866530152295,3.0625749024251867,-0.027250428119336673,0.5552907404640142,-1.2728854655476851
1.1114880608343451,2.947549634431528,-0.027021878365275736,0.5401880023327347,-1.3044011278024752
1.1058360376182668,2.835689070028586,-0.026806914168804843,0.5251507062667148,-1.335275353743062
1.100227877497182,2.726979522001077,-0.026604134603430894,0.5101783225667028,-1.3653968180895784
1.0946611700073667,2.6214074006988106,-0.026412127204333755,0.4952704517405848,-1.3946506562345584
1.089133802748557,2.5189591857779945,-0.026229465736709787,0.4804268332195657,-1.4229180517651083
1.083643964554802,2.419621395974975,-0.026054707537147885,0.46564735538063723,-1.4500757942975382
1.0781901492730808,2.323380556621121,-0.025886390384006752,0.4509320670370328,-1.475995804507898
1.0727711602539731,2.230223164571175,-0.025723028845589985,0.43628119058151366,-1.5005446230530148
1.0673861156702713,2.140135650175825,-0.025563110046807894,0.4216951369932497,-1.523582859917112
1.0620344547928475,2.0531043358820114,-0.025405088785799345,0.4071745229478325,-1.5449646006128708
1.0567159453685868,1.9691153909908294,-0.025247381921444982,0.39272019030150657,-1.5645367656477316
1.0514306922630774,1.888154782042431,-0.025088361940549767,0.37833322825468146,-1.5821384197866315
1.0461791475513904,1.8102082182294694,-0.02492634959932555,0.36401499853541375,-1.5976000279735527
1.040962122264162,1.7352610911654196,-0.024759605517135547,0.34976716397935137,-1.610742655419699
1.035780800023908,1.6632984082513964,-0.024586320580523516,0.335591720916101,-1.621377110473846
1.0306367528388714,1.594304718796316,-0.024404604991253846,0.3214910357989591,-1.6293030306717835
1.0255319593597987,1.528264031951899,-0.024212475761820073,0.3074678865288241,-1.6343079151188151
1.0204688259503716,1.4651597254304498,-0.02400784242319888,0.2935255089135385,-1.636166110523595
1.0154502109767627,1.4049744438857594,-0.023788490658789938,0.27966764865492466,-1.6346377643906602
1.0104794527890744,1.3476899857669764,-0.023552063509671175,0.26589861914301677,-1.629467767976777
1.005560401952019,1.2932871774189856,-0.02329603970038045,0.25222336512355065,-1.6203847248888443
1.0006974583912998,1.2417457332278197,-0.023017708496945795,0.2386475319351875,-1.6071000004617904
0.99589561426691,1.1930441007371577,-0.022714140306766852,0.22517753940445506,-1.5893069348965436
0.9911605035824467,1.1471592899554537,-0.022382151926217852,0.21182065851652623,-1.5666803432556207
0.986498459818117,1.1040666866269149,-0.022018264876922725,0.19858508746956074,-1.5388764830369166
0.9819165832783661,1.063739850194409,-0.021618654549277146,0.18548002141143455,-1.5055337524889294
0.9774228204433952,1.0261502987439854,-0.021179086736160056,0.17251570668784066,-1.4662745001121673
0.9730260585205148,0.9912672856841347,-0.02069483633889083,0.1597034653107311,-1.420708491148577
0.9687362397886417,0.9590575766895562,-0.020160580155139555,0.147055667970961,-1.3684388066446194
0.9645645025105667,0.9294852410743104,-0.01957025106462206,0.13458562360280288,-1.3090712623906589
0.960523358622303,0.902511479916356,-0.01891683358550795,0.12230733980629588,-1.2422288407247462
0.9566269238414926,0.8780945245978842,-0.01819206908887749,0.11023509179821,-1.1675731171498174
0.9528912244324776,0.8561896542580065,-0.01738602052078925,0.09838272096253145,-1.0848351629450876
0.9493346184148965,0.8367493980376857,-0.016486417741887707,0.08676257637386878,-0.9938586969719627
0.9459783902198518,0.8197240038419551,-0.015477660306157447,0.07538403501403146,-0.8946578314998104
0.9428476108667339,0.8050622587567986,-0.01433928591401359,0.06425163246365688,-0.7874895737268308
0.9399724078802523,0.7927127135377496,-0.013043599671524714,0.053363083908232335,-0.6729355721506881
0.9373898767158557,0.782625250423763,-0.011551935227490156,0.04270799336781808,-0.5519763666515121
0.9351470387205081,0.7747526668442504,-0.009808426632962594,0.03226899310373895,-0.426024242378463
0.9333056996472702,0.7690514001473829,-0.007728135969302571,0.022028784961653426,-0.29686347880279784
0.9319516453352228,0.7654792746244041,-0.005167619383528756,0.0119914581143367,-0.16644412040442957
0.9312189981655341,0.7639830875818561,-0.0018099727087448397,0.002257942290872738,-0.036515956882461786
