x,y,v_x,v_y,omega
2.375,32.48,0.0,3.8974358974358974,-5.061224489795919
2.3733216722940496,31.67358624509884,-0.015984073390003434,3.7826951016227404,-4.640013066663328
2.368604299429254,30.890617305251535,-0.02894328722709684,3.6741519445420696,-4.272065356547316
2.3614249781081447,30.129846498318052,-0.039431201545375674,3.5712843119672857,-3.9487928655091804
2.352256041907455,29.390130441019743,-0.04789200036595327,3.4736305194451855,-3.6632285767604005
2.3414855489224804,28.67041732622447,-0.054684123300471156,3.3807800976526514,-3.4096811669378706
2.3294333921356687,27.96973694713121,-0.0600983222882118,3.292366369902204,-3.1834709429237633
2.3163640529502265,27.287192136854085,-0.06437157471600072,3.2080603946418442,-2.9807263434643847
2.302496759637941,26.621951369090787,-0.06769788540100223,3.127565965008596,-2.798225802078495
2.2880136248688703,25.97324232163757,-0.07023673144729035,3.050615439307783,-2.633273910562866
2.2730661988721104,25.340346245992954,-0.07211970661709101,2.976966233498086,-2.483603747165675
2.257780772762821,24.722593017489892,-0.07345578013804366,2.9063978474834244,-2.347299324759153
2.2422626902454263,24.119356764222665,-0.07433548193238346,2.838709326490159,-2.222733626857977
2.226599868317014,23.530051991489998,-0.07483425071916106,2.773717080487626,-2.1085188046921024
2.2108656838140623,22.95413013295548,-0.07501512549942942,2.711253000793515,-2.0034659240615906
2.1951213491252446,22.391076471220334,-0.0749309191559775,2.6511628252555015,-1.9065522576573843
2.1794178745607766,21.84040737972519,-0.07462598145800123,2.59330471279349,-1.8168945739310358
2.163797694839878,21.301667845367405,-0.07413763493151304,2.5375479953758755,-1.7337272178621594
2.148296021540017,20.77442923732459,-0.07349734887668254,2.4837720812223605,-1.6563840410623925
2.132941971107792,20.25828729260254,-0.07273170285879303,2.431865487559065,-1.5842834395065613
2.1177595083838536,19.752860292996594,-0.07186318022633782,2.3817249848785194,-1.5169159120656155
2.1027682379561057,19.257787411638056,-0.07091082384745193,2.3332548375837776,-1.4538336731579282
2.0879840695803176,18.772727210222765,-0.06989077973148167,2.286366128276121,-1.39464194655106
2.073419779054354,18.29735627048973,-0.06881674908721995,2.2409761548956464,-1.3389916408376779
2.0590854820394746,17.831367945614844,-0.06770036534019946,2.1970078915318387,-1.286573165034377
2.044989035187161,17.374471218973213,-0.06655150944374182,2.154389505055103,-1.2371111886297133
2.03113637639556,16.92638965925496,-0.06537857428578728,2.113053920833036,-1.190360186912523
2.017531813963376,16.48686046223601,-0.06418868697311053,2.0729384317283914,-1.1461006415880324
2.0041782727347695,16.05563357064152,-0.06298789615647496,2.033984345362,-1.1041357901083946
1.9910775039610802,15.632470864523128,-0.061781330259613194,1.9961366652893435,-1.0642888360196985
1.9782302644841303,15.217145415425719,-0.06057333142562499,1.9593438023050298,-1.0264005479010714
1.9656364699242206,14.809440798363646,-0.0593675691449442,1.923557312571847,-0.9903271868778575
1.9532953257958976,14.40915045627677,-0.05816713683908291,1.8887316596841315,-0.955938712805435
1.941205439846017,14.016077112206283,-0.05697463411216194,1.854823998130015,-0.9231172274958043
1.9293649183873556,13.630032224930726,-0.05579223692270816,1.8217939759229054,-0.8917556201533456
1.9177714489675675,13.250835484242952,-0.05462175755146433,1.7896035544368654,-0.8617563857828774
1.9064223713518873,12.878314342437566,-0.05346469593120499,1.75821684370966,-0.8330305919583061
1.895314738495949,12.512303578922033,-0.052322283649159335,1.7275999516763676,-0.8054969731743898
1.8844453689320297,12.152644895169168,-0.05119552172150002,1.6977208459699582,-0.779081135192329
1.8738108917795167,11.79918653749926,-0.05008521306434005,1.6685492270767917,-0.7537148544487289
1.8634077854115354,11.45178294542059,-0.04899199044024078,1.6400564117676752,-0.7293354598211799
1.853232410658812,11.110294423471622,-0.04791634053807665,1.6122152258415359,-0.7058852859086536
1.8432810393043062,10.77458683469954,-0.04685862474293301,1.5849999053211299,-0.6833111885532178
1.833549878514154,10.444531314081129,-0.04581909706804042,1.5583860053304057,-0.6615641146518851
1.8240350917587889,10.120004000345347,-0.04479791964972381,1.532350315962756,-0.6405987194251596
1.8147328167001706,9.800885784794676,-0.043795176146639685,1.506870784519819,-0.6203730252560323
1.805639180454674,9.48706207584599,-0.042810883334279536,1.481926443562886,-0.6008481170177694
1.7967622383362958,9.17842376451777,-0.041731422555038554,1.4574860452773024,-0.5787397988343933
1.78810896759332,8.874865750234925,-0.04068067975901722,1.4335426621783836,-0.5576697212281112
1.7796734013614777,8.576285565768341,-0.03965804625852604,1.4100781422652815,-0.5375766138760766
1.771449703188677,8.282584466379742,-0.03866288872053,1.3870751852451977,-0.5184035090638782
1.7634321714971193,7.993667256219833,-0.037694555960970655,1.3645172924682227,-0.5000973917007431
1.7556152427251903,7.709442124872943,-0.036752384724067305,1.3423887203592912,-0.4826088815903492
1.7479934933476255,7.429820493343485,-0.03583570458607179,1.3206744370641141,-0.4658919446430735
1.7405616409452023,7.154716868836296,-0.03494384210367335,1.2993600820519642,-0.44990363009031326
1.7333145444716904,6.884048707734479,-0.0340761243107267,1.2784319284415366,-0.4346038310901496
1.7262472038455203,6.617736286225224,-0.033231881652797106,1.2578768478370828,-0.4199550664022153
1.7193547589761091,6.355702578066836,-0.03241045043683391,1.2376822774808809,-0.40592228106346295
1.712632488319647,6.097873139029108,-0.03161117486280581,1.2178361895451146,-0.39247266422012034
1.7060758070460662,5.844175997574709,-0.030833408695108797,1.1983270624015578,-0.3795754824683668
1.6996802648875828,5.594541551381809,-0.030076516623780955,1.179143853721315,-0.36720192723052086
1.6934415437294066,5.348902469337784,-0.029339875358848824,1.1602759752693905,-0.3553249748476902
1.6873554549947172,5.1071935986611265,-0.028622874495335387,1.1417132692701908,-0.3439192582064112
1.6814179368686548,4.869351876833569,-0.027924917181451323,1.1234459862303432,-0.33296094883795624
1.6756250513996958,4.635316248047356,-0.027245420618158205,1.1054647641145299,-0.322427648536606
1.6699729815112625,4.405027583893588,-0.026583816414540946,1.087760608778507,-0.3122982896389007
1.664458027951617,4.178428608036871,-0.025939550820176425,1.0703248755711758,-0.3025530431911201
1.6590766062059474,3.955463824639317,-0.02531208485286704,1.0531492520245773,-0.29317323430824543
1.653825243390942,3.7360794503132446,-0.0247008943376628,1.0362257415570704,-0.2841412640955019
1.6487005751490351,3.520223349397071,-0.024105469870972916,1.0195466481207733,-0.2754405375642195
1.6436993425568018,3.3078449723627763,-0.023525316721724015,1.003104561729664,-0.2670553970280092
1.6388183890596293,3.0988952971761528,-0.02295995467991989,0.9868923448095923,-0.2589710605138578
1.6340594285050707,2.8934672978566773,-0.022363479173019698,0.969564791566353,-0.2779187688766697
1.629422024174854,2.691666212839621,-0.021802276352850945,0.9523503038341957,-0.298718853188235
1.6248988139727052,2.49346862706982,-0.021275916048568124,0.9352457511162828,-0.32126232715330655
1.620482534370756,2.29885177015748,-0.0207838896842797,0.9182481242393279,-0.3454431068979706
1.6161660360939019,2.1077934914242995,-0.02032561771433233,0.9013545303623978,-0.3711577759108008
1.6119422983073848,1.9202722359560305,-0.019900456442973873,0.8845621883830366,-0.3983053571407462
1.6078044414322346,1.7362670215797493,-0.01950770427274413,0.8678684247244137,-0.42678709133907916
1.6037457387042682,1.5557574166872818,-0.019146607422173074,0.8512706694895638,-0.4565062207550173
1.5997596265842073,1.3787235188289095,-0.01881636514983613,0.8347664529711083,-0.4873677773107455
1.5958397141190321,1.205145934003692,-0.018516134518497693,0.8183534025071546,-0.519278374391514
1.591979791347946,1.0350057565744208,-0.018245034729941188,0.802029239676377,-0.5521460013902363
1.5881738368402005,0.8682845497365008,-0.018002151058112016,0.7857917778276338,-0.5858798201434345
1.5844160244465355,0.7049643264707015,-0.017786538405364094,0.7696389199418804,-0.6203899623863054
1.580700729341065,0.5450275309100086,-0.017597224503878413,0.7535686568266394,-0.6555873273388472
1.5770225334260806,0.38845702005038873,-0.017433212781689175,0.7375790656459155,-0.6913833785120767
1.5733762301684335,0.23523604573448864,-0.017293484910186653,0.7216683087912324,-0.727689938792966
1.5697568289328825,0.08534823683564952,-0.01717700304744204,0.7058346331024634,-0.7644189828283537
1.5661595588750357,-0.061222418432400616,-0.017082711789194002,0.6900763694503678,-0.801482425681165
1.5625798724543039,-0.20449159015780083,-0.017009539836823913,0.6743919326962956,-0.838791906676137
1.5590134486255818,-0.3444746244059971,-0.01695640138910051,0.6587798220484274,-0.8762585672861388
1.5554561957672302,-0.4811865610140984,-0.01692219726186645,0.6432386218382556,-0.9137928218332345
1.5519042544023347,-0.614642151595433,-0.016905815737138667,0.6277670027458594,-0.9513041196899185
1.5483539997702067,-0.744855877852082,-0.016906133140268773,0.6123637235079699,-0.9887006975643999
1.5448020443056922,-0.8718419703010625,-0.016922014140822644,0.5970276331489688,-1.0258893203383135
1.5412452400850927,-0.9956144275288068,-0.016952311769650796,0.5817576737819271,-1.0627750087945789
1.5376806812994546,-1.1161870360995536,-0.016995867141188725,0.5665528840347196,-1.0992607524261213
1.534105706818668,-1.233573391255554,-0.01705150886630075,0.5514124031652887,-1.1352472053515832
1.5305179029133313,-1.3477869185616598,-0.01711805213690693,0.5363354759404733,-1.1706323631809152
1.5269151062057453,-1.4588408966637019,-0.017194297459149212,0.5213214583646611,-1.2053112184709645
1.5232954069268114,-1.5667484813495918,-0.017279029006890344,0.5063698243581157,-1.239175392188392
1.5196571525620968,-1.671522731124739,-0.017371012561818246,0.4914801735004213,-1.272112738354658
1.5159989519780788,-1.7731766345393822,-0.017468993000259787,0.4766522399723972,-1.3040069187866403
1.5123196801286634,-1.8717231395357743,-0.01757169127988711,0.4618859028503692,-1.3347369445695174
1.5086184834527459,-1.967175185117732,-0.017677800871707474,0.44718119793020333,-1.3641766806110796
1.5048947860859547,-2.0595457356853686,-0.017785983573923404,0.4325383312853725,-1.392194309337321
1.5011482970240946,-2.1488478184236897,-0.017894864634267794,0.417957694793876,-1.418651749311903
1.4973790183924103,-2.2350945641869018,-0.0180030270960581,0.40343988390337576,-1.4434040243181665
1.4935872549939502,-2.318299252380733,-0.018109005270228733,0.38898571794262665,-1.4662985782639932
1.489773625332405,-2.3984753604143734,-0.018211277220680434,0.3745962633301376,-1.4871745312047653
1.4859390743302656,-2.475636618372185,-0.018308256133026685,0.36027286007759424,-1.5058618718983756
1.4820848879925466,-2.5497970696439936,-0.018398280416679846,0.3460171520348742,-1.522180582711789
1.478212710300317,-2.6209711383518695,-0.018479602366456408,0.3318311213734468,-1.5359396935413705
1.4743245626577897,-2.6891737045205346,-0.018550375181423596,0.3177171278519119,-1.5469362629078565
1.4704228662628216,-2.7544201880567343,-0.018608638103988065,0.30367795344522247,-1.5549542868594959
1.4665104678250214,-2.816726642726934,-0.01865229939887073,0.28971685293764277,-1.5597635402260264
1.4625906691203638,-2.876109861446956,-0.018679116835962024,0.27583761106256355,-1.5611183607846242
1.4586672609495146,-2.9325874943114414,-0.018686675267363284,0.2620446066944681,-1.5587563960067212
1.4547445621636983,-2.986178180878454,-0.01867236078803111,0.24834288441996205,-1.5523973456801643
1.4508274645441648,-3.036901698257381,-0.018633330826572557,0.23473823347460984,-1.5417417539282683
1.4469214844804748,-3.084779126483049,-0.018566479303809363,0.221237273436538,-1.5264699340143133
1.443032822606944,-3.1298330324266317,-0.01846839568219713,0.20784754507380446,-1.5062411532491844
1.4391684328547245,-3.1720876729886527,-0.018335316243702753,0.19457760313588998,-1.4806932697184916
1.435336102806413,-3.2115692173788304,-0.018163065168787105,0.18143710534199317,-1.4494431066157134
1.4315445478784825,-3.2483059866678943,-0.01794698176388634,0.16843688788719174,-1.4120879867161282
1.427803522832534,-3.2823287061361697,-0.01768182819752637,0.1555890118106648,-1.3682090468203836
1.4241239556422165,-3.3136707617229675,-0.017361668853118004,0.14290675568262182,-1.317377233130289
1.4205181111718208,-3.342368445379961,-0.016979707055412154,0.13040451724111918,-1.259163270800073
1.4169997960398213,-3.3684611644286306,-0.01652805610648776,0.1180975689366849,-1.1931534286147663
1.4135846224077073,-3.391991576103976,-0.0159974070565009,0.10600158987614684,-1.1189735631598026
1.410290358815414,-3.4130055896591713,-0.015376531917722645,0.09413187255425137,-1.036324649814193
1.4071374130845165,-3.4315521555272,-0.014651522662253785,0.08250208809361315,-0.9450335210943874
1.404149519691706,-3.4476827390773366,-0.013804604888323696,0.07112251714575468,-0.8451221438251263
1.4013547482443678,-3.461450370072903,-0.012812266038704615,0.05999777805012282,-0.7368959894699937
1.3987870221655956,-3.4729082016947928,-0.01164226804484054,0.04912442787261319,-0.6210442652343331
1.3964884640630784,-3.4821076706722494,-0.010248761502944563,0.0384895623889036,-0.49872873513345906
1.3945131527657577,-3.489096735850275,-0.0085637270429667,0.028072963116132384,-0.3716130732053672
1.3929336391964764,-3.493919505657068,-0.0064792593311406264,0.01785817790092479,-0.24176087360436446
1.3918546553325075,-3.49662075430669,-0.0037967774685620918,0.00786799971452598,-0.11133169561252812
