x,y,v_x,v_y,omega
2.375,32.48,0.0,2.4615384615384617,-7.26530612244898
2.3735906621190175,31.968556458743766,-0.01342226553316511,2.4093524075685067,-6.865500626823913
2.369543318530934,31.46787196059332,-0.025123863877157572,2.3590713843404973,-6.498220392814702
2.363197160604949,30.977559339197754,-0.03531573541793474,2.3105726289505952,-6.15995764722944
2.3548500927217337,30.49725595729128,-0.044180149184116245,2.263745293968227,-5.847662269206998
2.344764287002993,30.02662137391474,-0.051875143375319774,2.218488833427372,-5.558671996355206
2.3331708884261504,29.565335321430663,-0.058538176404132655,2.174711666420999,-5.290654877654876
2.3202740192165696,29.11309593993612,-0.06428914940139799,2.1323300620984535,-5.041561528061879
2.306254201523159,28.669618227138724,-0.06923292386917845,2.0912672026386367,-4.809585288889779
2.2912712943098192,28.234632669872838,-0.07346143054358167,2.0514523903698314,-4.593128810223378
2.275467022397482,27.807884029773504,-0.0770554448120113,2.0128203724809337,-4.390775884242237
2.2589671614189006,27.389130260618796,-0.0800860883173365,1.975310762325843,-4.201267597792065
2.2418834311897484,26.97814153881155,-0.08261610434125395,1.9388675406003155,-4.023482057631362
2.2243151409834363,26.57469939163488,-0.08470094524267348,1.9034386229870197,-3.856417086060499
2.206350622922942,26.17859591045863,-0.08638970295250734,1.8689754834534484,-3.6991753979974207
2.1880684837941318,25.789633038131747,-0.08772590779806769,1.8354328244216227,-3.5509518602812724
2.169538700755001,25.407621921470586,-0.08874821638413119,1.8027682866370598,-3.411022505479298
2.150823582444224,25.032382321125063,-0.08949100562327013,1.7709421928441094,-3.278735029809106
2.131978613710098,24.663742072234566,-0.08998488708269256,1.739917320398711,-3.1535005510457825
2.11305319945465,24.301536590221474,-0.09025715344538122,1.7096586987736233,-3.034786439810454
2.09409132081283,23.94560841684956,-0.09033216695290792,1.6801334285779308,-2.9221100682404173
2.07513211498059,23.595806802327097,-0.09023169811604284,1.6513105192550241,-2.815033345120335
2.0562103884022678,23.25198731978331,-0.08997522167749998,1.6231607430667665,-2.7131579272007267
2.0373570716740135,22.914011508911013,-0.08958017573444879,1.5956565033360604,-2.616121013500924
2.018599623373327,22.581746545962517,-0.08906218903398865,1.5687717152210587,-2.5235916435654007
1.999962389050339,22.255064937622176,-0.08843528070875543,1.5424816975440678,-2.4352674324524366
1.9814669207859208,21.933844236567374,-0.08771203609522875,1.516763074406441,-2.35087168511164
1.9631322620119074,21.617966776777706,-0.08690376175251932,1.4915936854951637,-2.270150841096467
1.945002565995668,21.307328455096105,-0.08576000983071251,1.4668665209962823,-2.1858479588854527
1.9271168857789158,21.001828943219593,-0.08457980175740297,1.4426526397324073,-2.105561507347679
1.9094822009671257,20.70136247888272,-0.08336957740250224,1.4189327349044465,-2.0290509029445447
1.8921042128657346,20.405827254444944,-0.08213507118217497,1.3956884502172318,-1.9560927305258846
1.8749874848209658,20.115125223572562,-0.08088138638705311,1.372902319995939,-1.8864793216870874
1.8581355678067584,19.829161920012396,-0.07961306136730387,1.3505577139103933,-1.8200174668862714
1.8415511128682893,19.54784628753403,-0.07833412852287806,1.3286387858836206,-1.7565272472296711
1.8252359718458506,19.271090520201554,-0.07704816692891786,1.3071304268065855,-1.6958409734775823
1.8091912876393108,18.998809912211158,-0.07575834932384098,1.2860182207210045,-1.637802221256701
1.7934175751299395,18.730922716597895,-0.07446748409874304,1.265288404167224,-1.582264952716917
1.7779147937503708,18.467350012175704,-0.07317805284953106,1.2449278284250707,-1.5290927159666121
1.7626824125826424,18.20801557812877,-0.07189224398597897,1.2249239244028711,-1.4781579145814976
1.7477194687666193,17.9528457757213,-0.07061198283328722,1.2052646699540004,-1.4293411403261522
1.7330246199150166,17.701769436636848,-0.06933895861055067,1.1859385594217227,-1.382530562970155
1.7185961911552015,17.454717757498194,-0.06807464862578226,1.1669345752321336,-1.337621371735315
1.7044322173507604,17.211624200154763,-0.06682033998794214,1.1482421613719556,-1.294515263488369
1.6905304809963115,16.972424397357386,-0.06557714910204619,1.1298511986030575,-1.253119973304432
1.6768885462263565,16.73705606346976,-0.06434603918323949,1.1117519812790948,-1.213348843478882
1.663503789332203,16.505458909893072,-0.06312783599917593,1.0939351956417602,-1.1751204274665386
1.6503734261394887,16.27757456490476,-0.06192324202667624,1.0763918994850052,-1.1383581255832482
1.6374945365619435,16.053346497634873,-0.06073284918803748,1.0591135030853427,-1.1029898496217887
1.6248640866142097,15.832719945923873,-0.05955715031419012,1.0420917513051275,-1.0689477138161085
1.6124789481373067,15.615641847824552,-0.0583965494658393,1.0253187067836318,-1.0361677498394342
1.6003359164642936,15.402060776527794,-0.05725137122952433,1.0087867341378762,-1.0045896437463329
1.588431726230433,15.191926878507644,-0.05612186909295616,0.99248848510165,-0.9741564929695308
1.5767733382032385,14.985348802303903,-0.054910397832705134,0.9749217644577738,-0.97456904644596
1.565365061954675,14.782446635221739,-0.05373985215361433,0.95747982680093,-0.9773674847141759
1.5541983430370043,14.583194554241118,-0.05260985182420171,0.9401590396811836,-0.9824183021760564
1.5432647173454976,14.387567483035454,-0.05151991666633804,0.922955924182282,-0.9895920460871317
1.5325558311440086,14.19554106044665,-0.05046947572879452,0.9058671480920302,-0.998763011251958
1.5220634592421338,14.0070916103376,-0.049457875717634395,0.8888895196132233,-1.0098089466202722
1.5117795214743381,13.82219611271141,-0.048484388737561585,0.872019981588586,-1.0226107725280804
1.5016960976205314,13.640832175991878,-0.04754821939393196,0.8552556062164639,-1.03705230738266
1.4918054408975603,13.462978010364246,-0.046648511301030475,0.8385935902371751,-1.0530200026367051
1.4820999901419212,13.288612402079178,-0.04578435303838841,0.8220312505729963,-1.0704026849348958
1.4725723807955908,13.117714688626197,-0.044954783593330286,0.805566020407758,-1.0890913043463062
1.4632154547992111,12.950264734685408,-0.04415879732457134,0.7891954456949833,-1.1089786876184924
1.4540222694898877,12.786242908768354,-0.043395348478508636,0.7729171820864718,-1.1299592954039572
1.4449861055945266,12.62563006046027,-0.04266335528683666,0.7567289922762178,-1.1519289824170342
1.4361004744039274,12.468407498176717,-0.04196170367124843,0.7406287437576152,-1.17478475947906
1.4273591242077321,12.314556967347688,-0.04128925057823271,0.7246144069950583,-1.198424556401942
1.4187560460657636,12.164060628941698,-0.04064482696432464,0.7086840540143597,-1.222746984644754
1.4102854789873027,12.016901038241102,-0.04002724044958836,0.6928358574198925,-1.2476510986545961
1.4019419145863645,11.873061123777752,-0.039435277654584586,0.6770680898500926,-1.2730361547714248
1.3937201012781073,11.73252416633536,-0.03886770623358037,0.6613791238869684,-1.298801366536586
1.385615048079083,11.595273777921069,-0.03832327661426952,0.6457674324396209,-1.324845655196076
1.3776220280721492,11.46129388060412,-0.03780072345176688,0.6302315896265395,-1.3510673941317686
1.369736581595494,11.330568685113732,-0.037298766802092105,0.6147702721866855,-1.3773641458866837
1.3619545192144114,11.203082669081336,-0.03681611301774237,0.5993822614551769,-1.4036323903735395
1.354271924534198,11.078820554804228,-0.036351455365240246,0.5840664459458446,-1.4297672427691637
1.3466851569128693,10.95776728639795,-0.035903474361701354,0.5688218245901282,-1.4556621595008066
1.339190854133322,10.839908006193554,-0.03547083782446312,0.5536475106898447,-1.4812086306242362
1.331785935096169,10.725228030222826,-0.03505220062461317,0.5385427366503976,-1.5062958567783111
1.3244676025967443,10.613712822619565,-0.03464620413181224,0.5235068595711416,-1.5308104087776984
1.3172333462528263,10.50534796874759,-0.03425147533407465,0.5085393677810084,-1.554635867776529
1.3100809456534783,10.400119146846453,-0.0338666256120956,0.4936398884202748,-1.5776524438041981
1.3030084738041685,10.298012097963039,-0.03349024914323607,0.4788081961836592,-1.5997365703450335
1.29601430094907,10.199012593911387,-0.03312092090531951,0.464044223355884,-1.6207604725132578
1.2890970988583001,10.103106402973722,-0.03275719424487028,0.44934807128854803,-1.6405917062738864
1.2822558456759252,10.010279253022325,-0.032397597968223585,0.43472002348664757,-1.6590926660937593
1.2754898314340348,9.920516791704323,-0.03204063290692294,0.42016056049432055,-1.6761200583958977
1.2687986643492222,9.833804543289244,-0.03168476790081686,0.40567037679216145,-1.691524338264633
1.2621822780306673,9.750127861732121,-0.031328435133038526,0.3912503999423213,-1.7051491070504787
1.2556409397439685,9.669471879452793,-0.03097002474028358,0.37690181224176056,-1.7168304689114708
1.249175259892288,9.591821451274864,-0.03060787860905356,0.36262607516709294,-1.7263963449843074
1.2427862028967531,9.517161092906324,-0.030240283253184185,0.3484249569142508,-1.733665744919812
1.2364750996820097,9.445474913278655,-0.02986546164913291,0.33430056334927044,-1.7384479971050228
1.2302436620012571,9.376746539994787,-0.029481563881844104,0.3202553726875678,-1.7405419412555032
1.2240939988691866,9.310959037071576,-0.02908665642358988,0.3062922742001687,-1.7397350905142903
1.2180286354127632,9.248094814105134,-0.028678709828061838,0.2924146111945355,-1.735802775184225
1.2120505345012078,9.188135525945903,-0.028255584567703437,0.27862622841717366,-1.728507287374008
1.2061631215815645,9.131061961957958,-0.027815014666995954,0.26493152384897467,-1.7175970560333413
1.20037031323038,9.076853923973545,-0.027354588677618075,0.251335504573995,-1.7028058963203552
1.1946765500436187,9.02549009216932,-0.02687172738677606,0.23784384594240895,-1.6838523977085507
1.1890868346386823,8.976947878328836,-0.02636365742214224,0.22446295253839227,-1.6604395441028967
1.183606775753873,8.931203266381452,-0.025827379576040567,0.21120001838908348,-1.6322546998197136
1.1782426397320522,8.888230640814296,-0.025259630155586892,0.19806308225051233,-1.5989701521372153
1.1730014111136378,8.84800260467474,-0.024656832876931812,0.1850610714595305,-1.5602444803310551
1.167890864712731,8.810489790603683,-0.02401503760789386,0.17220382445531504,-1.5157251305510897
1.16291965252338,8.775660670920598,-0.023329840385926198,0.1595020772883589,-1.4650527251561998
1.1580974102788548,8.743481376555447,-0.02259627622860031,0.14696739285592603,-1.4078678344772986
1.1534348907414271,8.713915539997615,-0.02180867174690127,0.1346120029329641,-1.3438211961571678
1.1489441342580606,8.68692418483488,-0.020960437618494577,0.1224485224264257,-1.2725886793496786
1.1446386924231546,8.66246569416749,-0.020043770332991782,0.1104894839296702,-1.1938926268064745
1.140533928804855,8.640495901944824,-0.0190492165079572,0.09874663247666428,-1.107531471166109
1.1366474330264076,8.620968363443335,-0.01796502900106605,0.087229924680367,-1.0134194850542624
1.1329996031077767,8.60383486904069,-0.016776208319228623,0.07594621248770557,-0.9116377230970919
1.1296144790360068,8.589046258742208,-0.01546306855477036,0.0648976951168745,-0.8024948249487434
1.1265209538923626,8.576553553489866,-0.013999075670410952,0.054080450143537746,-0.6865911933740394
1.123754562004192,8.566309309050482,-0.012347513740737108,0.04348378261250472,-0.5648711162110353
1.1213601923916603,8.558268866561,-0.010456006378611504,0.03309186014444324,-0.43863542660332533
1.119396467751772,8.55239072508327,-0.008246133048894894,0.022890439643460107,-0.3094774534262592
1.1179438820168788,8.548634250733418,-0.00558801680723078,0.012885506545623517,-0.17910716244041636
1.1171255359640322,8.546948885849876,-0.002205755124640495,0.003165587583363435,-0.04906034203187462
