x,y,v_x,v_y,omega
2.375,32.48,0.0,3.5384615384615383,-5.183673469387755
2.3731383600775624,31.67815672099494,-0.016188173238589468,3.4340887137563314,-4.753638802897878
2.367904487590028,30.899671516012717,-0.02932376143561813,3.3353478513064925,-4.377701599407909
2.3599365234986167,30.143304036134143,-0.039962882837526595,3.2417606693767493,-4.047168880835254
2.3497572943572007,29.407917452996166,-0.048552153174784674,3.1529052709534944,-3.7549857099980732
2.3377967811344273,28.692466508326092,-0.05545230963194263,3.068407291394972,-3.4953859167406582
2.324409796324685,27.99598739460115,-0.060956253931034696,2.987932827952354,-3.263625546030333
2.309889987325493,27.317589107419376,-0.06530295475759186,2.91118271275872,-3.055777509845548
2.2944809993972424,26.656445996579517,-0.06868824461849712,2.837887816283528,-2.8685720258378593
2.2783854257862433,26.011791305040003,-0.07127326504236725,2.767805153625309,-2.699271652421828
2.261772022002473,25.382911530472754,-0.07319111568607144,2.7007146252203085,-2.5455727028726534
2.244781549784051,24.769141478059804,-0.07455212099585601,2.6364162653270964,-2.405526940559226
2.2275315329645577,24.169859898859833,-0.07544802526060623,2.5747279016291724,-2.2774789870002685
2.2101201446270227,23.58448562778969,-0.07595535158752796,2.515483151154691,-2.160015990372623
2.1926293971627313,23.012474150609968,-0.07613810462370083,2.45852969388638,-2.0519269244099028
2.1751277702747047,22.45331454139215,-0.07604995527217971,2.403727777572902,-1.9521694991074994
2.1576723837655476,21.906526721575666,-0.07573601437266743,2.350948916483469,-1.8598431231768884
2.1403108000725073,21.37165899947535,-0.07523427861029232,2.300074753954039,-1.7741667047044718
2.123082524442328,20.84828585539823,-0.07457681382604645,2.2509960641078797,-1.6944603402305558
2.106020257246071,20.336005942689532,-0.07379072701097276,2.2036118724894944,-1.6201301445958842
2.089150942373191,19.83444027928967,-0.07289896753580967,2.1578286788136647,-1.550655629792539
2.072496647275746,19.343230607928064,-0.07192098983327619,2.1135597678089733,-1.4855791620037804
2.0560753035719985,18.862037906046112,-0.07087330324278912,2.0707245963819387,-1.4244971203884556
2.0399013317926036,18.39054102903887,-0.06976992962151764,2.029248247159286,-1.367052455196693
2.023986169576549,17.928435472519084,-0.06862278530069468,1.989060939969303,-1.3129284011764837
2.0083387191773774,17.47543224110508,-0.06744200077905607,1.9500975940655085,-1.2618431484823613
1.992965727351522,17.031256812770767,-0.06623618901099212,1.9122974349285053,-1.2135453101161244
1.9778721084360456,16.595648189114304,-0.06501267112358632,1.8756036403450864,-1.167810054370406
1.9630612195777188,16.168358023037896,-0.06377766677490601,1.839963021188882,-1.1244357943884167
1.948535095566574,15.749149816313182,-0.0625364550611389,1.805325732939067,-1.0832413460177062
1.934294649489473,15.337798180358522,-0.061293510826693286,1.771645014492744,-1.044063480569784
1.9203398444009487,14.93408815429597,-0.060052620377867134,1.7388769512685784,-1.0067548116400948
1.906669840368202,14.53781457500273,-0.05881697990688705,1.7069802599769774,-0.9711819653734135
1.8932831205516667,14.148781494438431,-0.057589279367333046,1.6759160927560726,-0.9372239919341155
1.8801775994053207,13.766801640026554,-0.05637177407915224,1.645647858651573,-0.9047709828193947
1.8673507156006166,13.39169591430581,-0.05516634596175425,1.6161410606592492,-0.8737228643222837
1.8547995118771705,13.023292930452914,-0.053974555981254856,1.58736314675722,-0.8439883421381567
1.8425207036882085,12.661428580619173,-0.05279768914015377,1.5592833735361806,-0.8154839759954388
1.830510738227777,12.305945634325287,-0.05163679312446775,1.5318726811932677,-0.7881333664247645
1.8187658451906223,11.956693364426894,-0.050492711546444184,1.5051035787927711,-0.7618664384785766
1.8072820804167846,11.613527198401744,-0.049366112573881855,1.478950038817226,-0.7366188094703509
1.7960743364124268,11.276310322543,-0.04809253094227587,1.4533706208240271,-0.7075519814106198
1.7851557394972501,10.9449113058031,-0.04685179005925886,1.4283599595229384,-0.6799583478430362
1.774518782349162,10.619201898039282,-0.04564348948933448,1.4038957601624362,-0.6537443233318586
1.7641560590763725,10.299058847094578,-0.04446714766535557,1.3799568567480411,-0.6288233950236596
1.7540602820905935,9.98436364740255,-0.043322217428377004,1.3565231405739446,-0.6051155040817527
1.744224295666804,9.675002304410764,-0.042208099300226634,1.3335754941372377,-0.5825464883714478
1.734641086674265,9.370865113639049,-0.041124152808806935,1.3110957299646235,-0.5610475796395247
1.7253037928951582,9.071846453291379,-0.04006970613994912,1.2890665339281548,-0.5405549492511186
1.7162057092887686,8.77784458943282,-0.03904406435039351,1.267471412668,-0.5210092972587157
1.7073402925090204,8.488761492826626,-0.03804651634307094,1.2462946447771701,-0.5023554801966049
1.6987011639401663,8.204502666602103,-0.03707634077739782,1.2255212354360596,-0.48454217353301665
1.6902821114785196,7.924976983992337,-0.036132811063008606,1.20513687421407,-0.4675215651824032
1.682077090256345,7.6500965354428025,-0.035215199564594526,1.1851278957818914,-0.4512490768913277
1.6740802224767246,7.3797764844482,-0.034322781127759175,1.165481243301591,-0.4356831106712863
1.6662857965046645,7.113934931525996,-0.033454836020589115,1.1461844342828,-0.42078481776736715
1.6586882653394488,6.8524927857815605,-0.03261065237259031,1.1272255287122928,-0.4065178879288376
1.6512822445757354,6.595373643562294,-0.031789528181438174,1.1085930992813422,-0.39284835699159437
1.6440625099458086,6.342503673736616,-0.030990772948359366,1.0902762035506302,-0.37974443099724564
1.6370239945223595,6.093811509169058,-0.030213708994677513,1.0722643579063802,-0.367176325263147
1.630161785649906,5.8492281439948215,-0.029457672504918365,1.0545475131739201,-0.35511611698520473
1.623471121663233,5.608686836326704,-0.028722014335717257,1.0371160317662191,-0.3435376101034603
1.6169473884428123,5.372123016054239,-0.028006100624462838,1.0199606662552112,-0.3324162112917862
1.610586115849891,5.139474197419641,-0.027309313227026323,1.0030725392630173,-0.32172881604953363
1.6043829740776372,4.910679896077852,-0.02663105000996303,0.9864431245786179,-0.31145370397647915
1.5983394980734027,4.685787516562559,-0.025920915244250574,0.9691427842500022,-0.32012616742889843
1.5924554655307044,4.464859605671357,-0.025244585127037217,0.9519694843691517,-0.3311337022500171
1.5867230942510866,4.247867380869675,-0.024602121652248652,0.934919426949813,-0.344347591172934
1.5811346024995538,4.03478291517019,-0.023993458795862652,0.9179889704370249,-0.35964329412301166
1.5756822371068453,3.825579102009282,-0.023418414184210454,0.9011746222665308,-0.3769001444196331
1.570358298998085,3.62022962177063,-0.02287669980501007,0.8844730319826147,-0.39600105746324427
1.5651551663595829,3.4187089098310004,-0.022367931834138644,0.8678809848837419,-0.416832250646009
1.5600653156394741,3.2209921260099605,-0.02189163964506887,0.851395396168785,-0.43928297328100335
1.5550813405631305,3.0270551253111684,-0.02144727406226844,0.835013305559856,-0.4632452453927494
1.5501959693307854,2.8368744298479847,-0.021034214914644245,0.8187318723808691,-0.48861360425136924
1.5454020801524713,2.650427201850679,-0.0206517779402609,0.8025483710739691,-0.5152848575639732
1.5406927152641021,2.467691217656199,-0.02029922108903592,0.7864601871389012,-0.5431578422602363
1.5360610935582875,2.2886448425846453,-0.019975750265874146,0.7704648134833056,-0.5721331878245274
1.5315006219541496,2.113267006608961,-0.019680524552716055,0.7545598471748319,-0.6021130831344188
1.5270049056220036,1.9415371807261295,-0.019412660944205257,0.7387429865889079,-0.6330010457648096
1.5225677571711889,1.77343535393927,-0.01917123862809697,0.723012028949016,-0.6647016927080331
1.518183204902576,1.6089420107602947,-0.018955302838100745,0.7073648682594587,-0.6971205114429117
1.5138455002212867,1.448038109142562,-0.01876386830354573,0.6917994936338798,-0.7301636302593553
1.5095491242999188,1.2907050587516409,-0.018595922317045065,0.6763139880262975,-0.7637375867092994
1.5052887940780673,1.136924699480474,-0.01845042743818616,0.6609065273751545,-0.7977490930089294
1.501059467680138,0.9866792801122095,-0.01832632384815401,0.6455753801749626,-0.8321047971605389
1.496856349330387,0.8399514370302121,-0.018222531367072373,0.630318907494573,-0.8667110384941896
1.4926748938417647,0.6967241728697431,-0.018137951142687972,0.6151355634660338,-0.9014735962486382
1.4885108107535396,0.556980834999699,-0.0180714670157893,0.6000238962734801,-0.9362974297167106
1.4843600681918172,0.42070509371531983,-0.01802194656440447,0.5849825496776488,-0.9710864083712668
1.4802188965269991,0.2878809200137553,-0.017988241825319363,0.5700102651185418,-1.0057430302628365
1.476083791902996,0.15849256281376256,-0.01796918968775138,0.5551058844466072,-1.0401681268375704
1.4719515197146484,0.032524525468105026,-0.01796361195005358,0.5402683533417432,-1.074260552162959
1.4678191181123963,-0.0900384585975047,-0.01797031502605217,0.5254967254896158,-1.1079168543674567
1.4636839016168584,-0.20921145130240149,-0.017988089282973078,0.5107901675964543,-1.1410309268974823
1.4595434649307173,-0.3250093365897371,-0.018015707987818774,0.49614796533686933,-1.1734936369702684
1.4553956870412732,-0.4374468485931047,-0.018051925833434176,0.4815695303446152,-1.2051924283532394
1.4512387357143637,-0.5465386015457341,-0.018095477009257344,0.46705440837390105,-1.2360108953303328
1.447071072489199,-0.652299121718336,-0.018145072774782223,0.45260228877918185,-1.2658283244245703
1.4428914582942154,-0.7547428817086868,-0.018199398485945012,0.43821301548472524,-1.2945192001378198
1.4386989598165099,-0.8538843374482639,-0.018257110015841956,0.423886599642046,-1.3219526706496472
1.434492956772047,-0.9497379683405498,-0.018316829501228288,0.40962323420394725,-1.3479919690983737
1.4302731502408879,-1.042318321002064,-0.01837714033493777,0.39542331067879744,-1.3724937857664217
1.4260395722515522,-1.1316400571424623,-0.018436581311458602,0.38128743836812434,-1.3953075862356468
1.4217925968216525,-1.2177180061947936,-0.01849363981810478,0.3672164664347856,-1.4162748704074357
1.4175329526886484,-1.3005672233925338,-0.018546743947148593,0.3532115091977518,-1.435228367257787
1.4132617379955175,-1.3802030540870334,-0.018594253384424723,0.3392739751022706,-1.4519911604096236
1.4089804372320507,-1.4566412052087756,-0.018634448906589694,0.3254055998693878,-1.4663757401860875
1.4046909407742758,-1.5298978248978727,-0.018665520291451382,0.31160848438361455,-1.4781829789545593
1.4003955674133608,-1.5999895914635829,-0.01868555241215891,0.2978851379268993,-1.4872010285673851
1.396097090322851,-1.6669338129764597,-0.0186925092444479,0.2842385274024632,-1.4932041419702562
1.391798766981457,-1.7307485389456971,-0.018684215463322933,0.2706721331995733,-1.4959514261958573
1.3875043736509847,-1.791452685679026,-0.018658335236439585,0.25719001230763544,-1.4951855418875493
1.383218245110084,-1.8490661770477814,-0.01861234772791236,0.24379686915980947,-1.4906313765245716
1.3789453204714244,-1.9036101024591687,-0.018543518695214978,0.23049813441747044,-1.4819947365843857
1.3746911960737136,-1.955106893829516,-0.018448867371835365,0.21730005141160846,-1.4689611308270307
1.3704621866583842,-2.003580523188795,-0.018325127544072766,0.20420976910385807,-1.4511947569016963
1.3662653963421063,-2.049056722122721,-0.01816870129312611,0.1912354390172605,-1.4283378626771093
1.3621088013270828,-2.0915632234106027,-0.017975603185339764,0.17838631131215743,-1.40001074098465
1.3580013469279713,-2.131130023695164,-0.017741391589543586,0.16567282159705782,-1.3658127446201331
1.353953062464719,-2.1677896634487297,-0.01746108200395508,0.15310665452091451,-1.3253248954339023
1.349975199087428,-2.2015775163257203,-0.01712903432031316,0.1407007618007179,-1.2781149313663793
1.3460803980188325,-2.232532073429269,-0.016738801058778157,0.12846929996927242,-1.223746018528033
1.3422829006175434,-2.2606951980206347,-0.016282915474170077,0.11642743560782434,-1.1617908831879356
1.338598818071123,-2.2861123115155806,-0.015752584929485745,0.10459094260910526,-1.0918538065030705
1.335046489052056,-2.308832451152277,-0.015137232627618978,0.09297548901431463,-1.0136037278485195
1.3316469709536567,-2.3289081136164214,-0.014423794314982252,0.08159548893474196,-0.9268224080899004
1.3284247385803976,-2.3463947711767474,-0.013595617626401326,0.07046240289418831,-0.8314716085869769
1.3254087101278447,-2.3613499310784576,-0.012630716743623685,0.05958246581632214,-0.7277811560016759
1.322633795542891,-2.373831638706818,-0.01149897529945036,0.04895412225639152,-0.6163529383138813
1.3201432921997793,-2.383896469828443,-0.01015757551021633,0.03856614836643353,-0.4982605586762028
1.31799271540445,-2.391597440923462,-0.008543092275255538,0.028398817677212376,-0.3750985550039712
1.3162563619076155,-2.3969831160205644,-0.006555633784174699,0.018433139688923614,-0.24890643616324848
1.3150406651568773,-2.400101302553786,-0.004015642309200998,0.008681525817324436,-0.12188575160328313
