x,y,v_x,v_y,omega
2.375,32.48,0.0,4.0,-6.775510204081632
2.373135470870862,31.730556690156572,-0.01962662241198207,3.888876945720266,-6.249179582000965
2.3678713236732563,31.001690419011048,-0.03578545335228407,3.78339959265367,-5.7848184646435
2.35981015986187,30.292371989374338,-0.04906890255704802,3.683110192995918,-5.373072666359992
2.3494524489163804,29.60165419981864,-0.0599596337112602,3.587603381274581,-5.006249855706637
2.3372152536785697,28.928662662104024,-0.06885294773937933,3.496518068352966,-4.677984022490201
2.3234471808106547,28.27258800509491,-0.07607413508078054,3.4095309527955875,-4.382975576451553
2.308440393995251,27.632679195168365,-0.08189204192346894,3.326351256957529,-4.1167882455416285
2.292440323130816,27.008237767280967,-0.08652975664952917,3.2467164050150887,-3.875689083736134
2.275653553165666,26.398612807387178,-0.09017308508889584,3.1703884359721504,-3.656521510195949
2.2582542652833792,25.803196561175024,-0.09297731367201689,3.0971509978399765,-3.4566038764994786
2.240389519977235,25.221420569711867,-0.09507263691897518,3.0268068070353533,-3.273647918801144
2.2221836085672337,24.65275225202754,-0.09656853581788043,2.9591754843786218,-3.1056928115871356
2.2037416515967085,24.09669186959769,-0.09755732702975146,2.8940916990934973,-2.9510515444846446
2.185152585494812,23.552769819312317,-0.09811705299020938,2.8314035670682935,-2.808267093284975
2.166491650156025,23.020544210664372,-0.09831384531281019,2.7709712608048265,-2.676076420707149
2.147822467655578,22.49959869017524,-0.09820386521821335,2.7126657969755086,-2.553380770748664
2.1291987847020915,21.989540481928316,-0.09783490271322673,2.656367974044769,-2.43922104798998
2.110665937515185,21.489998617832104,-0.09724769925420737,2.6019674374942823,-2.332757325411152
2.0922620867704023,21.0006223351225,-0.09647704542771861,2.5493618541857503,-2.2332517197315465
2.0740192614426674,20.521079621821293,-0.09555269486422692,2.4984561805637853,-2.14005402568419
2.0559642433185803,20.051055893533626,-0.09450012749458328,2.449162011937995,-2.052589620147388
2.0381193182650543,19.59025278719707,-0.09334118885832061,2.401397002131017,-1.9703492412806474
2.020502915749503,19.138387059272333,-0.09209462709485296,2.355084344445178,-1.892880322478706
2.003130154381281,18.69518957745479,-0.09077654520221783,2.3101523062657634,-1.8197796204121726
1.986013308210625,18.260404396338725,-0.08940078290995161,2.2665338107454476,-1.7506869239829896
1.9691622060426195,17.83378790862267,-0.08797923991116084,2.2241660599498556,-1.6852796692344132
1.9525845739914875,17.41510806443801,-0.08652215010075381,2.1829901946255337,-1.6232683160846861
1.9362863298289044,17.00414365223985,-0.08503831476854261,2.142950986407714,-1.5643923677271672
1.9202718363008233,16.600683635441406,-0.08353530131652087,2.103996558839047,-1.5084169338476126
1.9045441194459356,16.204526539617888,-0.08201961294545447,2.066078134040101,-1.4551297553844598
1.8891050570016197,15.815479885668196,-0.08049683383681891,2.0291498022724292,-1.404338622134708
1.8739555411948987,15.433359664814493,-0.0789717536023477,1.993168311977092,-1.3558691256669437
1.8590956195580992,15.057989851750975,-0.07744847415343768,1.9580928781652156,-1.3095626992052325
1.8445246168585594,14.689201952632708,-0.07593050163119149,1.9238850072902134,-1.2652749037604423
1.8302412407701913,14.326834584929884,-0.07442082561478879,1.8905083369500282,-1.2228739261030845
1.8162436735266654,13.970733086468673,-0.07292198747495758,1.8579284889574612,-1.1822392594300974
1.8025296514690319,13.62074915124196,-0.07143613944750044,1.8261129344816396,-1.1432605419674484
1.7890965341244565,13.276740489805984,-0.06996509575855549,1.7950308701075883,-1.105836532424901
1.7759413642190465,12.938570512286024,-0.06851037692997068,1.7646531037867208,-1.0698742043036493
1.7630609198295262,12.606108032198954,-0.06707324822287528,1.7349519497613983,-1.0352879436534195
1.75045175971007,12.27922698946547,-0.06565475303456009,1.7059011316436723,-1.001998837066057
1.738110262687156,11.95780619113252,-0.06425574194347981,1.6774756929137278,-0.9699340385455475
1.726032661892929,11.641729068458716,-0.06287689799575273,1.649651914178929,-0.939026205465659
1.7142150745029545,11.330883449134618,-0.06151875874082129,1.622407236601048,-0.9092129951619631
1.7026535275546966,11.025161343516476,-0.060181735451367284,1.5957201909583494,-0.8804366148428302
1.6913439803462205,10.724458743848576,-0.0588661299010111,1.5695703318616723,-0.8526434184755882
1.6802823438486296,10.428675435536135,-0.05757214902099892,1.543938176690326,-0.8257835451354805
1.6694644975089448,10.137714819609311,-0.0562999177125245,1.5188051488551984,-0.7998105940180962
1.6588863037711894,9.851483745589874,-0.055049490053323435,1.494153525033599,-0.7746813319287251
1.6485529417618374,9.569894086355252,-0.05372274162406486,1.4699481511203427,-0.7477208594344051
1.6384685219946236,9.292860750790194,-0.05242904539923938,1.4461922232486772,-0.7219432429129704
1.628626828935821,9.020299818836545,-0.05116772364078674,1.4228702183686848,-0.6972829609138987
1.619021777985929,8.752130254973775,-0.0499380758317606,1.3999672959762743,-0.6736788091005127
1.6096474192172996,8.48827378212788,-0.04873938489065585,1.377469260296314,-0.651073570395569
1.6004979400144503,8.228654762528826,-0.04757092250775777,1.355362524956878,-0.6294137137019793
1.5915676667730954,7.97320008506135,-0.0464319537170327,1.3336340799639173,-0.6086491184368055
1.5828510657937551,7.721839058688563,-0.0453217408023354,1.312271460802265,-0.588732822410718
1.5743427434882589,7.474503311559481,-0.04423954662394248,1.291262719503873,-0.569620790845015
1.5660374460021504,7.23112669544053,-0.043184637440357845,1.2705963975377115,-0.5512717045483629
1.5579300583426963,6.991645195137586,-0.042156285290737415,1.2502615003880069,-0.5336467654793384
1.5500156030905563,6.755996842599359,-0.04115376999494511,1.2302474736985898,-0.516709518101845
1.5422892387630411,6.524121635415231,-0.04017638082100666,1.2105441808711777,-0.5004256851013237
1.53474625788802,6.295961459441088,-0.03922341786342415,1.1911418820145494,-0.48476301617281364
1.5273820848398139,6.071460015305469,-0.03829419317032533,1.1720312141498648,-0.4696911487194442
1.5201922734816322,5.850562748565665,-0.0373880316526383,1.1532031725849339,-0.45518147941370196
1.5131725046532223,5.633216783299272,-0.03650427180430992,1.1346490933771138,-0.44120704567542257
1.506318583537213,5.419370858931423,-0.03564226625894519,1.1163606368107801,-0.427742416211307
1.499626436933132,5.208975270111399,-0.034801382205064006,1.0983297718210392,-0.4147635898420964
1.4930921104641088,5.001981809464844,-0.03398100167939207,1.0805487613005744,-0.40224790191642984
1.4867117657378253,4.798343713059317,-0.0331805217551713,1.0630101482312977,-0.39017393767580677
1.480481677480251,4.598015608431595,-0.032399354640347766,1.0457067425868458,-0.3785214519938167
1.4743982306580479,4.400953465035027,-0.0316369276986322,1.028631608955974,-0.3672712949656114
1.4684579176032222,4.207114546974356,-0.030892683404796447,1.0117780548405646,-0.3564053428711316
1.4626573351515733,4.016457367903897,-0.03016607924413895,0.9951396195853447,-0.34590643407842997
1.4569996465735384,3.829142369352752,-0.0293885373667563,0.9765972072688205,-0.3779732875266502
1.451485066229543,3.645340194997349,-0.028659676780561687,0.95816252278805,-0.411476523751663
1.446104482875985,3.4650306423216293,-0.027978042730575803,0.9398327685353143,-0.4463094881846801
1.440849063689286,3.288194029970761,-0.027342159234679798,0.9216052562106537,-0.4823675239373203
1.4357102579527732,3.1148111773087948,-0.026750532728611554,0.9034774033890061,-0.5195477367779764
1.430679800087469,2.9448633845926047,-0.02620165532722115,0.8854467304656269,-0.5577487635083042
1.425749712097284,2.778332413690805,-0.025694007727358317,0.8675108579743651,-0.5968705427420288
1.420912305494564,2.61520046927701,-0.02522606177495642,0.849667504276105,-0.6368140870812113
1.4161601827679067,2.455450180427114,-0.02479628271617284,0.8319144836175301,-0.6774812556701727
1.4114862384506375,2.2990645825499314,-0.024403131149820508,0.8142497045633372,-0.7187745260840872
1.4068836598453076,2.146027099579637,-0.024045064695755645,0.796671168808191,-0.7605967644774185
1.402345927457033,1.9963215263569403,-0.02372053939134773,0.7791769703780888,-0.8028509928763442
1.3978668151864206,1.849932011123748,-0.023428010825623753,0.7617652952344703,-0.8454401524484771
1.3934403903312647,1.706843038053126,-0.023165935018123068,0.7444344212984062,-0.8882668615218191
1.389061013445088,1.5670394097327005,-0.022932769046893564,0.7271827189166015,-0.9312331670521257
1.3847233381000326,1.430506229515018,-0.022726971427373958,0.7100086517958445,-0.9742402881527776
1.3804223106015268,1.2972288836428056,-0.022547002241108376,0.6929107784379832,-1.0171883502027788
1.3761531697026437,1.1671930230504017,-0.02239132301029247,0.6758877541136474,-1.0599761079354588
1.3719114463671194,1.0403845447347209,-0.022258396311016136,0.6589383334198535,-1.1025006557815997
1.367692963631676,0.9167895725797592,-0.022146685114703846,0.6420613734744752,-1.14465712359467
1.363493836620636,0.7963944375077823,-0.0220546518436116,0.6252558378094881,-1.1863383557212874
1.3593104727688774,0.6791856568175483,-0.021980757122266718,0.6085208010350827,-1.227434571195561
1.3551395723130366,0.5651499125551673,-0.02192345820237336,0.591855454358388,-1.2678330026303661
1.350978129115592,0.4542740287459992,-0.021881207033885384,0.5752591120539016,-1.3074175111508652
1.3468234318921615,0.3465449472960671,-0.021852447949593318,0.5587312189980355,-1.3460681744651766
1.3426730659191133,0.2419497023484638,-0.021835614924596968,0.5422713593977833,-1.3836608448941914
1.3385249153065693,0.14047539285362376,-0.021829128365340924,0.525879266863706,-1.420066673888537
1.3343771659312023,0.04210915308151186,-0.021831391375363392,0.5095548360006126,-1.4551515992487274
1.3302283091340832,-0.05316187923155269,-0.021840785436417435,0.4932981357158621,-1.488775790940506
1.3260771463013923,-0.14535059744973466,-0.021855665434013575,0.4771094244755514,-1.5207930510710768
1.3219227944603364,-0.23446996371338003,-0.021874353945520408,0.4609891677733664,-1.5510501632789928
1.3177646930393423,-0.3205330501728625,-0.021895134696523884,0.44493805811591697,-1.5793861865150423
1.313602611960866,-0.40355308429172965,-0.021916245076912737,0.42895703787214046,-1.605631687989934
1.30943666125734,-0.48354349880095526,-0.021935867591781105,0.4130473253828309,-1.6296079099911254
1.3052673024263104,-0.5605179869663317,-0.021952120103267952,0.39721044477905393,-1.6511258654056418
1.3010953617702585,-0.6344905639216663,-0.021963044697278982,0.3814482600139776,-1.6699853572453023
1.2969220460006496,-0.7054756349215623,-0.021966594982814742,0.3657630136691497,-1.6859739184263225
1.2927489604252684,-0.7734880714793135,-0.021960621600145624,0.3501573711493145,-1.698865669755836
1.2885781300840784,-0.838543296476125,-0.021942855675538053,0.33463447092242243,-1.7084200968859204
1.2844120242532688,-0.9006573794545432,-0.021910889911931193,0.31919798148199374,-1.7143807514388605
1.28025358480208,-0.9598471434357805,-0.021862156942688508,0.30385216568894285,-1.716473888354148
1.2761062589657193,-1.0161302847169509,-0.021793904492686655,0.2886019530601843,-1.7144070618786715
1.2719740371951003,-1.0695255071924663,-0.021703166776986763,0.273453020366312,-1.7078677181520783
1.2678614968678037,-1.1200526727757207,-0.021586731405081848,0.258411880510036,-1.6965218454175646
1.2637738528063855,-1.1677329694266092,-0.021441100820373243,0.24348597897298718,-1.6800127770006839
1.2597170157687403,-1.2125890980468483,-0.021262446944313545,0.22868379597686425,-1.6579602924246144
1.25569766038103,-1.254645478977217,-0.021046557136848835,0.2140149506585863,-1.6299602357361762
1.2517233044261873,-1.2939284778506916,-0.020788768703600895,0.19949030064114703,-1.5955849778897049
1.247802402061575,-1.3304666488681605,-0.02048388776600109,0.18512202585848966,-1.554385206843848
1.2439444545525171,-1.3642909907929877,-0.02012608601355582,0.17092367861336663,-1.505893755421397
1.240160143697205,-1.3954352065648408,-0.01970876509499237,0.15691017161669427,-1.4496324996974084
1.2364614956530546,-1.423935950663605,-0.019224372211852025,0.14309766100185167,-1.3851238108468953
1.2328620869671991,-1.4498330382550577,-0.018664140270836915,0.12950326101344123,-1.3119086480043214
1.2293773112697657,-1.4731695756841177,-0.01801770917583145,0.11614450139772652,-1.2295741364554467
1.2260247359381256,-1.4939919523960654,-0.01727255747301152,0.103038411359603,-1.1377942900882743
1.2228245956831618,-1.5123496108459378,-0.01641312942134389,0.09020009863904668,-1.0363880840348338
1.219800498533988,-1.5282944889052814,-0.015419472148906743,0.07764072303827822,-0.9253985340366551
1.216980465647455,-1.5418800245355015,-0.0142650845514408,0.06536491517454324,-0.8051930300788629
1.2143985015273837,-1.5531596612037006,-0.012913485133519092,0.05336810238542699,-0.6765758373060097
1.2120970238400959,-1.5621849644788597,-0.011312595785299633,0.041635089984660166,-0.5408847731478836
1.2101307661362166,-1.5690038746066648,-0.009384853729218032,0.03014291136062285,-0.4000155583448867
1.2085735953881322,-1.5736605125085816,-0.007006417303249067,0.018874329712157314,-0.2562915174557085
1.2075331587016804,-1.5762003763996972,-0.003945547817296746,0.007861079667982608,-0.11210147071941046
