x,y,v_x,v_y,omega
2.375,32.48,0.0,3.0769230769230766,-2.7346938775510203
2.374145717342324,31.781601972052403,-0.007428544849354153,2.9961032530559923,-2.5356031020200853
2.371726517785531,31.101361879368067,-0.013607973035804036,2.9190279876773597,-2.358336690115188
2.3680064851450635,30.438449585725127,-0.01874013688130398,2.8454267396525643,-2.1998175423467905
2.363207327973211,29.792094162430228,-0.02299166461306878,2.7750552020422,-2.0574782960264386
2.3575157084438234,29.161578229088313,-0.02650067912073485,2.7076920444092396,-1.9291658688059576
2.3510891864875734,28.546232985614072,-0.029382120498831515,2.6431361597145893,-1.8130657947878739
2.3440610641508957,27.945433830403033,-0.031731986776626905,2.5812043203813975,-1.7076418683167913
2.3365443516193993,27.358596479059933,-0.033630730888557704,2.5217291695586135,-1.6115877112353005
2.3286350280835526,26.785173513266994,-0.03514599551010917,2.4645574895104247,-1.5237876893916735
2.320414733689592,26.22465130135753,-0.03633482530693608,2.409548701006658,-1.443285205711309
2.3119530003601017,25.67654724172238,-0.037245464514723346,2.3565735566902983,-1.369256847596202
2.3033091072024017,25.140407287885076,-0.037918823813100126,2.3055129984167015,-1.3009912063604656
2.2945336290119016,24.615803720353266,-0.03838968219125047,2.256257154033801,-1.2378714448131256
2.285669732879041,24.102333135499677,-0.03868767548579644,2.208704453388717,-1.1793608868511196
2.2767542672663597,23.599614625980013,-0.03883811245056341,2.16276084678226,-1.1249910552246076
2.267818679490553,23.107288130736954,-0.03886265081732355,2.1183391118530577,-1.0743517016343576
2.25888979083274,22.625012935606343,-0.03877985925061084,2.075358237108755,-1.027082465261795
2.249990453133801,22.152466308041994,-0.038605685957556354,2.0337428721464423,-0.9828658678563474
2.2411401064226335,21.689342251593175,-0.03835385066129103,1.993422836104158,-0.941421410215763
2.2323552536511717,21.235350367571733,-0.03803617343837698,1.9543326771257818,-0.9025005797672082
2.223649865798203,20.79021481288708,-0.037662851370048794,1.9164112766538384,-0.8658826146275594
2.215035728319772,20.353673344350636,-0.03724269192065446,1.8796014932282596,-0.8313708980041559
2.206522738061587,19.925476440891927,-0.03678331032443192,1.8438498411952757,-0.798789879638368
2.1981191582252055,19.505386496114912,-0.03629129694845088,1.8091062003439984,-0.7679824393866559
2.1898318377291495,19.09317707447935,-0.03577235953899473,1.7753235530086988,-0.7388076229025685
2.181666400276258,18.688632225137265,-0.035231444399191944,1.7424577456181287,-0.7111386914493054
2.173627407587965,18.291545848105166,-0.034672839846834606,1.7104672720523242,-0.684861437700339
2.1657185005614936,17.901721108022493,-0.03410026473117433,1.679313076492634,-0.6598727274188371
2.157942521520507,17.518969891246805,-0.03351694432088237,1.6489583737307734,-0.6360792334954851
2.150301620241988,17.14311230247614,-0.032925675492329165,1.6193684851445704,-0.6133963342464319
2.1427973460346923,16.773976197477396,-0.03232888283198207,1.5905106887575648,-0.5917471523494002
2.135430727803285,16.411396748842392,-0.031728667006340014,1.5623540819815682,-0.5710617145030024
2.128202343745773,16.05521604199754,-0.03112684653724102,1.5348694557997538,-0.5512762149734546
2.1211123820907285,15.705282698962659,-0.030524993941408222,1.5080291792861704,-0.5323323687579989
2.1141606940773907,15.361451527594706,-0.02992446704413856,1.4818070934786327,-0.5141768422373134
2.1073587209081466,15.023584010371263,-0.029223125731896723,1.4561713171600046,-0.4938457339846118
2.100716570395052,14.691547123483879,-0.0285347048167526,1.4311059601215972,-0.4745479379601405
2.0942312265532474,14.365212239770894,-0.02785958945980837,1.4065886808608892,-0.4562176590737645
2.0878995973592973,14.044455740797137,-0.027198055704974397,1.3825982667370016,-0.4387940844507191
2.0817185380489795,13.729158765406883,-0.026550286123874677,1.3591145627434582,-0.4222209469706457
2.0756848710559153,13.419206974045313,-0.025916383381034018,1.3361184056180093,-0.4064461320839268
2.069795403037075,13.11449032767418,-0.02529638200018596,1.3135915628266284,-0.39142132312611444
2.0640469393711607,12.81490288020862,-0.02469025857298213,1.2915166760043086,-0.37710168093163
2.0584362964642335,12.520342583493406,-0.02409794061768654,1.2698772084758079,-0.3634455540515734
2.0529603121525306,12.230711103919393,-0.02351931426668733,1.2486573965156085,-0.3504142163183696
2.0476158544540963,11.945913649855658,-0.022954230937088507,1.2278422040386219,-0.33797162888136567
2.0423998288878056,11.665858809140385,-0.022402513117615243,1.2074172804420096,-0.3260842241702548
2.03730918454977,11.390458395934957,-0.021863959387041467,1.1873689213443284,-0.31472070953402964
2.0323409191124147,11.11962730630135,-0.021338348763875956,1.1676840319913744,-0.3038518885577696
2.027492082890088,10.853283381913666,-0.02082544447374349,1.1483500931189095,-0.2934504982828176
2.022759782096521,10.591347281360658,-0.020324997209449972,1.129355129081162,-0.28349106075197056
2.0181411814033163,10.333742358538178,-0.019836747948854046,1.1106876780708448,-0.2739497474737721
2.013633505894675,10.080394547668796,-0.019360430387153703,1.0923367642716175,-0.2648042555519239
2.009234042501376,9.831232254520831,-0.01889577303283991,1.0742918717976366,-0.2560336943598681
2.0049401409864256,9.586186253431073,-0.018442501010205902,1.0565429202872227,-0.24761848175901333
2.000749214545586,9.345189589764718,-0.018000337605789934,1.0390802420288907,-0.2395402489638484
1.996658740077915,9.108177487472961,-0.017569005591351432,1.0218945605081409,-0.23178175325001069
1.9926662581744485,8.875087261433173,-0.017148228351833935,1.004976970272621,-0.2243267977837224
1.9887693728670237,8.645858234279334,-0.01673773084316559,0.9883189180216311,-0.21716015792415977
1.9849690648096623,8.420532785376142,-0.01630842617736875,0.9710328115713314,-0.22785485650171158
1.981264657297287,8.199168646564818,-0.01590381306067703,0.9538727433097511,-0.24081829269868768
1.9776504169990785,7.9817372593335065,-0.01552436344548294,0.9368349717451373,-0.25592591156725425
1.9741205188689284,7.768210908277446,-0.01517040290364938,0.9199159070032256,-0.2730571114830328
1.9706690783619314,7.558562687045331,-0.014842123244150334,0.9031121037108322,-0.29209495763559196
1.9672901808648764,7.352766465861823,-0.014539594121545757,0.8864202544066322,-0.3129259067627402
1.9639779085640852,7.150796860508201,-0.014262773711420738,0.8698371834509457,-0.3354395419781147
1.9607263649571722,6.952629202649252,-0.014011518522604146,0.8533598414094862,-0.3595283165882782
1.9575296971999063,6.758239511399925,-0.013785592410143523,0.8369852998890153,-0.3850873058345143
1.9543821164652657,6.56760446603003,-0.013584674847600607,0.8207107468057314,-0.4120139655259824
1.9512779164788887,6.380701379709318,-0.013408368512200147,0.8045334820700185,-0.4402078965549984
1.9482114903833434,6.197508174198763,-0.013256206231671019,0.7884509136739318,-0.4695706143020093
1.9451773460729207,6.018003355396651,-0.013127657337223918,0.7724605541705281,-0.5000053219473244
1.9421701201308976,5.842165989650297,-0.013022133462976917,0.7565600175368881,-0.531416686708743
1.9391845904924083,5.669975680745775,-0.012938993828233953,0.7407470164154651,-0.5637106180187104
1.936215687948101,5.501412547488901,-0.012877550035308086,0.7250193597312601,-0.596794046641268
1.9332585065966572,5.336457201790996,-0.01283707041202839,0.7093749506853066,-0.6305747037074807
1.93030831334794,5.175090727172453,-0.012816783924644484,0.6938117851280996,-0.6649608986177703
1.9273605565730016,5.017294657595926,-0.012815883683513865,0.6783279503199509,-0.6998612947201043
1.924410873992418,4.86305095653891,-0.01283353006069188,0.6629216240888759,-0.7351846816236065
1.9214550998903779,4.712341996212626,-0.012868853435309366,0.6475910744005512,-0.7708397429470961
1.918489271738688,4.565150536830252,-0.012920956579384038,0.6323346593592108,-0.8067348182304126
1.9155096363123143,4.421459705822681,-0.012988916693432504,0.6171508276631467,-0.8427776576521102
1.9125126553763119,4.281252976893878,-0.013071787097891802,0.6020381195438301,-0.8788751680990401
1.909495011023023,4.144514148800614,-0.013168598582881061,0.5869951682236935,-0.9149331490201791
1.9064536107382448,4.011227323732431,-0.013278360415190277,0.5720207019344042,-0.9508560163673853
1.9033855922757827,3.8813768851572767,-0.01340006099752481,0.5571135465451926,-0.9865465127780144
1.900288328421413,3.754947474985727,-0.01353266817090648,0.5422726288595969,-1.0219054019869018
1.8971594317298912,3.631923969892231,-0.013675129146674363,0.5274969806490715,-1.0568311452664292
1.8939967593223113,3.5122914566146903,-0.013826370049672377,0.5127857435034711,-1.0912195574816417
1.8907984178359778,3.3960352060337406,-0.01398529504888025,0.49813817459173343,-1.1249634401112063
1.8875627686250835,3.2831406458099295,-0.014150785045852692,0.48355365344141915,-1.157952188323306
1.8842884333180607,3.1735933313298688,-0.01432169588478018,0.4690316898634609,-1.1900713689078846
1.880974299846635,3.0673789146811465,-0.014496856040661496,0.45457193316889544,-1.2212022655535986
1.8776195290725657,2.964483111339213,-0.014675063733853515,0.4401741828479155,-1.2512213876216365
1.874223562151024,2.8648916642071995,-0.014855083409988517,0.42583840090873315,-1.2799999382140783
1.8707861287847942,2.7685903046006217,-0.01503564151374856,0.4115647261049796,-1.3074032369703756
1.8673072565413118,2.675564709712191,-0.015215421473053969,0.3973534903161481,-1.3332900926663047
1.8637872814253003,2.5858004560264014,-0.015393057796610928,0.3832052373863752,-1.3575121203584157
1.8602268599238907,2.4992829680780773,-0.01556712917216851,0.36912074477297596,-1.3799129975491249
1.8566269827690802,2.415997461862297,-0.015736150434878107,0.35510104840771817,-1.400327653697235
1.8529889906948205,2.3359288821039,-0.01589856325433776,0.34114747123052463,-1.4185813874468378
1.8493145925036443,2.259061832482036,-0.016052725364586223,0.3272616559161093,-1.4344889063148898
1.84560588580147,2.1853804977783575,-0.016196898132583643,0.31344560237674984,-1.4478532844428826
1.8418653808101997,2.1148685567762797,-0.01632923222628609,0.29970171068480367,-1.4584648356447245
1.838096027727518,2.0475090845849486,-0.01644775110138142,0.2860328301093868,-1.4660999017602852
1.8343012481739411,1.983284442898448,-0.016550331973200397,0.2724423149906205,-1.4705195608257118
1.8304849713516604,1.9221761565358975,-0.016634683872718953,0.25893408816200764,-1.471468266644142
1.826651675642291,1.8641647744546255,-0.016698322295709726,0.2455127125447083,-1.4686724422342516
1.8228064364978005,1.8092297133095165,-0.016738539830296877,0.23218347132579112,-1.4618390661982616
1.818954981640624,1.7573490815847244,-0.01675237197123491,0.21895245671589075,-1.4506543160221361
1.8151037548011888,1.7084994824108257,-0.016736557067334085,0.20582666653539913,-1.4347823697479858
1.8112599895093915,1.6626557934991304,-0.016687488948294547,0.19281410660976753,-1.413864523323102
1.807431794863211,1.619790923329024,-0.01660116014892643,0.1799238948694084,-1.3875188640240266
1.8036282557924854,1.579875544052971,-0.01647309263999225,0.16716635970496527,-1.3553408634812039
1.7998595512363342,1.5428778039016038,-0.016298251326540333,0.15455311987215115,-1.316905435308207
1.7961370950566053,1.5087630257243916,-0.016070932845014974,0.14209712514709355,-1.2717712675448412
1.7924737067521752,1.4774934044831198,-0.01578461762829179,0.1298126247769975,-1.2194886221150167
1.78888382268764,1.4490277261226971,-0.015431765541578856,0.1177150131397104,-1.1596123300418373
1.785383764563671,1.4233211446580825,-0.015003522492934736,0.10582047785693649,-1.0917224313736802
1.7819920918414962,1.4003250749389906,-0.014489283786845955,0.094145345787328,-1.0154557937464694
1.7787300814476268,1.3799872858937015,-0.013876023985931877,0.08270499373691874,-0.9305529276870618
1.7756224056535954,1.362252310304168,-0.013147243788252768,0.07151218530250572,-0.8369245693589946
1.772698124559558,1.3470623106919817,-0.012281287464246076,0.06057476784694618,-0.7347411098592516
1.769992185051703,1.33435852537972,-0.011248621299709546,0.04989293052054543,-0.6245419300010139
1.767547748110387,1.3240832956700075,-0.010007352103040655,0.03945689304216686,-0.5073469169867091
1.7654199225096567,1.316182316333986,-0.008495479207657669,0.029247275097142658,-0.3847254465591375
1.7636821469073074,1.3106059257640297,-0.006615612986683685,0.019243077685085038,-0.25874442854856405
1.7624389434927283,1.307306243130558,-0.004194851487918026,0.00944981477990069,-0.13170144652859753
1.7618642481210305,1.3062175951605042,-0.0008024995703230101,1.6689307521626506e-05,-0.005621977011274287
