x,y,v_x,v_y,omega
2.375,32.48,0.0,3.435897435897436,-3.1020408163265305
2.374094235967055,31.768018406539802,-0.008626324123283641,3.3448796446758577,-2.872691640251521
2.3715311568561344,31.07469899897958,-0.0157839531235798,3.2581623320881494,-2.668966433670834
2.3675938944610664,30.399171824513907,-0.021713783972307714,3.1754298056801664,-2.4871916895978305
2.3625194724458196,29.74062995632991,-0.02661404474432677,3.0963975103578836,-2.324312013261282
2.3565068996210887,29.09832336818909,-0.030648553586445602,3.020808090983281,-2.1777726117373324
2.3497237116712255,28.471553570569903,-0.03395323641225257,2.9484280768184856,-2.0454265109600405
2.34231128523338,27.859668890381254,-0.03664130109103642,2.879045067835308,-1.9254608149296815
2.3343891749881718,27.262060298564766,-0.03880736791094518,2.812465330416966,-1.8163377374673166
2.3260586690326415,26.678157707196615,-0.04053078404648982,2.74851173023211,-1.7167471731590618
2.3174057155972894,26.10742667127697,-0.04187829629019322,2.687021945193091,-1.6255683399806746
2.308503341776177,25.549365441180104,-0.0429062162918296,2.6278469128722692,-1.5418385969997401
2.2994136599166826,25.00350232039638,-0.04366218237002198,2.5708494755441813,-1.4647279695648043
2.2901895378686725,24.46939329021508,-0.04418659903959911,2.5159031928491267,-1.3935182391871614
2.280875994092749,23.946619868735407,-0.044513817873959624,2.4628912974334787,-1.3275857029363816
2.271511366682638,23.43478717632181,-0.04467310984138366,2.4117057731722222,-1.2663868971834369
2.2621282959226967,22.933522183545705,-0.04468946882472149,2.3622465389811365,-1.2094467272361469
2.252754552514415,22.44247212093559,-0.0445842779208187,2.314420723972366,-1.1563485583500301
2.243413737636624,21.96130303261461,-0.044375863772430656,2.268142021941738,-1.1067259125741018
2.2341258762244047,21.489698458234933,-0.04407995920108687,2.223330115007538,-1.0602554857400552
2.224907921008425,21.02735822959735,-0.04371009047490804,2.1799101577313644,-1.0166512540115429
2.215774181753845,20.573997370033453,-0.043277902425855684,2.1378123143057706,-0.975659483096962
2.206736691623693,20.12934508607512,-0.042793432147023386,2.096971342440245,-0.9370544880202076
2.197805520546701,19.693143842181073,-0.04226534001480175,2.0573262184554153,-0.900635019172364
2.188989043800512,19.26514851036549,-0.041701105186997045,2.0188197988358754,-0.8662211727205334
2.1802941726542495,18.845125587505212,-0.041107191444073356,1.9813985141191386,-0.8336517414780346
2.171726552791343,18.4328524739119,-0.040489188202658594,1.9450120915314606,-0.8027819369366841
2.1632907353077915,18.028116807461267,-0.03985193068830539,1.9096133032364762,-0.7734814250244597
2.1549903243157766,17.630715848188917,-0.03919960256898054,1.8751577374525594,-0.7456326278275707
2.146828104547985,17.240455908803245,-0.03853582379093812,1.8416035900300345,-0.7191292514356452
2.1388061518304324,16.857151827041406,-0.037863725900038774,1.8089114743684387,-0.6938750065730511
2.130925928851677,16.480626476213295,-0.0371860167547758,1.7770442478040616,-0.6697824940387553
2.123188368288615,16.110710310648308,-0.036505036226768234,1.7459668528148502,-0.6467722314071502
2.115593945040875,15.747240943087018,-0.03582280422789583,1.7156461715783764,-0.6247718011153482
2.108142739066929,15.390062751350072,-0.03514106219063925,1.6860508925830109,-0.6037151031169847
2.100834490096999,15.039026511874557,-0.0344613089515505,1.657151388136184,-0.5835416978300878
2.093668645313818,14.693989057937607,-0.03378483184065058,1.6289196017395278,-0.5641962272371835
2.086644400936596,14.354812960591776,-0.03311273365669951,1.60132894441125,-0.5456279037826078
2.07976073851157,14.021366230519593,-0.03244595610545627,1.5743541991333558,-0.5277900582144275
2.07301645660036,13.693522039178447,-0.03178530019177685,1.5479714326870941,-0.5106397387849626
2.0664101984619188,13.371158457753648,-0.03113144398385896,1.5221579142157478,-0.4941373552943277
2.059940476242398,13.054158212569295,-0.030484958106810865,1.4968920399209327,-0.4782463623682783
2.0536145688481247,12.742409123469052,-0.029761778981508523,1.4721469038909045,-0.4605247206179278
2.047438836358524,12.435803175791612,-0.02905472091945206,1.4479097406561308,-0.4436426987419881
2.041409899388638,12.134235653919731,-0.02836372641279369,1.4241618962189304,-0.4275503421127061
2.0355243961079377,11.837605667147805,-0.02768868578435215,1.400885596847037,-0.41220123201466885
2.0297789923241787,11.545815970283972,-0.02702944548954178,1.378063897094234,-0.397552195828897
2.0241703899393815,11.258772794785198,-0.026385815318050797,1.3556806314655092,-0.38356304412391856
2.0186953339938682,10.976385689691082,-0.025757574639219478,1.333720369430839,-0.3701963318695124
2.013350618486107,10.698567371681353,-0.025144477815646334,1.3121683735189438,-0.3574171413058752
2.0081330911317132,10.42523358363595,-0.024546258892869002,1.2910105602467954,-0.3451928842786979
2.0030396572038067,10.156302961125462,-0.023962635658620193,1.270233463662611,-0.3334931220943122
1.9980672825786074,9.891696906304407,-0.023393313152804275,1.2498242012998166,-0.32228940116319765
1.9932129960942007,9.631339468720416,-0.022837986698686766,1.2297704423572553,-0.3115551028885888
1.9884738913165965,9.375157232589522,-0.022296344516591373,1.2100603779369565,-0.30126530642302796
1.9838471277951424,9.123079210121688,-0.02176806997344897,1.1906826931852754,-0.291396663062326
1.9793299318788906,8.875036740511622,-0.021252843514662573,1.171626541196307,-0.2819272811759962
1.974919597156378,8.630963394238435,-0.02075034431879167,1.1528815185483345,-0.2728366206879524
1.970613484573314,8.390794882343602,-0.02026025171038915,1.134437642354821,-0.26410539622294965
1.9664090222757304,8.15446897038062,-0.019782246361835665,1.1162853287211902,-0.2557154881245045
1.9623037052200707,7.9219253967516075,-0.01931601131111509,1.0984153725075012,-0.2476498606302464
1.9582950945864,7.693105795166279,-0.01886123281908111,1.0808189283051635,-0.23989248656203094
1.9543808170262813,7.467953620977205,-0.018417601086809936,1.0634874925431623,-0.2324282779517435
1.9505585637728053,7.246414081162349,-0.01798481085105873,1.0464128866459343,-0.22524302208045505
1.9468260896367158,7.028434067741561,-0.01756256187360288,1.0295872411711167,-0.21832332245926128
1.9431812119094698,6.813962094428195,-0.01715055933826402,1.0130029808609426,-0.21165654432544428
1.9396218091913406,6.602948236330452,-0.016748514167727418,0.9966528105461318,-0.20523076426815495
1.9361490504590488,6.395476097396095,-0.01632537852076706,0.979272322162011,-0.2240606936037619
1.9327620907255627,6.191641856750213,-0.015931380845765893,0.962006160179741,-0.24477081831802996
1.9294548219666763,5.991421839094681,-0.015566416857914468,0.9448511508253324,-0.2672525553574645
1.9262211680402141,5.794793022811497,-0.015230287203631348,0.927804242347853,-0.29140024345694554
1.9230551037676837,5.601733014870515,-0.01492270586808615,0.9108624999472122,-0.31711091212329284
1.9199506723211115,5.412220026761052,-0.014643307908792504,0.8940231010952859,-0.34428405769788506
1.9169020010515134,5.226232851366497,-0.014391656563570011,0.8772833312338082,-0.3728214256200602
1.9139033158857388,5.043750840704298,-0.014167249777139996,0.8606405798347493,-0.40262679803437346
1.91094895440952,4.86475388445648,-0.013969526186848972,0.8440923368111328,-0.4336057859003114
1.9080333777464307,4.6892223892181235,-0.013797870604476565,0.8276361892684664,-0.4656656247727639
1.9051511813350466,4.5171372583930705,-0.013651619027753664,0.8112698185891765,-0.49871497342538984
1.9022971046998656,4.3484798726675145,-0.013530063212065147,0.7949909978446829,-0.5326637144868585
1.8994660403054682,4.183232070992958,-0.013432454829814536,0.7787975895320445,-0.5674227562516243
1.8966530415779215,4.021376132010474,-0.013358009242060574,0.7626875436344843,-0.6029038348121581
1.8938533301725564,3.862894755848057,-0.01330590890427376,0.7466588960075918,-0.6390193156380781
1.8910623025629425,3.7077710462222164,-0.01327530642538046,0.7307097670956346,-0.6756819936990206
1.8882755360221306,3.555988492773725,-0.013265327296638726,0.7148383609852329,-0.7128048911918721
1.8854887940640321,3.4075309535655727,-0.013275072304298996,0.6990429648066956,-0.7503010518885996
1.8826980314101518,3.262382637668722,-0.013303619637418619,0.6833219484966416,-0.7880833310677025
1.8798993985447654,3.120528087757961,-0.013350026699594965,0.6676737649391851,-0.8260641799295246
1.8770892459200812,2.9819521626361087,-0.013413331630729549,0.6520969505070114,-0.8641554233224558
1.8742641278719232,2.8466400195999135,-0.013492554542204686,0.6365901260281922,-0.9022680295224595
1.8714208063060604,2.7145770965549403,-0.013586698466012232,0.6211519982096524,-0.9403118707113395
1.8685562542155139,2.5857490937797643,-0.013694750015385195,0.6057813615539234,-0.97819547268853
1.8656676590900108,2.460141955231311,-0.013815679751308464,0.5904771008122918,-1.0158257522257337
1.862752426280306,2.3377418492734137,-0.013948442245881305,0.5752381940248199,-1.0531077403320996
1.859808182382357,2.2185351486991642,-0.014091975829823668,0.5600637162061186,-1.0899442895385083
1.8568327787094479,2.1025084099042566,-0.014245202007406886,0.5449528437453675,-1.1262357631315594
1.8538242949243129,1.9896483510529812,-0.014407024517686847,0.5299048596001004,-1.1618797040698636
1.8507810429082698,1.879941829060499,-0.014576328016055908,0.514919159375932,-1.1967704810962307
1.8477015709503872,1.773375815194136,-0.014751976344731714,0.4999952583989509,-1.2307989093188323
1.8445846683469385,1.6699373690723007,-0.014932810354778815,0.4851327999042436,-1.2638518422726215
1.841429370509958,1.5696136108116114,-0.015117645235512001,0.4703315644832582,-1.2958117321906182
1.8382349646937772,1.4723916910406132,-0.015305267299543164,0.45559148095483615,-1.3265561549163045
1.835000996460192,1.3782587584610937,-0.015494430163171955,0.4409126388501043,-1.35595729557922
1.8317272770165856,1.2872019245951378,-0.015683850252127568,0.42629530273043387,-1.3838813908457348
1.8284138915771881,1.1992082253064176,-0.0158722015516581,0.41173992859070424,-1.4101881232616387
1.825061208915986,1.1142645786274592,-0.01605810950741017,0.3972471826374827,-1.4347299629468133
1.8216698923009453,1.0323577383592912,-0.016240143969167484,0.38281796277362756,-1.4573514517214576
1.8182409120236207,0.9534742428355081,-0.016416811052972314,0.36845342316717095,-1.4778884246926864
1.8147755597663706,0.877600358158027,-0.01658654377798183,0.35415500233263497,-1.4961671644904138
1.8112754650819225,0.8047220151164787,-0.01674769131199825,0.3399244552059322,-1.5120034838306387
1.807742614297687,0.7348247388963927,-0.016898506633103955,0.3257638897472662,-1.5252017330757912
1.8041793722009956,0.667893570564086,-0.017037132383003677,0.31167580865564987,-1.535553731208598
1.8005885069126657,0.6039129791895128,-0.01716158464870929,0.2976631568164706,-1.5428376215071136
1.7969732184167158,0.542866763336395,-0.017269734360338445,0.28372937511799684,-1.54681665774288
1.793337171286257,0.4847379405183183,-0.017359285929744814,0.2698784612446392,-1.5472379337085747
1.789684532233214,0.4295086231024712,-0.01742775267066371,0.2561150379538906,-1.543831079466592
1.7860200132181556,0.3771598790594126,-0.017472428425128913,0.24244442912285924,-1.5363069635798696
1.7823489209947052,0.3276715759407409,-0.017490354655351953,0.228872743435948,-1.5243564642068674
1.7786772141442218,0.28102220656914056,-0.017478282015919604,0.2154069648650143,-1.5076494069228665
1.7750115689023163,0.2371886952292428,-0.017432625049847085,0.20205504789592588,-1.4858338187388702
1.771359455424372,0.19614618378029292,-0.01734940807343164,0.18882601352265768,-1.4585357236791494
1.7677292266402256,0.1578677982676311,-0.01722419939463007,0.1757300389788876,-1.4253598164462185
1.7641302226039461,0.12232439858237143,-0.01705202952231821,0.16277852945214585,-1.385891512659751
1.7605728944121146,0.08948431694039982,-0.016827286590361853,0.14998415285233535,-1.3397011080575039
1.757068953608562,0.059313096042878044,-0.01654357820537793,0.13736080807642315,-1.2863511119603983
1.7536315559586266,0.03177324558606642,-0.016193542270197762,0.12492348198842969,-1.2254082824552153
1.750275533300198,0.006824047358925611,-0.01576857828626291,0.1126879296986533,-1.156462504443648
1.747017695082754,-0.015578544441062547,-0.01525845235606197,0.10067008744406718,-1.0791554000635062
1.7438772341821873,-0.03548183942800165,-0.014650699077907014,0.08888510290774862,-0.9932223119472494
1.7408762928346562,-0.05293609065566329,-0.01392969470810462,0.0773458611652356,-0.8985516414086864
1.7380407791946855,-0.0679938045047237,-0.013075197101139992,0.06606093739725301,-0.7952644541443705
1.735401581627681,-0.08070857426436362,-0.01206001782271012,0.055032107932666066,-0.6838127473062952
1.7329964231214126,-0.09113341150487742,-0.010846253665561538,0.04425205626271491,-0.5650835179084885
1.73087277685839,-0.09931879269532118,-0.009378948839414423,0.03370395507487414,-0.44047465852728235
1.7290926876586616,-0.10531119809606082,-0.007574281634189668,0.023366572551243886,-0.31188030976685077
1.7277417413779819,-0.10915417763316526,-0.005291873419903918,0.013233232564054408,-0.18150452651192495
1.7269513922459003,-0.11089834136458876,-0.0022352611713487612,0.00337785059233189,-0.05144780275931013
