x,y,v_x,v_y,omega
2.375,32.48,0.0,2.41025641025641,-6.8979591836734695
2.373692814438925,31.97913309457372,-0.012449386295952417,2.3599045938033676,-6.525281349295537
2.369936243204035,31.488651998922577,-0.023327482607762205,2.311343936207515,-6.182282498821594
2.3640404051035415,31.00819235569158,-0.032823356444557354,2.264462189801975,-5.865826785221413
2.356278358344956,30.53741227175147,-0.041100898399113364,2.2191576572467,-5.57317903829439
2.346890987403344,30.075990248043233,-0.048302634378144374,2.1753378066412608,-5.301944985360941
2.3360911587501523,29.62362337592478,-0.05455287660463421,2.1329181182964168,-5.050021721751886
2.324067270511708,29.18002575617745,-0.059960344713882695,2.091821117392415,-4.815556433304334
2.3109862966584314,28.744927105373854,-0.06462035865065559,2.0519755569275517,-4.596911810964681
2.296996407292324,28.318071520975238,-0.06861668293131987,2.013315723059274,-4.392636928862541
2.282229231650017,27.89921638176872,-0.07202308509065061,1.975780840812312,-4.201442610326291
2.266801818590047,27.488131364406037,-0.07490465833763495,1.9393145626418105,-4.022180501500512
2.2508183398647486,27.0845975601161,-0.07731894856997015,1.90386452583378,-3.853825224053599
2.2343715738532897,26.688406678321385,-0.07931691820582636,1.8693819674492524,-3.695459097514434
2.2175442012505044,26.299360326035316,-0.08094377324927125,1.8358213876561407,-3.546259015826836
2.2004099391611445,25.917269353663432,-0.08223967522082609,1.8031402539808659,-3.4054851375293347
2.183034535907425,25.541953259258378,-0.0832403557669814,1.7712987403529667,-3.2724711088761835
2.1654766454388716,25.173239644453105,-0.08397764869542929,1.7402594958877393,-3.1466155874770667
2.1477885973970583,24.810963716267487,-0.08447995170279098,1.7099874392133945,-3.027374873133236
2.13001707652361,24.45496782979131,-0.08477262804433346,1.6804495748454014,-2.9142564843945657
2.1122037231207176,24.105101067421533,-0.0848783567451218,1.6516148286762977,-2.8068135454303214
2.0943856646099612,23.76121885089885,-0.08481743859541514,1.6234539001111825,-2.704639869244622
2.0765959868319452,23.423182582867554,-0.08460806405235392,1.595939128758267,-2.607365640975642
2.0588641525412528,23.090859315088792,-0.08426654823995462,1.569044373896599,-2.514653619705073
2.04121637354229,22.764121440783413,-0.08380753746445532,1.5427449052022788,-2.426195789434078
2.023675942052075,22.442846408876992,-0.0832441910137812,1.517017303430297,-2.3417104001027433
2.0062635261417356,22.1269164581742,-0.08258834146564091,1.4918393699296353,-2.2609393481016307
1.9890236503473213,21.816226917255527,-0.08160095181449668,1.4671086388196306,-2.1769633169014915
1.971995712917002,21.510676933575546,-0.0805698808552117,1.4428912057515826,-2.0969893853871886
1.9551881669815172,21.210160741249474,-0.07950198519702491,1.4191677687824618,-2.020777770856906
1.9386081028532534,20.914576528050127,-0.07840338745310602,1.3959199759732268,-1.948105805605923
1.9222613941220406,20.62382624219135,-0.07727955284415874,1.3731303655389338,-1.8787665193329997
1.9061528285411096,20.33781541119612,-0.0761353574504221,1.3507823106060657,-1.8125673549762484
1.890286225355179,20.05645297192641,-0.07497514908224957,1.328859968153086,-1.749329003913407
1.8746645405316025,19.779651110935966,-0.07380280161847959,1.3073482317559024,-1.68888434810389
1.859289961188168,19.507325114382603,-0.07262176355708787,1.2862326877999664,-1.6310774981817109
1.844163990364337,19.239393226803735,-0.0714351014317785,1.26549957485589,-1.5757629177588606
1.82928752315373,18.975776518119492,-0.07024553866924059,1.245135745946441,-1.5228046252930276
1.814660915102185,18.716398758281805,-0.06905549039309175,1.225128633460097,-1.4720754658329365
1.8002840436757448,18.46118629903699,-0.0678670946206255,1.2054662164905303,-1.4234564457971899
1.7861563635147317,18.210067962313186,-0.0666822402461658,1.186136990402828,-1.3768361246838223
1.7722769561121812,17.96297493478403,-0.06550259215907767,1.1671299384463034,-1.3321100582610683
1.7586445744860153,17.71984066819584,-0.06432961380440665,1.1484345052507123,-1.2891802883665002
1.7452576833533608,17.480600785078444,-0.0631645874589688,1.1300405720578184,-1.247954874951486
1.732114495261361,17.245192989489226,-0.06200863246483862,1.1119384335537696,-1.2083474664592884
1.719213003080875,17.013556982467197,-0.06086272163503025,1.0941187761798574,-1.1702769050253632
1.7065510092268594,16.78563438189825,-0.05972769602225861,1.0765726578100885,-1.1336668633438054
1.6941261519313606,16.561368646515348,-0.058604278220587815,1.0592914886937579,-1.0984455103599131
1.6819359288613263,16.340705003777654,-0.057493084351169135,1.0422670135699905,-1.0645452032302194
1.6699777183434363,16.123590381391544,-0.05639463486682936,1.0254912948691373,-1.0319022032422185
1.658248798431368,15.909973342253362,-0.05530936429572626,1.0089566969230568,-1.0004564136099658
1.646746364027019,15.699804022609602,-0.05423763003140754,0.9926558711127756,-0.9701511372619135
1.6354771975248243,15.493190856319249,-0.05308776522758719,0.9750885697477368,-0.9706355035352401
1.6244454380542412,15.29025372323784,-0.051976610682729275,0.9576460310275952,-0.9735002402046642
1.6136429858521946,15.090966804280384,-0.05090388647961934,0.9403246257100649,-0.9786123353292121
1.6030618109168735,14.89530502643171,-0.049869208142487145,0.9231208776106383,-0.9858427978602553
1.5926939739773476,14.703244031317322,-0.048872096043473603,0.9060314568121076,-0.9950663549299985
1.582531645567188,14.51476014514395,-0.047911984053284444,0.8890531734104858,-1.0061611608400785
1.5725671233550518,14.32983034989988,-0.046988227490869804,0.8721829717711339,-1.019008516512201
1.5627928478741473,14.148432255710333,-0.04610011042250721,0.8554179252721579,-1.0334925982159113
1.55320141678235,13.970544074247652,-0.04524685235651401,0.8387552315152711,-1.0495001944333544
1.5437855977754422,13.796144593099879,-0.0444276143759411,0.8221922079873473,-1.0669204497575726
1.534538340267431,13.625213151004527,-0.043641504747973056,0.8057262881588627,-1.0856446147498082
1.525452785944132,13.45772961385697,-0.04288758404535245,0.7893550180083632,-1.1055658007025826
1.516522278289117,13.293674351404764,-0.04216486981193187,0.7730760529650269,-1.1265787382691752
1.507740371174716,13.133028214540676,-0.04147234080141079,0.7568871552643699,-1.1485795389265316
1.4991008366049496,12.975772513107824,-0.0408089408154125,0.740786191715173,-1.17146545823761
1.4905976716920826,12.82188899413045,-0.040173582164275176,0.7247711318788597,-1.1951346598706183
1.4822251049438524,12.671359820383259,-0.03956514877124828,0.7088400466658374,-1.219485979316376
1.4739776019343627,12.524167549210883,-0.03898249893817895,0.6929911073567946,-1.2444186862209476
1.465849870428091,12.380295111507053,-0.03842446778821933,0.677222585060654,-1.2698322442184906
1.4578368650234788,12.239725790760072,-0.03788986939856334,0.6615328506248856,-1.2956260671086415
1.4499337913800905,12.102443202067548,-0.03737749863370598,0.6459203750182209,-1.321699270173423
1.442136110091397,11.968431271018524,-0.036886132687186005,0.6303837302105681,-1.3479504153702244
1.4344395402638366,11.837674212335497,-0.036414532337198734,0.6149215905801606,-1.3742772490695845
1.4268400628619542,11.710156508161784,-0.03596144291882183,0.5995327348837651,-1.4005764309289863
1.4193339238791283,11.585862885871606,-0.03552559501285568,0.5842160488322284,-1.4267432524064652
1.4119176373936955,11.464778295270534,-0.03510570484840923,0.5689705283208346,-1.452671343320484
1.404587988571213,11.346887885042786,-0.03470047441332792,0.553795283372006,-1.478252364755457
1.3973420366751643,11.232176978288749,-0.03430859126332553,0.5386895428569217,-1.5033756864960774
1.3901771181507088,11.120631046981131,-0.03392872801720338,0.5236526600727777,-1.5279280470493772
1.3830908498491163,11.012235685150788,-0.03355954152177171,0.5086841192638157,-1.5517931941831444
1.3760811324644031,10.906976580593447,-0.03319967166597421,0.4937835431870456,-1.5748515037760542
1.3691461542584602,10.804839484865827,-0.0328477398191957,0.47895070183791405,-1.5969795746433535
1.3622843951567531,10.705810181313794,-0.032502346863728965,0.4641855224671724,-1.6180497968791705
1.3554946313035523,10.609874450845755,-0.032162070785802986,0.44948810103795506,-1.6379298911527265
1.3487759401737944,10.517018035131144,-0.03182546378331952,0.4348587152916581,-1.6564824163255762
1.3421277063482018,10.427226596866202,-0.03149104884137336,0.4202978396125502,-1.6735642427414137
1.3355496280694081,10.340485676706969,-0.03115731571856563,0.4058061619039685,-1.6890259886085535
1.3290417247097868,10.256780646422186,-0.030822716277827497,0.391384602713015,-1.702711417089632
1.3226043452967278,10.176096657766486,-0.03048565908463884,0.3770343368650822,-1.7144567920919644
1.3162381782586554,10.098418586516893,-0.0301445031827171,0.3627568178929572,-1.724090191397489
1.309944262575576,10.023730971053755,-0.02979755094185014,0.34855380556550436,-1.7314307767984476
1.303724000542047,9.952017944801742,-0.02944303985366477,0.33442739683460476,-1.7362880224751382
1.297579172379029,9.883263161779414,-0.029079133127458533,0.3203800605209072,-1.7384609051911977
1.2915119529653227,9.817449714440404,-0.02870390890784084,0.30641467604109696,-1.7377370633067415
1.2855249310009276,9.754560042930944,-0.02831534789592166,0.292534576429959,-1.7338919365648413
1.279621130966174,9.694575834845551,-0.02791131910173077,0.27874359581186675,-1.7266879057162932
1.273804038305521,9.637477914548548,-0.027489563380679965,0.265046121302469,-1.7158734611876165
1.2680776283489703,9.583246121163203,-0.027047674300754186,0.2514471490341323,-1.7011824443971253
1.2624463995953692,9.531859174442644,-0.026583075733542055,0.23795234354261666,-1.6823334257054259
1.2569154121330721,9.483294527970699,-0.026092995335953426,0.22456809904733313,-1.6590293117514827
1.2514903321839372,9.437528209561403,-0.025574432751044457,0.21130160008881418,-1.6309573154000268
1.24617748405647,9.39453464942575,-0.02502412084388139,0.1981608773936014,-1.5977894782635291
1.240983911229871,9.354286497787221,-0.024438477504680745,0.18515485249715544,-1.5591840148705647
1.235917448935732,9.316754435341007,-0.023813544344262194,0.17229336127629813,-1.5147878569542605
1.230986811572074,9.281906982522234,-0.023144906738197586,0.15958714175964805,-1.4642409256987141
1.2262016997530014,9.249710317312605,-0.022427586776779505,0.14704776499871863,-1.4071828595405274
1.2215729340423376,9.220128116683775,-0.021655896181923925,0.13468747908537831,-1.3432631832956299
1.217112625866091,9.193121444181891,-0.02082322930614022,0.12251892569445078,-1.272156218591364
1.2128344013928123,9.168648715894417,-0.019921765677465748,0.11055467704338413,-1.1935823752859913
1.2087537022794574,9.146665788867864,-0.018942035402104044,0.0988065327333156,-1.1073377338545662
1.204888199523874,9.127126228351774,-0.01787227655583202,0.08728451980089481,-1.0133338034690063
1.2012583753229726,9.10998181842493,-0.016697477738468115,0.07599557474045623,-0.9116485556282381
1.1978883560120401,9.095183374246218,-0.0153979442704132,0.06494198886631536,-0.8025874634249344
1.1948071227454424,9.082681873250927,-0.013947134459087952,0.05411992537457034,-0.6867481315723066
1.1920503000859504,9.072429812833999,-0.012308319440835604,0.04351874526284094,-0.5650731290352615
1.189662871937974,9.064382470330596,-0.010429091492273041,0.033122611912409075,-0.43886355005277533
1.1877035665809526,9.05849829137059,-0.00823095952697944,0.02291718770669701,-0.30971577014456086
1.1862530048617324,9.054736620329436,-0.0055839139894035,0.012908250780496294,-0.17934578535862197
1.1854344433752908,9.053046941787422,-0.002211909690993189,0.0031839258101136973,-0.049297408766616896
