x,y,v_x,v_y,omega
2.375,32.48,0.0,2.4615384615384617,-3.1020408163265305
2.3744430534563765,31.99267719608445,-0.005569465436234642,2.4116895776170155,-2.9388405835092692
2.3728417485494777,31.51516184431295,-0.010443583632751448,2.3634639400979784,-2.7881848675254104
2.3703269910803813,31.047137983782417,-0.014703991058217201,2.3167746652073458,-2.648802689432174
2.367014398398301,30.588306394051507,-0.01842193576258122,2.271541232101752,-2.519576623336602
2.3630062313152136,30.13838338411006,-0.021659735068293096,2.2276888673127146,-2.3995215875282097
2.358393057009709,29.69709969682,-0.02447200798675417,2.18514800558789,-2.287766915643699
2.3532551841525113,29.264199514724687,-0.026906720585223125,2.143853815365223,-2.183541146878434
2.34766390455151,28.839439555261055,-0.029006075424792208,2.1037457792711054,-2.0861590795169405
2.341682569956087,28.42258824516015,-0.030807270529436576,2.0647673217379823,-1.995010715769408
2.3353675280222292,28.013424965266896,-0.032343148809141874,2.0268654771945194,-1.9095517928600467
2.328768937620942,27.611739358210368,-0.03364275520372811,1.9899905933707667,-1.8292956491536403
2.321931480515336,27.21733069235922,-0.03473181585233199,1.9540960651407335,-1.7538062176132743
2.3148949838117736,26.8300072763411,-0.035633151183291176,1.9191380950404586,-1.6826919742019237
2.307694965408532,26.44958591911852,-0.03636703284912764,1.885075477185369,-1.6156006976392914
2.300363112842171,26.075891431220676,-0.03695149281448064,1.8518694017930677,-1.5522149205038718
2.2929277044034446,25.708756163249642,-0.03740259157278436,1.8194832779172339,-1.4922479710502086
2.2854139801095554,25.348019578224804,-0.03773465136610473,1.7878825723311678,-1.435440521099279
2.2778444690360646,24.993527854713857,-0.03796045936880514,1.757034662778286,-1.381557568595978
2.2702392785956644,24.64513351803187,-0.038091445035198825,1.7269087040415794,-1.3303857944221444
2.2626163505745,24.30269509707945,-0.03813783517644111,1.6974755054826114,-1.2817312422153138
2.2549916880768226,23.96607680464425,-0.03810878980033493,1.6687074188694213,-1.2354172776012342
2.247379556966647,23.635148239211624,-0.03801252130142297,1.640578235456811,-1.1912827896677796
2.2397926649152,23.30978410652534,-0.03785639921304782,1.613063091406058,-1.1491806029045868
2.2322423207522943,22.989863959310984,-0.03764704241600715,1.5861383807374776,-1.108976072381799
2.224738576467672,22.67527195372712,-0.03739040043021165,1.559781675101185,-1.0705458387858373
2.2172903539058195,22.365896621243884,-0.037091825188318044,1.5339716497311389,-1.0337767231874067
2.2099055579372853,22.061630654769075,-0.03675613449702251,1.5086880150169342,-0.9985647441833784
2.202591177664875,21.76237070794854,-0.036387668227078084,1.4839114531884017,-0.96481424240924
2.1953606133839383,21.468018736936564,-0.035917974582291644,1.459608256931403,-0.9302015357544375
2.188225488454077,21.178480208820808,-0.035433274716322495,1.435777024226155,-0.8971692804379647
2.1811885489949208,20.89366240966447,-0.03493611987523986,1.412400967337225,-0.86562662368298
2.1742520582009077,20.613475906604414,-0.03442878806488797,1.3894640632633266,-0.83548892284198
2.1674178481688875,20.337834399292813,-0.033913312255318545,1.3669510098526756,-0.8066772535919767
2.1606873663875703,20.066654579815136,-0.03339150555784911,1.3448471849241086,-0.7791179622677158
2.154061717459852,19.79985600050736,-0.03286498371933405,1.3231386081535952,-0.7527422579139501
2.147541700564276,19.537360949141224,-0.03233518523643051,1.3018119055077957,-0.7274858401252584
2.1411278431050085,19.27909433098784,-0.03180338935624208,1.2808542760260537,-0.7032885591706923
2.1348204309495857,19.02498355730824,-0.03127073219798645,1.2602534607699303,-0.6800941052782981
2.1286195356095248,18.774958439853716,-0.030738221202622623,1.2399977137753202,-0.6578497242878719
2.1225250386799477,18.52895109099053,-0.030206748093146947,1.2200757748565427,-0.636505957174826
2.116536653819927,18.2868958290924,-0.029677100507058355,1.2004768441247373,-0.6160164012086541
2.110653946524831,18.04872908887047,-0.02914997244390324,1.1811905580945818,-0.5963374907404226
2.1048763519149913,17.81438933633462,-0.02862597365449521,1.16220696726392,-0.5774282958186285
2.0992031907411346,17.583816988102182,-0.028105638084069365,1.1435165150604543,-0.5592503370148292
2.093633683785826,17.356954334790302,-0.027589431469019418,1.1251100180583335,-0.5417674150024337
2.088166964821348,17.133745468246936,-0.02707775817575898,1.1069786473753425,-0.5249454535763298
2.082802092267727,16.914136212392545,-0.02657096736045519,1.089113911168553,-0.5087523549297139
2.077538059679707,16.69807405746041,-0.026069358519738788,1.0715076381528137,-0.4931578661194093
2.072373805178248,16.485508097437886,-0.0255731864948566,1.0541519620723772,-0.47813345575369737
2.0673082199302644,16.27638897052451,-0.02508266598497638,1.0370393070613788,-0.4636522000286497
2.0623401557698298,16.07066880243499,-0.024597975619371694,1.020162373833813,-0.4496886773213521
2.057468432044601,15.868301152386792,-0.024119261632912673,1.003514126648162,-0.4362188706223372
2.0526918417628517,15.669240961622378,-0.023646641184584358,0.9870877809959595,-0.42322007715593263
2.0480126230871383,15.473625203995784,-0.023145545572548464,0.9690697952699779,-0.446539535507022
2.0434303236593125,15.281601849668661,-0.02267744870570565,0.9511637480012413,-0.4715458917338584
2.038938395637304,15.09314881291358,-0.022241831514379702,0.9333666195495709,-0.49812924506119416
2.0345304022152018,14.908244600111004,-0.021838102706642458,0.9156755084761707,-0.5261821558069464
2.0302000313932687,14.726868286537172,-0.021465605512690375,0.8980876272621362,-0.5555994087734369
2.0259411084560024,14.548999493968893,-0.021123623859973368,0.880600298420669,-0.5862777817172599
2.021747607268205,14.374618369027594,-0.020811388017998055,0.8632109509923281,-0.6181158179510294
2.0176136604915884,14.20370556218684,-0.02052807974817032,0.845917117415204,-0.6510136021357468
2.013533568817704,14.036242207368872,-0.02027283699067387,0.8287164307644924,-0.6848725383211169
2.009501809306919,13.872209902056564,-0.02004475811717471,0.8116066223585983,-0.7195951292826844
2.005513042917695,13.71159068784754,-0.019842905775069808,0.7945855197316497,-0.755084756188859
2.001562121305584,13.554367031376856,-0.01966631034603543,0.7776510449751852,-0.7912454576074617
1.9976440929671055,13.400521805533852,-0.019513973038750784,0.7608012134548349,-0.8279817068299001
1.9937542087999454,13.25003827089726,-0.01938486863284938,0.7440341329110906,-0.8651981864509821
1.9898879271478247,13.102900057310471,-0.01927794788835704,0.7273480029568051,-0.9027995590931112
1.9860409183957808,12.959091145515998,-0.019192139632084375,0.7107411149879271,-0.9406902331044734
1.98220906917961,12.818595848764382,-0.019126352529623237,0.6942118525282364,-0.9787741219910515
1.9783884862717755,12.681398794308201,-0.019079476548721087,0.677758692033566,-1.016954396260993
1.9745755002052192,12.547484904686218,-0.01905038411684101,0.661380204186265,-1.0551332262660529
1.9707666686962728,12.416839378695936,-0.01903793097262328,0.6450750557165651,-1.0932115145174415
1.9669587799282398,12.28944767194486,-0.01904095670770804,0.6288420117941832,-1.1310886158313183
1.9631488557582775,12.165295476861338,-0.01905828499191556,0.612679939041038,-1.1686620435211743
1.9593341549119794,12.044368702034781,-0.019088723471063964,0.5965878092245381,-1.2058271596992605
1.9555121762326046,11.926653450742261,-0.019131063322682173,0.5805647037006753,-1.2424768475758956
1.9516806620552876,11.81213599850346,-0.019184078450489906,0.5646098186873213,-1.2785011634529537
1.9478376017808685,11.70080276948864,-0.01924652429370189,0.5487224714609081,-1.3137869658953847
1.9439812357293087,11.59264031158412,-0.019317136221895643,0.5329021075843058,-1.3482175193320975
1.9401100593590912,11.48763526989664,-0.019394627480278186,0.5171483092904897,-1.3816720690855597
1.9362228279467033,11.385774358451009,-0.019477686643600525,0.5014608051658146,-1.4140253845599333
1.9323185618293843,11.287044329804555,-0.019564974529589906,0.48583948129871507,-1.4451472670342667
1.9283965523249782,11.191431942266203,-0.019655120514470596,0.4702843940847975,-1.4749020182167734
1.9244563684551537,11.098923924366932,-0.01974671818377402,0.4547957849079168,-1.503147865429264
1.9204978646126745,11.00950693618121,-0.019838320241019308,0.43937409694928253,-1.5297363390240197
1.9165211893300969,10.923167527044967,-0.019928432584758057,0.42401999441316196,-1.5545115974141357
1.9125267953265557,10.839892089153807,-0.02001550745065238,0.4087343844984515,-1.5773096949604417
1.9085154510315556,10.759666806454952,-0.02009793549934866,0.39351844249010814,-1.5979577879593148
1.9044882538103738,10.682477598166688,-0.020174036712468722,0.3783736403925436,-1.6162732741977786
1.9004466451453816,10.608310056169714,-0.020242049937452416,0.3633017795772151,-1.6320628621043287
1.896392428061997,10.537149375415371,-0.020300120896393888,0.3483050279662122,-1.6451215665989463
1.8923277871280395,10.468980276386933,-0.020346288443181582,0.3333859623181747,-1.6552316305847217
1.8882553114021867,10.40378691853362,-0.02037846881534737,0.31854761621495176,-1.6621613739902743
1.8841780207627248,10.341552803476617,-0.02039443757927315,0.30379353435505985,-1.665663976894357
1.8800993961142485,10.282260666668687,-0.02039180890548916,0.2891278337242425,-1.6654762103075598
1.8760234140509042,10.225892356085797,-0.020368011727953318,0.2745552721046414,-1.6613171387634855
1.8719545866554468,10.172428696459697,-0.020320262226620454,0.2600813241563769,-1.6528868346009933
1.8678980072418976,10.12184933755523,-0.020245531908871378,0.24571226488830256,-1.639865167053195
1.8638594030185973,10.074132585104287,-0.020140510324130563,0.23145525962111332,-1.6219107634178331
1.8598451958781035,10.029255213304783,-0.020001561080808746,0.21731845837392003,-1.5986602896249422
1.855862572843122,9.987192258394096,-0.019824669269007302,0.20331109073294834,-1.5697282705869402
1.8519195681662723,9.947916793887575,-0.019605377499488492,0.18944355433225565,-1.5347077770040978
1.848025159782432,9.911399689896381,-0.019338706338915154,0.1757274855796977,-1.4931724590647784
1.8441893838881427,9.877609361889508,-0.01901905260397605,0.16217579448904357,-1.4446806280164268
1.8404234731083613,9.846511518888953,-0.018640055193837993,0.14880263551652573,-1.3887823983894945
1.8367400263952132,9.818068928125143,-0.01819441193764394,0.13562327212155512,-1.3250313339399769
1.8331532231257353,9.79224122355036,-0.01767362075713543,0.12265377362628932,-1.2530026093722215
1.829679100869667,9.768984800242908,-0.017067601803547675,0.10991045944823785,-1.1723203940400873
1.8263359276670301,9.748252856045486,-0.016364130222820784,0.09740898252598464,-1.0826978713953876
1.8231447180595293,9.729995664287166,-0.015547965852188105,0.08516293505720474,-0.9839936809704444
1.8201299717607498,9.714161180723455,-0.014599497135606541,0.07318190057991808,-0.8762877640327348
1.8173207615378435,9.70069608659837,-0.013492605093453494,0.06146904067091129,-0.7599758855912362
1.814752375341252,9.689547310041664,-0.012191256872463,0.05001872489613345,-0.6358726470125664
1.812468858922386,9.680663878683902,-0.010643907316197264,0.038815588681484894,-0.5052945695958806
1.8105271181904194,9.673998516822458,-0.00877350000346767,0.027838029932950977,-0.37006885609095175
1.8090041853950103,9.669507453565256,-0.00645582795062363,0.01707260263905826,-0.23239250590671878
1.8080133603197455,9.667144174084047,-0.0034524228020253044,0.006560192173035148,-0.09447709233198157
