x,y,v_x,v_y,omega
2.375,32.48,0.0,2.2051282051282053,-4.081632653061225
2.374498432746881,32.08664550279347,-0.005572969479101356,2.165477319388745,-3.901831731041257
2.3730475072738266,31.70033291688804,-0.010548424665943789,2.126884746227137,-3.733262042326446
2.3707494902735604,31.320876176291318,-0.014985097559238495,2.089301260403146,-3.57498078439135
2.3676966411771248,30.948097786023858,-0.018935447956712974,2.0526808536797225,-3.426140841397638
2.3639722739850533,30.58182826892235,-0.022446409732971205,2.016980447448123,-3.285979560987388
2.359651693694706,30.221905661158228,-0.025560037937554233,1.9821596388199263,-3.153809022681096
2.354803023850678,29.8681750508805,-0.02831407144053374,1.9481804753770526,-3.0290075757698784
2.349487939314058,29.520488155184488,-0.030742423410802276,1.9150072545786367,-2.9110124613735553
2.34376231631418,29.178702931269292,-0.03287560992117021,1.8826063444790784,-2.799313363386655
2.3376768101404815,28.84268321820102,-0.03474112534215107,1.8509460229461911,-2.6934467577055825
2.3312773693939666,28.51229840616528,-0.03636377184134574,1.81999633300647,-2.59299094947872
2.32460569450099,28.187423130487225,-0.037765949191727086,1.7897289523052478,-2.4975617049775005
2.3176996471588014,27.867936988032643,-0.03896791016592636,1.7601170749679087,-2.406808398707067
2.310593616502064,27.553724273889866,-0.039987986020045344,1.7311353043962723,-2.3204106080822267
2.303318847027292,27.244673736477495,-0.040842785921863384,1.7027595557411752,-2.2380750978054955
2.2959037326674094,26.940678349433878,-0.04154737363238944,1.674966966965692,-2.1595331443346577
2.2883740808545148,26.641635098826622,-0.04211542428865842,1.6477358175593613,-2.084538157788396
2.2807533499314836,26.34744478437844,-0.04255936374502236,1.6210454540870987,-2.0128635645300186
2.2730628628605962,26.058011833543105,-0.04289049259817155,1.5948762218610608,-1.9443009186702733
2.26532199982033,25.77324412738546,-0.043119096738119964,1.5692094021127976,-1.8786582149872504
2.2575483719716036,25.493052837324583,-0.04325454602550459,1.5440271541191406,-1.8157583793948957
2.249757978405364,25.217352271891812,-0.043305382488270344,1.519312461800573,-1.7554379162009384
2.241965348048672,24.946059732736728,-0.04327939925275164,1.4950490843670226,-1.6975456940622813
2.2341837537970894,24.679098163219827,-0.04318275909816885,1.471190576931855,-1.6403451077093174
2.226424266343052,24.416393123458427,-0.04303376816891387,1.4477543093059226,-1.5855737183344971
2.218695844817173,24.15786988972596,-0.042837582118625886,1.424726065499267,-1.5331009539365978
2.211006561196167,23.903456242153275,-0.04259890255922095,1.4020922408638754,-1.4828045880493843
2.203363678333967,23.653082357713576,-0.04232201813188596,1.3798398084661485,-1.434570120310297
2.195773720956235,23.4066807090589,-0.04201084162069427,1.3579562876969125,-1.3882902092590201
2.188242540293684,23.1641859688214,-0.0416689435187633,1.3364297149419595,-1.3438641524357875
2.1807753729599937,22.925534919022905,-0.04129958241112866,1.3152486161524481,-1.3011974093643832
2.1733768946181486,22.690666365263965,-0.04090573249826283,1.2944019811690965,-1.2602011634608283
2.166051268923921,22.4595210553887,-0.04049010854870863,1.2738792396671796,-1.2207919193131105
2.158802192186116,22.23204160234456,-0.04005518853801453,1.2536702386010805,-1.1828911321363742
2.1516329341393776,22.008172410977068,-0.03960323420352223,1.2337652210376866,-1.1464248665272903
2.1445463751862506,21.78785960851871,-0.039136309720110854,1.2141548062774146,-1.1113234819256463
2.137545040430209,21.57105097854842,-0.03865629868034996,1.1948299711702093,-1.0775213424447232
2.1306311307900794,21.35769589821436,-0.03816491954331414,1.17578203254159,-1.044956548958374
2.123806551458247,21.147745278527047,-0.037663739699266584,1.157002630650807,-1.013570691535075
2.1170729379399087,20.941151507543616,-0.03715418828226908,1.1384837136095072,-0.9833086204903297
2.110431679888068,20.737868396276205,-0.03663756784929592,1.1202175226950473,-0.9541182344911179
2.1038839429287135,20.53785112716885,-0.03611506503242172,1.1021965784978125,-0.9259502842916996
2.0974306886524,20.341056204997848,-0.03558776025994692,1.0844136678466423,-0.8987581908108814
2.0910726929320558,20.147441410060182,-0.03505663663276832,1.0668618314607865,-0.8724978763784725
2.084810562712068,19.95696575352344,-0.03452258803376375,1.0495343522807534,-0.8471276080845332
2.0786447514004003,19.76958943481911,-0.03398642654032438,1.0324247444340096,-0.8226078522604359
2.072575572983471,19.585273800968523,-0.033448889203332804,1.0155267427947754,-0.7989011392068281
2.0666032149726927,19.403981307737975,-0.03291064424976075,0.9988342931001727,-0.7759719373613156
2.060730505652001,19.22590260338388,-0.03234168153570088,0.9798179775008762,-0.8033949270292021
2.0549571640393736,19.051237029636404,-0.03180655860460516,0.9609106196932892,-0.8322444939713992
2.049277174594595,18.879965222370906,-0.0313044352262678,0.9421094610344908,-0.8624093851988461
2.043684677748321,18.712068303888756,-0.030834418621221188,0.9234118554338455,-0.8937800899120392
2.0381739789138047,18.54752786292739,-0.030395568428956448,0.904815266359111,-0.9262486016360776
2.032739556644886,18.3863259351739,-0.02998690122569765,0.8863172642352146,-0.9597081822017133
2.027376070018918,18.22844498421159,-0.029607394618390813,0.8679155242349228,-0.9940531265712341
2.022078365318786,18.073867882828722,-0.029255990938630773,0.8496078244635928,-1.0291785274893221
2.016841482084143,17.9225778946181,-0.028931600557400815,0.8313920445433236,-1.064980038912514
2.0116606585984926,17.774558655794735,-0.028633104838717036,0.8132661646051563,-1.1013536371361734
2.0065313368757307,17.629794157157132,-0.02835935874752697,0.7952282647015602,-1.138195378494476
2.0014491672072494,17.48826872611501,-0.02810919312448458,0.777276524655329,-1.1754011524562673
1.9964100123286723,17.349967008703157,-0.02788141663748506,0.7594092243652718,-1.2128664288771673
1.9914099512637629,17.21487395149684,-0.02767481741706491,0.74162474459377,-1.2504859980952687
1.9864452829020336,17.08297478333942,-0.02748816437992678,0.7239215682664804,-1.288153702473457
1.981512529366069,16.954254996786613,-0.02732020824190241,0.7062982823202597,-1.3257621578949872
1.9766084392246248,16.828700329165017,-0.0271696822185875,0.6887535801418951,-1.363202463609641
1.971729990608175,16.70629674313397,-0.027035302408632025,0.6712862646475354,-1.4003638987047682
1.9668743942847895,16.587030406630205,-0.02691576785120821,0.6538952520609816,-1.4371336033380187
1.9620390967560892,16.470887672063466,-0.026809760245461403,0.6365795764583445,-1.473396242715986
1.9572217834355823,16.357855054618067,-0.026715943315726565,0.6193383951571814,-1.509033651634936
1.952420381974995,16.247919209500296,-0.026632961801909893,0.6021709950402778,-1.5439244572163104
1.9476330658083567,16.141066907954055,-0.02655944004962818,0.5850767999179349,-1.5779436772714168
1.9428582579886442,16.037285011847104,-0.02649398016939761,0.5680553790481995,-1.6109622915182584
1.9380946353978525,15.936560446607071,-0.026435159728287277,0.5511064569521704,-1.6428467826517543
1.933341133418525,15.838880172260033,-0.026381528930907724,0.5342299246815845,-1.6734586440416857
1.928596951163208,15.744231152294017,-0.02633160723928176,0.5174258527185899,-1.7026538506084417
1.9238615573681104,15.652600320035155,-0.026283879372914456,0.5006945057131847,-1.7302822892170946
1.9191346970686505,15.56397454218465,-0.026236790621085596,0.4840363592924294,-1.7561871447534667
1.9144163991877572,15.478340579119674,-0.026188741388838525,0.46745211920730767,-1.7802042379280327
1.9097069851830135,15.3956850415104,-0.026138080886091996,0.45094274311794535,-1.802161310833013
1.9050070789162754,15.3159943427478,-0.026083099855441664,0.4345094653553954,-1.8218772564100403
1.9003176179296544,15.239254646612437,-0.02602202221812622,0.418153825037531,-1.8391612883494453
1.8956398663351368,15.165451809543008,-0.02595299549873432,0.4018776979561489,-1.8538120486506504
1.8909754295522467,15.094571316784904,-0.0258740798667113,0.38568333268943833,-1.8656166512878238
1.8863262711597553,15.026598211614694,-0.025783235605415993,0.36957339142401485,-1.8743496623760678
1.88169473216456,14.961517016747738,-0.0256783087856437,0.3535509959865909,-1.8797720202493542
1.8770835530348717,14.899311646947119,-0.025557014877559535,0.33761977957585976,-1.8816299034106523
1.872495898897792,14.839965311768314,-0.025416919978879807,0.32178394463307464,-1.8796535610662422
1.8679353883661398,14.78346040730614,-0.02525541926170153,0.3060483271688336,-1.8735561308661652
1.8634061265403554,14.729778395773884,-0.025069712135901156,0.29041846763401746,-1.8630324829082219
1.858912742835091,14.678899671764569,-0.02485677347815201,0.27490068802505857,-1.8477581499783566
1.8544604344168463,14.630803414159011,-0.02461332005789756,0.25950217425892214,-1.827388434185989
1.850055016224705,14.5854674229128,-0.024335770965896758,0.24423106181010856,-1.8015578235792824
1.8457029788058978,14.542867940461797,-0.024020200354181804,0.229096520978817,-1.7698799146055868
1.8414115555716264,14.502979458362493,-0.02366228002660994,0.21410883568010508,-1.7319481252609583
1.837188801630162,14.465774511218438,-0.023257208211882617,0.19927946592049572,-1.6873376101978124
1.8330436871865494,14.431223462208326,-0.022799618939371092,0.18462107863630872,-1.635608967157563
1.8289862097767067,14.39929428800312,-0.022283463392214146,0.17014752364374955,-1.576314571537928
1.8250275315946007,14.36995237604238,-0.02170184974229626,0.15587372036445754,-1.5090087119195994
1.8211801513012222,14.343160354651005,-0.0210468201841319,0.141815406206392,-1.4332631381547043
1.8174581246520245,14.318877986950358,-0.02030903147362262,0.12798867935633695,-1.3486901669865534
1.8138773561115844,14.297062173294268,-0.019477285642375622,0.11440925015578776,-1.2549760476314862
1.810455995989663,14.277667123327937,-0.01853782682342025,0.10109130502567117,-1.151927655049606
1.8072149970501394,14.260644774297187,-0.0174732725046171,0.08804590642710862,-1.0395352344235302
1.8041789149122842,14.245945537559788,-0.016260973471553076,0.07527894621068243,-0.9180518099451755
1.801377084532613,14.233519429674587,-0.014870475191462612,0.06278891918043439,-0.7880841824222226
1.7988453850609323,14.223317548658873,-0.013259518938320496,0.05056531432749524,-0.6506788854790164
1.7966289598912577,14.21529362426159,-0.01136742739139651,0.038589401197845194,-0.5073681935194323
1.794786643035482,14.209404891467784,-0.009102759894999115,0.026840963177782194,-0.36012142324491725
1.7933991332627577,14.205610480250776,-0.006314015357494433,0.015319161455640301,-0.21114043159337914
1.7925892840041078,14.203861664204421,-0.0026843097386161766,0.004112127948319243,-0.06247151005785259
