x,y,v_x,v_y,omega
2.375,32.48,0.0,3.333333333333333,-7.142857142857143
2.3734009608138975,31.8543282329858,-0.01683199143265707,3.25268526681609,-6.673325769706224
2.3688450898831634,31.24364932667719,-0.031124544680331823,3.1755137469587726,-6.250131039113075
2.361779838962286,30.647326334727506,-0.043246517644694074,3.1015703788273767,-5.867331942177068
2.352588138842151,30.064767056702642,-0.053508220461993175,3.030632547750116,-5.5198933646292065
2.341598539729537,29.495419490845727,-0.0621717701971023,2.9624997244279707,-5.203527417040733
2.329093578902896,28.938767923926637,-0.069459396399117,2.896990453667696,-4.914566161458252
2.3153167218315276,28.39432954273903,-0.07556015172055225,2.833939874622926,-4.649858785436317
2.3004781473391467,27.861651477049335,-0.08063536925187488,2.7731976589527934,-4.406687981534721
2.28475959022713,27.34030820274335,-0.08482312666409157,2.7146262811101685,-4.182701535628953
2.2683184110507355,26.829899248287678,-0.08824191729795704,2.658099555265372,-3.9758560472234112
2.2512910289568526,26.330047158644756,-0.0909936836902818,2.6035013883443052,-3.7843703921897602
2.23379582714464,25.84039567931901,-0.09316633538564038,2.5507247098214627,-3.606687057155414
2.215935619793101,25.360608129891432,-0.09483584726214188,2.4996705473109264,-3.4414398701486477
2.197799752887538,24.890365941675377,-0.09606801490167935,2.4502472233843875,-3.287426956054256
2.1794658982874084,24.42936733832927,-0.09691992825757414,2.402369653943063,-3.1435879809595186
2.161001589874588,23.977326141639963,-0.0974412129300107,2.355958732260157,-3.008984933319501
2.1424655421453167,23.533970687427292,-0.09767507895705692,2.3109407857679765,-2.8827858343563557
2.123908784734513,23.099042838755203,-0.09765920957771683,2.267247094990831,-2.7642508843714055
2.10537564075874,22.67229708547339,-0.09742651648305305,2.224813465870385,-2.6527206425408454
2.086904572278448,22.253499720636224,-0.09700578330949676,2.1835798482050097,-2.5476059104603475
2.068528912411319,21.8424280856161,-0.09642221529185932,2.1434899941121013,-2.4483790481403194
2.050277500519239,21.438869876793873,-0.09569790988793188,2.104491151385021,-2.3545664983531664
2.032175234317029,21.04262250760909,-0.09485226066164493,2.066533787402156,-2.2657423335289435
2.014243550612367,20.653492520516217,-0.0939023046505905,2.029571339891229,-2.1815226705981767
1.9965008446038668,20.271295044044912,-0.09286302175467066,1.993559991385698,-2.1015608247062527
1.978962836174285,19.895853290721146,-0.0917475932935587,1.9584584646539225,-2.025543093685138
1.96164289036663,19.526998092087496,-0.09056762573438909,1.9242278367529022,-1.9531850824439354
1.9445522981808594,19.164567467477283,-0.08933334464214283,1.8908313696704198,-1.8842284907273008
1.9277005229437223,18.808406223559203,-0.08805376311719515,1.8582343557830563,-1.8184382995460253
1.9110954167564058,18.45836558198458,-0.08673682832824087,1.8264039765813949,-1.7556003014523618
1.894743410891151,18.11430283274541,-0.08538954920075915,1.7953091733046225,-1.6955189280720082
1.8786496834701634,17.776081011093893,-0.0840181078622684,1.7649205282902687,-1.6380153352040125
1.8628183073025124,17.4435685960877,-0.08262795706037279,1.7352101559854396,-1.582925711593455
1.8472523803644643,17.11663922901379,-0.08122390544539716,1.7061516026873187,-1.5300997823600038
1.8319541410752382,16.795171450110836,-0.0798101923359304,1.6777197541858953,-1.479399482183713
1.816925070234658,16.479048452158708,-0.078390553354386,1.6498907505733396,-1.4306977768349363
1.802165981244232,16.16815784963564,-0.0769682781237815,1.6226419075642144,-1.3838776145924157
1.7876771000226666,15.86239146226169,-0.07554626105059227,1.5959516437405064,-1.3388309916085213
1.7734581358455455,15.561645111852656,-0.07412704607699913,1.5697994131966955,-1.2954581174243023
1.7595083441825379,15.265818431503142,-0.0727128661651843,1.5441656431139654,-1.253666668668389
1.7458265824703858,14.9748146862025,-0.0713056781732588,1.5190316758401827,-1.2133711205416997
1.7324113596429775,14.688540604063725,-0.06990719369419797,1.494379715094305,-1.174492147035139
1.719272145598203,14.40690954946589,-0.06840032256658769,1.4701577017250251,-1.1335679172454112
1.7064167134026262,14.129837842425125,-0.06692001633422012,1.4463865829146016,-1.0944445021509512
1.6938399851656483,13.857241298741496,-0.06546659668660207,1.4230507190183252,-1.057021847508123
1.6815368337153878,13.589038639944548,-0.0640402606845592,1.400135163054832,-1.0212065118851408
1.6695021047332532,13.3251513653716,-0.062641097022123,1.377625621923567,-0.9869111597976443
1.6577306359801098,13.0655036313684,-0.06126910037938653,1.3555084202153858,-0.9540540988987316
1.6462172739553331,12.810022137138638,-0.059924184091946144,1.3337704664137067,-0.9225588569502485
1.6349568882897896,12.558636016805671,-0.05860619133482788,1.3123992213017521,-0.892353794758915
1.6239443841384886,12.311276737283272,-0.05731490499465631,1.29138266840771,-0.8633717516643838
1.6131747128076328,12.06787800158278,-0.05605005638277386,1.2707092863343097,-0.8355497205232841
1.6026428808235234,11.828375657211932,-0.054811332923642965,1.2503680228325293,-0.808828549449523
1.5923439576267808,11.592707609346188,-0.05359838493680382,1.2303482704910933,-0.7831526678516375
1.5822730820542064,11.360813738476736,-0.05241083161661081,1.2106398439242014,-0.7584698345571594
1.5724254677519702,11.132635822260713,-0.05124826630166496,1.1912329583497088,-0.7347309060355801
1.5627964076473804,10.908117461318902,-0.05011026111507196,1.172118209458821,-0.7118896229288709
1.5533812775919658,10.687204008744104,-0.048996371047187647,1.1532865544864077,-0.6899024132745004
1.544175539275784,10.469842503100054,-0.04790613754419629,1.134729294398336,-0.6687282109630079
1.535174742501523,10.25598160470592,-0.04683909165855496,1.1164380571188628,-0.6483282881126209
1.5263745268969244,10.045571535015547,-0.04579475681090188,1.098404781727172,-0.6286661001690741
1.5177706231351897,9.838564018913488,-0.04477265120735838,1.0806217035576537,-0.6097071426513714
1.5093588537251308,9.634912229761873,-0.04377228995115724,1.0630813401435502,-0.5914188185652036
1.5011351334258745,9.43457073704316,-0.04279318688312112,1.0457764779481893,-0.573770315596401
1.4930954693347238,9.23749545645402,-0.041834856181621596,1.028700159832227,-0.5567324922782846
1.4852359606912948,9.04364360231509,-0.04089681374920914,1.0118456732091625,-0.540277772400105
1.477552798436164,8.852973642169953,-0.039978578410061666,0.9952065388449168,-0.5243800469897977
1.470050355984223,8.665650153353699,-0.03899450003142241,0.976619659220921,-0.5521585131879081
1.4627299685386916,8.481847714998764,-0.03806220992154168,0.958142849778373,-0.5814803994914202
1.4555819429122607,8.301545687715656,-0.03718016509351972,0.9397732268859298,-0.6122337776623684
1.4485968811400574,8.124723969019165,-0.03634680092967457,0.9215080225508206,-0.6443089339518303
1.4417656842295745,7.951362971711205,-0.03556053497014609,0.9033445806908521,-0.6775981201829019
1.435079555228545,7.7814436029334075,-0.03481977030384895,0.8852803538122682,-0.7119953091020679
1.4285300016837639,7.614947243813024,-0.03412289858858272,0.8673129000865235,-0.7473959529429154
1.422108837559046,7.451855729626722,-0.03346830272423705,0.8494398808219328,-0.7836967441453835
1.4158081846762174,7.292151330407368,-0.032854359200275574,0.831659058329153,-0.8207953771648654
1.4096204737392695,7.135816731918755,-0.03227944013602008,0.8139682941825684,-0.8585903102882309
1.4035384449985295,6.982835016922532,-0.03174191502966226,0.7963655478829358,-0.896980526347884
1.3975551486089204,6.833189646660291,-0.031240152229381007,0.7788488759301397,-0.935865291189888
1.3916639447340748,6.686864442471652,-0.0307725201374129,0.7614164313186751,-0.975143908707458
1.385858503446259,6.543843567466485,-0.03033738815538783,0.744066463472557,-1.0147154711961472
1.3801328044707133,6.4041115081657125,-0.02993312737667297,0.7267973186408392,-1.0544786037211076
1.3744811368221896,6.267653056020745,-0.02955811102883874,0.7096074407798615,-1.094331201109137
1.3688980983811192,6.134453288716042,-0.02921071466663929,0.6924953729538433,-1.1341701560879214
1.3633785954570483,6.004497551152728,-0.028889316113054953,0.6754597592915775,-1.17389107699102
1.357917842387729,5.877771436003361,-0.028592295142938876,0.6584993475438816,-1.2133879933287184
1.3525113612235922,5.754260763718737,-0.028318032900606336,0.6416129922942497,-1.252553047390859
1.347154981549305,5.633951561856808,-0.028064911039258962,0.6247996588839659,-1.291276169897176
1.3418448404967673,5.516830043591149,-0.027831310566400258,0.6080584281229597,-1.3294447375426095
1.336577383007304,5.402882585241905,-0.027615610375319143,0.591388501869086,-1.3669432100988963
1.3313493624050163,5.292095702655047,-0.027416185438235114,0.5747892095715196,-1.4036527445291107
1.3261578413483683,5.184456026236315,-0.027231404631744036,0.5582600158887978,-1.4394507833491006
1.3210001932331812,5.079950274423524,-0.027059628159700134,0.5418005295089972,-1.4742106142301599
1.3158741041274193,4.9785652253548776,-0.026899204532529423,0.5254105133188748,-1.5078008975834885
1.3107775753265956,4.880287686460953,-0.02674846705509015,0.5090898960908573,-1.540085158603794
1.3057089266284536,4.785104461673548,-0.026605729767457464,0.49283878588182933,-1.5709212399846382
1.3006668004369895,4.693002315904998,-0.02646928277427114,0.47665748536607,-1.600160711264115
1.2956501668190379,4.603967936406338,-0.02633738688837584,0.4605465093566716,-1.6276482305349131
1.2906583296518388,4.517987890560931,-0.02620826750319303,0.44450660480550813,-1.6532208540856432
1.2856909340174794,4.435048579611333,-0.026080107595326918,0.4285387736112984,-1.6767072894716237
1.2807479750202453,4.355136187750482,-0.02595103974397893,0.41264429860818946,-1.6979270876030776
1.2758298082261126,4.278236625933193,-0.025819137036365954,0.39682477315274656,-1.7166897697738466
1.27093716195041,4.2043354696801885,-0.02568240270787173,0.38108213477360103,-1.7327938862599326
1.2660711516507475,4.1334178900544245,-0.025538758341207626,0.3654187033923377,-1.7460260043755391
1.2612332967185176,4.065468576889305,-0.025386030419106583,0.3498372246615311,-1.7561596259456382
1.2564255400048363,4.000471653242588,-0.0252219349880641,0.33434091898812723,-1.7629540374140273
1.2516502704673478,3.9384105799422535,-0.025044060143394966,0.318933536804853,-1.7661531007954503
1.2469103493852656,3.8792680489888767,-0.024849845983786124,0.3036194205991036,-1.7654840011798505
1.2422091406648657,3.8230258644946424,-0.02463656159936975,0.2884035740770452,-1.760655977632168
1.2375505458516578,3.769664809791898,-0.024401278539659142,0.2732917385834205,-1.7513590807283161
1.232939044586766,3.7191644993643607,-0.02414084003814958,0.2582904764432739,-1.7372630239751865
1.2283797414062965,3.6715032143896345,-0.023851825019425416,0.2434072601328053,-1.7180162313662135
1.2238784200036945,3.6266577210056425,-0.023530505534279086,0.22865056496184558,-1.693245234191964
1.2194416063882934,3.584603071037151,-0.023172795680471054,0.21402996102226163,-1.6625546439078405
1.2150766428300162,3.5453123860079927,-0.02277418914349984,0.19955619717938897,-1.6255280341631364
1.2107917751641353,3.508756627066017,-0.022329681023668106,0.18524126536771493,-1.5817302175587298
1.2065962570771982,3.47490435631655,-0.02183366725988022,0.171098426731945,-1.530711619336821
1.2025004766275573,3.4437214994948455,-0.02127981115739256,0.1571421713912426,-1.4720157533382903
1.1985161128324624,3.4151711265724174,-0.020660860369923335,0.14338806989747166,-1.4051912189021352
1.1946563342632024,3.3892132765890217,-0.019968387727550246,0.12985245624351685,-1.3298101760300072
1.1909360581683406,3.365804866508835,-0.019192413270995648,0.11655186039003654,-1.245495900255438
1.187372299175305,3.344899741465138,-0.018320839287271858,0.10350208743835401,-1.151962652440061
1.183984653403748,3.3264489438679448,-0.017338589887014734,0.09071683463735744,-1.0490713831578553
1.1807959903911582,3.3104012955518343,-0.01622628392971827,0.0782057792164516,-0.9369039319828759
1.1778334671658994,3.296704384976156,-0.014958171073006852,0.0659722268433342,-0.8158547992396378
1.1751300463591838,3.285305997378824,-0.01349889005031582,0.05401080049700719,-0.6867307164149964
1.172726818990393,3.276155859032638,-0.011798240147481362,0.042306445252301685,-0.5508314916183421
1.1706766887497848,3.2692071874004114,-0.00978207817471103,0.03083746666588317,-0.40996195717208817
1.1690507212058225,3.264416746771854,-0.007333369656469926,0.019588224161022266,-0.2663055609518269
1.167951515498294,3.261739997677598,-0.004237216738567116,0.008588082094322809,-0.12209785750418836
