x,y,v_x,v_y,omega
2.375,32.48,0.0,3.0769230769230766,-4.816326530612245
2.3737690713013646,31.84173665815939,-0.011723130463194354,3.0017754167969763,-4.494285660586769
2.3702658596773576,31.218914540027797,-0.021640789765441856,2.9298638035039177,-4.204576237991952
2.364841469647793,30.610877617579582,-0.03002006765898729,2.8609640293362197,-3.9429985763046496
2.3577954200921205,30.01701466198469,-0.03708516620455876,2.7948736429960856,-3.7059979957900513
2.3493838534634164,29.436754973274105,-0.0430249921640498,2.7314091066285493,-3.4905519339745017
2.339826306270308,28.869564656592853,-0.04799926681793521,2.6704034331928765,-3.2940791576991684
2.3293113186808125,28.314943354632142,-0.05214347212964095,2.6117042045281815,-3.114366289063518
2.3180011020539113,27.77242136422927,-0.055572876697988854,2.5551718945467994,-2.949507996736453
2.30603543794763,27.241557079147498,-0.05838582907611869,2.5006784395653177,-2.7978580472898646
2.2935349471524007,26.721934711862726,-0.060666464211782505,2.448106010765852,-2.6579890419086762
2.2806038400119433,26.21316225561701,-0.06248693712590624,2.3973459534790487,-2.5286591401347898
2.2673322378657708,25.714869654644648,-0.06390927379002077,2.3482978653053608,-2.408784435162475
2.25379813850857,25.226707155766007,-0.06498691056427187,2.3008687906816765,-2.297415923860937
2.240069085090805,24.748343818794353,-0.06576597912872871,2.2549725138102743,-2.1937202302773584
2.226203587112517,24.279466166645967,-0.06628638256925048,2.210528935221966,-2.096963409289454
2.2122523335037974,23.819776958860153,-0.0665826994185588,2.16746351988105,-2.0064972886965102
2.1982592307928885,23.368994074555612,-0.06668494544723988,2.1257068068288674,-1.9217479118162482
2.184262293690758,22.926849492775148,-0.06661921743019336,2.085193972032695,-1.8422057249322825
2.1702944108007785,22.493088359779225,-0.06640823866484764,2.045864437452285,-1.7674172195056705
2.1563840043840865,22.067468134201707,-0.06607182244650618,2.00766152042883,-1.696977791571856
2.1425556000103025,21.649757802125254,-0.06562726682762814,1.9705321183945335,-1.6305256229864629
2.1288303193693197,21.239737155106994,-0.06508969165792099,1.934426424636506,-1.5677364233150932
2.115226307409296,20.83719612501705,-0.06447232700896884,1.8992976714582055,-1.5083188988550165
2.1017591032163163,20.441934170267018,-0.06378676054322213,1.8651018975897191,-1.4520108378338055
2.088441962596288,20.053759708622067,-0.06304315012371448,1.8317977371241294,-1.3985757192731634
2.075286139106333,19.672489592324332,-0.06225040692347829,1.799346227616199,-1.3477997681400962
2.0623011292682563,19.297948621719843,-0.06141635343915251,1.7677106352836744,-1.299489391868882
2.0494948868458764,18.92996909398648,-0.06054786010732293,1.736856295510272,-1.253468943632016
2.0368740103527023,18.568390383915492,-0.05965096363719288,1.706750467070564,-1.2095787662703026
2.024443907353646,18.213058554010967,-0.05873096968714876,1.6773621986868028,-1.167673477885059
2.012208938615172,17.863825991446273,-0.05779254210784712,1.6486622066912449,-1.1276204660092983
2.0001725447270466,17.520551069659255,-0.056839780636200446,1.6206227627089418,-1.0892985622197684
1.9883373574529004,17.18309783258296,-0.05587628864138503,1.593217590398647,-1.0525968731980848
1.976705297755502,16.85133569969949,-0.054905232286220025,1.5664217703962726,-1.0174137477351795
1.9652776621773926,16.525139190274533,-0.05392939226720076,1.5402116526985592,-0.983655862111684
1.9540551990309227,16.20438766528153,-0.05295120912775011,1.5145647758062404,-0.9512374087699462
1.9430381756578605,15.888965085660022,-0.051972822996653296,1.4894597920176427,-0.9200793752967928
1.9322414557964174,15.578761982351597,-0.05085308044566158,1.4648554775864138,-0.8860577705454761
1.9216780658765886,15.273672903117845,-0.0497506330765185,1.4407548008302733,-0.8536452747048134
1.9113442984579403,14.973594026935572,-0.048666199482036994,1.4171392580485291,-0.8227462827851612
1.9012363117580757,14.678425326639786,-0.04760034051667257,1.3939912209589413,-0.7932719484044448
1.8913501606368883,14.388070390544865,-0.046553479685112927,1.371293884706978,-0.7651396304292832
1.8816818235601567,14.102436254597283,-0.04552592104566319,1.3490312195557235,-0.7382723909455127
1.8722272260318933,13.821433244318847,-0.04451786493779741,1.3271879259532,-0.7125985392496874
1.8629822609241127,13.544974825860013,-0.043529421802972465,1.3057493927023716,-0.6880512171575406
1.8539428060798302,13.272977465537885,-0.042560624333050606,1.2847016579845805,-0.6645680214547872
1.8451047395190416,13.005360497283455,-0.04161143815065097,1.2640313730100012,-0.6420906597801083
1.836463952537247,12.742045997468043,-0.04068177119977137,1.243725768089167,-0.6205646366382813
1.8280163609510072,12.482958666620188,-0.039771482002514714,1.2237726209380226,-0.5999389666006057
1.8197579147143288,12.228025717581918,-0.038880386918229634,1.204160227045508,-0.5801659120663567
1.811684606102851,11.977176769687645,-0.038008266524417064,1.184877371947578,-0.561200743238456
1.8037924766392663,11.73034374858032,-0.03715487122400756,1.1659133052650208,-0.5430015182135759
1.7960776229128141,11.487460791308163,-0.036319926170775126,1.1472577163745792,-0.5255288813055643
1.7885362014275692,11.248464156371476,-0.0355031355934626,1.1289007115938687,-0.50874587791492
1.7811644325983655,11.013292138413213,-0.03470418658942879,1.1108327927705326,-0.4926177844290985
1.7739586039992152,10.781884987268924,-0.03392275245009764,1.093044837175094,-0.4771119517913465
1.7669150729567868,10.554184831111996,-0.033158495573030834,1.0755280786051553,-0.46219766151184716
1.7600302685706821,10.330135603448774,-0.03241107000891647,1.058274089616024,-0.44784599301621153
1.753300693232711,10.10968297373513,-0.031680123686045995,1.0412747647996248,-0.43402970133452606
1.7467229237089437,9.892774281401998,-0.03096530034983443,1.024522305039706,-0.4207231042307841
1.740293611840905,9.679358473091746,-0.030266241250535186,1.0080092026769774,-0.4079019779589301
1.7340094849157135,9.469386042920757,-0.029582586608431185,0.9917282275229328,-0.39554346090909825
1.7278730255129766,9.262950047514032,-0.028859883893824764,0.974328871588721,-0.41053946463179936
1.7218845095634254,9.06015574169147,-0.028173601339995653,0.9570454695785221,-0.4275109616304318
1.7160363310884232,8.860979116334835,-0.027523336517168408,0.9398747719132541,-0.4463437963174967
1.7103209774737906,8.66539683126567,-0.026908602669807203,0.922813657316869,-0.46692697176587333
1.7047310463474863,8.473386188869,-0.02632883662833056,0.9058591274133434,-0.48915240060092247
1.6992592608641681,8.284925108806846,-0.02578340606993678,0.8890083017500371,-0.5129146640556973
1.6938984835283817,8.09999210373406,-0.025271616175648427,0.8722584132288915,-0.5381107782135343
1.6886417286786317,7.918566255932433,-0.024792715726732764,0.8556068039294702,-0.5646399664912274
1.683482173745929,7.740627194782256,-0.024345902679961656,0.8390509213103191,-0.5924034374383618
1.6784131693924733,7.566155074993027,-0.02393032925771037,0.8225883147775626,-0.6213041669442853
1.6734282486289223,7.395130555517117,-0.023545106585633305,0.8062166326120752,-0.6512466839536512
1.6685211350021358,7.2275347790717035,-0.023189308907570004,0.789933619249019,-0.6821368587944223
1.6636857499393787,7.063349352195424,-0.022861977404402527,0.7737371129060208,-0.7138816932185789
1.6589162193296345,6.902556325766614,-0.02256212364078149,0.7576250435588366,-0.7463891112453278
1.6542068794179539,6.745138175910004,-0.022288732660939323,0.7415954312660229,-0.7795677498791215
1.649552282084575,6.59107778521814,-0.022040765752192534,0.7256463848469559,-0.8133267487499277
1.644947199576916,6.440358424212551,-0.021817162892176542,0.7097761009205491,-0.8475755376905431
1.6403866287594377,6.292963732967792,-0.021616844893333348,0.6939828633152533,-0.8822236212248282
1.6358657949437934,6.148877702818925,-0.02143871525565961,0.67826504286444,-0.9171803588909977
1.6313801553596488,6.00808465806962,-0.021281661736194984,0.6626210976051232,-0.9523547402648679
1.6269254023250261,5.87056923761385,-0.021144557641161566,0.6470495734022259,-0.9876551534785294
1.6224974661740816,5.736316376378959,-0.021026262844025846,0.6315491050253265,-1.0229891459494467
1.6180925179998074,5.605311286491737,-0.020925624530014963,0.6161184177101056,-1.0582631759426202
1.6137069722693576,5.477539438061697,-0.020841477664745336,0.6007563292426541,-1.0933823534832305
1.6093374893704935,5.352986539467011,-0.02077264518157826,0.5854617526115076,-1.1282501690181437
1.604980978149126,5.231638517018418,-0.02071793787906361,0.5702336992798667,-1.1627682080908177
1.6006345985001103,5.113481493864427,-0.020676154016325443,0.5550712831390971,-1.19683585014459
1.5962957640764006,4.998501767987307,-0.02064607859043264,0.5399737252144302,-1.2303499494032717
1.5919621451854642,4.886685789123266,-0.02062648227562885,0.524940359205006,-1.2632044955949224
1.587631671946554,4.778020134421652,-0.02061611999970663,0.5099706379532201,-1.2952902520845517
1.583302537788173,4.672491482636502,-0.02061372912773052,0.4950641409529826,-1.3264943687649609
1.5789732033719068,4.570086586618999,-0.020618027217662704,0.4802205830232517,-1.3566999668237136
1.5746424010369084,4.4707922438508625,-0.0206277093061303,0.465439824292321,-1.3857856922616731
1.5703091398688387,4.374595264725855,-0.02064144467548868,0.4507218816601392,-1.413625234790397
1.56597271150815,4.2814824382488155,-0.020657873045354328,0.4360669419306966,-1.4400868084911602
1.5616326968254985,4.191440494778469,-0.020675600122754118,0.4214753768345122,-1.4650325903917127
1.557288973606957,4.104456065390611,-0.02069319243478371,0.4069477601926978,-1.4883181129295544
1.552941725408929,4.020515637381926,-0.020709171355959927,0.39248488750904825,-1.5097916061543866
1.548591451762508,3.9396055053704053,-0.020722006229003095,0.3780877983149666,-1.529293285524235
1.5442389799299296,3.86171171737584,-0.02073010646221801,0.36375780163326155,-1.5466545813376524
1.5398854784422098,3.786820015182517,-0.02073181246844585,0.3494965049698119,-1.5616973063171113
1.5355324726776756,3.714915768195798,-0.02072538528902309,0.33530584728466395,-1.5742327587588723
1.5311818627766982,3.6459838999054774,-0.020708994720285454,0.32118813643266875,-1.584060760198139
1.5268359442295871,3.580008805962862,-0.020680705728391036,0.307146091592248,-1.5909686290020775
1.5224974315237807,3.516974262768663,-0.020638462898338095,0.2931828912096509,-1.594730095125621
1.518169485295244,3.4568633253608603,-0.020580072611534342,0.2793022269599031,-1.5951041670641857
1.5138557435003752,3.3996582132952753,-0.020503182577693506,0.2655083641408996,-1.5918339707069316
1.509560357213196,3.3453401831430583,-0.020405258252583994,0.2518062087373477,-1.5846455926259972
1.50528803176503,3.2938893862142393,-0.02028355553947419,0.23820138106091762,-1.573246979200322
1.5010440740908189,3.245284710195527,-0.020135088976821817,0.22470029530777993,-1.5573269705694546
1.4968344473444626,3.199503603626166,-0.019956594321809133,0.2113102434480566,-1.536554588640991
1.4926658341217354,3.1565218826236787,-0.0197444839898802,0.19803948038516964,-1.5105787568292972
1.4885457100264625,3.1163135201561225,-0.019494793107954916,0.18489730502011503,-1.4790287138367297
1.4844824299035357,3.0788504196544686,-0.019203112824681096,0.17189412832895443,-1.441515505722614
1.4804853299549254,3.044102177182719,-0.01886450573351095,0.15904151425912746,-1.3976351148378205
1.4765648503386508,3.012035840183504,-0.01847339537386888,0.14635217144767,-1.3469740303586772
1.4727326850310376,2.982615676606816,-0.01802341707958959,0.13383986261603126,-1.2891184055491183
1.4690019692082248,2.955802976788906,-0.017507209804341513,0.12151918326880974,-1.22366840097467
1.4653875199822801,2.9315559226267887,-0.01691611615703647,0.10940514208469075,-1.1502598801247859
1.461906155306535,2.9098295749645047,-0.01623973789767943,0.09751245469896198,-1.068596242076746
1.4585771302889348,2.890576050051237,-0.015465262269942182,0.08585444923691979,-0.9784936301546417
1.4554227532041812,2.873744975546078,-0.014576424251518954,0.07444149843126109,-0.8799425016085843
1.4524692801794403,2.859284324439397,-0.013551890269822415,0.06327898829902939,-0.7731864216806652
1.4497482464815796,2.847141695267375,-0.012362716376470585,0.05236509905354382,-0.6588128976210174
1.4472984926239651,2.837265988010632,-0.010968272743668366,0.041689255772580855,-0.5378384207638569
1.44516934318208,2.829609129696806,-0.0093093409885703,0.03123320435908449,-0.411749633931343
1.4434259182712728,2.824126876786803,-0.007294705781021408,0.020978728117126658,-0.28244095073554776
1.4421594494992611,2.8207762499098514,-0.004766901571470917,0.010932004044314598,-0.15198402541962405
1.441516211170032,2.819500712978254,-0.0013591777545223578,0.001215966732804141,-0.022218598190489575
