x,y,v_x,v_y,omega
2.375,32.48,0.0,2.6153846153846154,-5.918367346938775
2.3734946108991144,31.88554092265201,-0.01309034000770169,2.553824752858771,-5.545613901379977
2.3691972961210808,31.30494940884924,-0.024277614583895046,2.494797106295741,-5.20786266334375
2.3625152683189463,30.737663178018305,-0.033826974999880216,2.438126640060213,-4.900819168382559
2.3537994057484375,30.183158176305845,-0.0419631343088923,2.3836559835263804,-4.620817831769439
2.343352760247138,29.640944797597893,-0.048877261354582605,2.33124296176018,-4.36471584045414
2.3314376314210152,29.11056462129696,-0.05473255452474732,2.280758571291415,-4.129807332809021
2.3182814779976093,28.591587575553103,-0.05966877959182415,2.232085304742106,-3.9137535142759154
2.3040818798063887,28.083609454060653,-0.06380598728835463,2.1851157517139814,-3.7145253958824367
2.289010720022205,27.586249729244635,-0.06724757605237264,2.1397514205992314,-3.530356607805782
2.2732177235363933,27.099149615923345,-0.07008282817208049,2.09590173871634,-3.3597043105124014
2.2568334610370395,26.621970348239362,-0.0723890196483853,2.0534831976661025,-3.20121665573575
2.239971907741856,26.154391639444043,-0.07423318291842815,2.0124186179453547,-3.0537055765618204
2.2227326293907463,25.696110299468288,-0.07567358535209234,1.972636512278632,-2.916123936999235
2.205202655079573,25.246838989458933,-0.07676097387550024,1.9340705312809592,-2.7875462658494867
2.1874580860620845,24.806305095860292,-0.07753962627657336,1.8966589782724352,-2.667152451412688
2.1695654812054155,24.37424970936426,-0.07804824204228898,1.8603443825626214,-2.554213892792457
2.1515830529309112,23.95042669628407,-0.07832069947513913,1.8250731224825052,-2.448081697874953
2.133561701879422,23.53460185173457,-0.07838670097259347,1.7907950909914248,-2.3481765931139393
2.1155459139553927,23.126552125509683,-0.07827232445374789,1.7574633979206404,-2.253980270326155
2.0975745396292416,22.726064912799686,-0.07800049577365169,1.7250341039054025,-2.1650279440352045
2.079681472257114,22.332937402937,-0.07759139441876141,1.6934659818571125,-2.080901931984029
2.0618962395880285,21.946975980238527,-0.0770628027037212,1.6627203024774118,-2.0012261031836895
2.044244520472701,21.567995671756094,-0.07643040699478085,1.6327606408480733,-1.9256610637687537
2.0267485969874914,21.19581963737818,-0.07570805809399589,1.6035527015685787,-1.8538999721504081
2.009427750677882,20.830278698266056,-0.07490799677217233,1.5750641602759599,-1.785664892411527
1.9922986103576368,20.471210900070716,-0.07404104949083282,1.5472645196835315,-1.720703609295426
1.9753754578309515,20.118461107776387,-0.0731167985673004,1.520124978528018,-1.658786840075218
1.9586704970016968,19.771880629362514,-0.07214373038273807,1.4936183120273947,-1.5997057885109787
1.9422257900739703,19.431332940933537,-0.07085372116271081,1.4676659351811023,-1.5359430073086593
1.926078694755018,19.096686869055166,-0.06955580334991837,1.442299907239516,-1.4754553444082046
1.9102305291053785,18.767810244090413,-0.06825433273390294,1.417496831584431,-1.4180319979906513
1.894681675956434,18.444576137780636,-0.06695308595257128,1.3932345276310178,-1.3634783115533478
1.8794317081653262,18.126862592732202,-0.06565532962227859,1.3694919510510026,-1.311614342323535
1.8644794989350064,17.814552369526595,-0.06436388107615504,1.3462491203020934,-1.2622735735043766
1.849823319006526,17.507532710071068,-0.06308116178019428,1.3234870488764237,-1.2153017542320543
1.8354609223013156,17.205695115934713,-0.06180924435206921,1.3011876827440403,-1.1705558531144464
1.821389621392683,16.90893514052901,-0.06054989398386645,1.2793338425229572,-1.1279031129450183
1.8076063540137062,16.61715219409392,-0.059304604963758105,1.2579091699560814,-1.0872201956791598
1.7941077416593285,16.330249360542364,-0.0580746329003964,1.2368980783183157,-1.0483924080574931
1.7808901412106246,16.048133225298017,-0.05686102317528927,1.2162857064151322,-1.0113129993895693
1.767949690396184,15.77071371333551,-0.05566463608071554,1.196057875867532,-0.9758825239955977
1.7552823478070394,15.497903936698808,-0.05448616904228141,1.1762010514081376,-0.9420082616634633
1.7428839280955901,15.229620050833809,-0.053326176274668846,1.1567023039396882,-0.9096036902304044
1.7307501329138382,14.965781119125701,-0.052185086175347326,1.1375492761308157,-0.8785880050578881
1.7188765780805224,14.706308985080977,-0.05106321672305279,1.1187301503450604,-0.8488856807468804
1.7072588174091616,14.451128151638734,-0.049960789114865414,1.1002336187179163,-0.8204260709495209
1.6958923635785421,14.200165667136613,-0.048877939847044916,1.0820488552135648,-0.7931430425812885
1.6847727063828528,13.953351017493624,-0.047814731419817,1.0641654895080805,-0.766974641132956
1.673895328659752,13.710616024205855,-0.046771161824539366,1.046573582559482,-0.7418627841307143
1.663255720160372,13.471894747781732,-0.04574717295267844,1.0292636037372243,-0.7177529801016445
1.6528493895951297,13.237123396271556,-0.044742658049426454,1.012226409394746,-0.6945940706752498
1.6426718750626152,13.006240238571618,-0.04375746832026418,0.9954532227786218,-0.6723379936944004
1.6327275025184598,12.779296350697777,-0.04271533641152473,0.9779718891678048,-0.6704017252968495
1.623018553362591,12.556357633186476,-0.04171030842211763,0.9606256544087293,-0.671153371030467
1.6135364772096046,12.337393492943153,-0.040742527690806996,0.9434103477071312,-0.6744479853112969
1.604272707440453,12.122374275479512,-0.039811992040944356,0.9263219780636622,-0.6801456532364027
1.5952186931594254,11.911271224588244,-0.038918566924512905,0.9093567253386664,-0.6881111340749511
1.5863659282513003,11.70405644399548,-0.03806199749396703,0.8925109319897248,-0.6982135211070318
1.57770597777583,11.500702860840821,-0.03724191968403626,0.8757810954420981,-0.7103259162567026
1.5692305019185944,11.30118419084349,-0.036457870378882526,0.8591638610564241,-0.7243251180507357
1.5609312777006419,11.10547490502087,-0.03570929673374683,0.8426560156620042,-0.7400913215084118
1.5528002186341001,10.913550197832542,-0.0349955647144429,0.8262544816277884,-0.7575078286310902
1.5448293924969785,10.725385956628969,-0.03431596691270043,0.8099563114467601,-0.7764607682137267
1.5370110373876238,10.54095873228911,-0.03366972969038565,0.793758682812898,-0.7968388237444267
1.5293375762076156,10.3602457109357,-0.03305601970098964,0.7776588941732602,-0.8185329681928329
1.5218016297112715,10.183224686620555,-0.0324739498324377,0.7616543607410587,-0.8414362045138633
1.5143960282502533,10.009874034875061,-0.031922584611198894,0.7457426109588903,-0.8654433107101657
1.5071138223330247,9.840172687023259,-0.03140094510383176,0.7299212834046096,-0.8904505883046557
1.4999482921110117,9.674100105156121,-0.030908013348455474,0.7141881241357174,-0.9163556130735918
1.4928929558962463,9.511636257666279,-0.030442736345156363,0.6985409844716196,-0.9430569868806544
1.4859415778089886,9.352761595242114,-0.030004029630995875,0.6829778192167602,-0.9704540894331861
1.4790881746482887,9.197457027219066,-0.029590780462048376,0.6674966853314735,-0.9984468287527657
1.4723270220736535,9.045703898183874,-0.029201850621735605,0.6520957410615112,-1.026935389113213
1.4656526601819189,8.897483964724511,-0.0288360788716085,0.6367732455416284,-1.0558199751494226
1.459059898560057,8.752779372214476,-0.028492283057625516,0.6215275588934429,-1.0850005507795126
1.4525438208920165,8.611572631514775,-0.028169261881857092,0.6063571428430831,-1.1143765715099676
1.4460997891957699,8.47384659547047,-0.027865796346374344,0.5912605618900053,-1.1438467086080382
1.4397234477655625,8.339584435070655,-0.02758065087282058,0.5762364850649013,-1.1733085635268456
1.4334107268939436,8.208769615131171,-0.027312574097777768,0.561283688321932,-1.2026583708556886
1.4271578464485435,8.08138586934799,-0.027060299340484515,0.5464010576187635,-1.2317906879402285
1.4209613193797832,7.957417174555907,-0.02682254473569181,0.5315875927471837,-1.260598069173984
1.414817955237832,7.836847724011406,-0.02659801302040624,0.5168424119876164,-1.2889707228035399
1.4087248637802103,7.719661899500455,-0.026385390958911768,0.5021647576728131,-1.3167961479151793
1.402679458755578,7.6058442420507255,-0.026183348385716468,0.48755400275960464,-1.3439587490809946
1.3966794619545209,7.495379421003218,-0.025990536840868127,0.47300965852305943,-1.3703394259396495
1.3907229076246919,7.388252201169994,-0.02580558776634013,0.4585313835049793,-1.395815134774053
1.3848081473555944,7.284447407772031,-0.02562711022581117,0.4441189938686168,-1.4202584189305798
1.378933855547777,7.183949888813721,-0.02545368810303715,0.4297724753340847,-1.4435369047106328
1.3730990355924368,7.086744474507448,-0.02528387672600788,0.4154919968943746,-1.465512759168213
1.3673030269006172,6.99281593331245,-0.025116198855031573,0.4012779265403862,-1.486042106086152
1.3615455129365903,6.902148924095986,-0.024949139962594263,0.38713084925494745,-1.504974396307373
1.3558265304279726,6.8147279438610795,-0.024781142721038693,0.3730515875703409,-1.5221517286077437
1.3501464799460008,6.730537270413091,-0.024610600600455935,0.3590412250208569,-1.5374081174742487
1.3445061380736782,6.649560899256752,-0.024435850463218133,0.3451011328603563,-1.550568704583704
1.3389066714078028,6.571782473925733,-0.024255164022654173,0.33123300045285403,-1.5614489115886478
1.333349652673984,6.497185208849125,-0.02406673801055143,0.3174388697785225,-1.569853533188842
1.3278370792727103,6.425751803754451,-0.02386868287009008,0.3037211745229935,-1.5755757716581527
1.3223713946207754,6.357464348498315,-0.023659009755432378,0.2900827842260047,-1.578396217379597
1.3169555127079633,6.292304217108864,-0.023435615573369036,0.2765270539431408,-1.5780817850508921
1.3115928463567739,6.2302519497282525,-0.023196265741322053,0.2630578798013164,-1.5743846228283278
1.3062873397575396,6.1712871210736395,-0.022938574252018267,0.24967976067358344,-1.5670410228856937
1.3010435059591894,6.11538819401601,-0.02265998051624535,0.2363978659145126,-1.555770378272296
1.2958664701373839,6.062532356945411,-0.022357722282064153,0.22321810861243196,-1.540274254855183
1.2907620196528065,6.012695343807398,-0.02202880367078239,0.21014722302246214,-1.5202356818221525
1.2857366621783168,5.965851236147383,-0.021669956976953807,0.19719284358635583,-1.4953188144160918
1.2807976935548488,5.921972247321069,-0.021277596270593276,0.1843635809902781,-1.46516919494458
1.275953277597211,5.881028490418462,-0.020847759882777782,0.17166908772803177,-1.4294149419769808
1.2712125409170507,5.842987733695939,-0.020376037336009022,0.15912010116346478,-1.3876693456557283
1.2665856871307841,5.807815150828116,-0.01985747384891867,0.14672844551325948,-1.3395355555772865
1.26208413684998,5.775473078645092,-0.019286441636334355,0.1345069647739176,-1.2846143359925695
1.2577207030541595,5.745920802938823,-0.01865646093601832,0.12246934571538595,-1.2225162490747263
1.2535098165328211,5.719114404226744,-0.017959943597358842,0.1106297735200983,-1.1528801149991017
1.2494678241824941,5.6950067107013425,-0.017187815970702125,0.09900234409207682,-1.0754001478798891
1.2456133958135343,5.673547424727719,-0.016328952455035958,0.08760014263507838,-0.9898646286062388
1.241968095451148,5.654683509370251,-0.015369311565712612,0.07643390395160668,-0.8962089553789273
1.2385572050160367,5.638359933746866,-0.014290605261342178,0.06551023190390817,-0.7945845497247904
1.2354109384377723,5.624520859659224,-0.013068234549652323,0.05482954277123573,-0.6854407998255068
1.232566266191199,5.613111265061097,-0.011668045855332885,0.04438432329945264,-0.5696077178851656
1.2300697218054537,5.604078769677134,-0.010041035759842208,0.03415911482196855,-0.44835066732033135
1.2279819200814273,5.597374934109137,-0.00811376184038801,0.024135107508438558,-0.32334849742944083
1.2263856712866463,5.592954247097143,-0.0057666624620554665,0.014305649117604733,-0.19653556283070792
1.2254049242234188,5.590765611255939,-0.002761572870356881,0.004725966892854773,-0.06976780654955844
