x,y,v_x,v_y,omega
2.375,32.48,0.0,3.7948717948717947,-5.183673469387755
2.3736439946520576,31.76854688649601,-0.014273740504659536,3.69410834727543,-4.800451808739857
2.369805561563388,31.075781914805926,-0.026130818323439227,3.598154512620186,-4.460043115706167
2.363906391736586,30.400825708409666,-0.0359657061692123,3.5066476599720424,-4.156304038711134
2.356299847061909,29.74286420120891,-0.044103185143175926,3.4192629421411884,-3.884128203226477
2.3472829182506993,29.101141955026684,-0.0508118549748228,3.3357080703032884,-3.639247708936902
2.3371058885933462,28.474956381837085,-0.05631477299731389,3.2557190159029936,-3.4180769066200636
2.3259801856984677,27.86365271375918,-0.06079788905403837,3.179056437548629,-3.217588549102213
2.3140847926711023,27.266619597371633,-0.0644167743919164,3.1055026823202967,-3.035214943997483
2.3015715071899203,26.683285214013384,-0.06730202014684125,3.0348592477665366,-2.868768566097752
2.2885692741055674,26.113113846811608,-0.06956359126739838,2.9669446175153285,-2.716377925031962
2.275187769191476,25.5556028298655,-0.07129435519672027,2.9015924029700018,-2.5764354720516236
2.2615203747382173,25.01027982646506,-0.07257295483758244,2.8386497380873035,-2.4475550668963235
2.247646659044909,24.476700392255566,-0.07346615772356081,2.7779758851704868,-2.3285370803232777
2.2336344495150593,23.954445786459797,-0.0740307846959065,2.7194410179428985,-2.218339628599117
2.219541571522302,23.443121000069162,-0.0743152994383802,2.662925154590107,-2.1160547577714106
2.2054173113639672,22.94235297462913,-0.07436112328093285,2.608317218462853,-2.0208886429550392
2.191303650632386,22.451788989108298,-0.07420372652518634,2.5555142080722066,-1.9321450594946914
2.1772363105721624,21.971095195533255,-0.07387353726664408,2.504420461138759,-1.8492115321791742
2.163245637973199,21.49995528672813,-0.07339670061718055,2.454946999967798,-1.7715476856909793
2.1493573585027637,21.038069281723253,-0.07279571486108427,2.4070109474519916,-1.6986754116582825
2.1355932188184426,20.585152416272912,-0.07208996602650457,2.360535004656884,-1.630170540672161
2.1219715351045125,20.14093412751183,-0.0712961783306569,2.3154469823018626,-1.5656557657123409
2.1085076626629107,19.70515712313393,-0.07042879473883326,2.271679379570756,-1.5047946098501648
2.095214398729921,19.27757652663594,-0.06950029929263893,2.2291690046186377,-1.4472862683692456
2.0821023286730975,18.85795909116466,-0.06852149077918906,2.1878566319211203,-1.3928611854927235
2.0691801240645105,18.446082475366705,-0.06750171562698681,2.147686692267896,-1.3412772502283365
2.0564547997581557,18.041734575384428,-0.06644906654517138,2.1086069917560772,-1.2923165156057619
2.0439319359671595,17.644712907789753,-0.06537055230741952,2.0705684566089526,-1.24578236169897
2.031615870396798,17.254824038812487,-0.06427224317006892,2.0335249010464658,-1.2014970360187736
2.019509864707326,16.87188305571429,-0.06315939566648054,1.9974328157766688,-1.1592995156956145
2.0076162489280485,16.495713076593162,-0.06203655990486156,1.9622511749720146,-1.1190436448007517
1.9959365468980663,16.126144795285228,-0.06090767198968693,1.9279412598483503,-1.080596507534525
1.9844715853511392,15.763016058367139,-0.0597761337674387,1.8944664971841487,-1.043837004130482
1.973221588877027,15.406171471560373,-0.058644881749531655,1.8617923113081283,-1.0086546014143074
1.9621862626670976,15.055462033102422,-0.05751644677604211,1.8298859882492589,-0.9749482342023642
1.9513648646778152,14.710744791884395,-0.05639300574272004,1.7987165508878733,-0.9426253372762488
1.9407562686135935,14.371882528363091,-0.05527642651224558,1.768254644073198,-0.911600990648732
1.9303590189335518,14.03874345644169,-0.054168306961877716,1.7384724287836497,-0.8817971633417724
1.9201713789192727,13.71120094467938,-0.053070008977900866,1.7093434845038324,-0.8531420430096908
1.9101913726980126,13.38913325533909,-0.05198268808799574,1.6808427190781614,-0.8255694405261749
1.9004168219940567,13.072423299915854,-0.05090731932206562,1.6529462853769386,-0.7990182601667891
1.8908453782767924,12.760958409908149,-0.049844719807032256,1.6256315041778706,-0.7734320273037499
1.8814745508848583,12.454630121702326,-0.04879556852911689,1.59887679272554,-0.7487584666237488
1.87230173162917,12.1533339745374,-0.04776042363602591,1.5726615984842014,-0.7249491248130683
1.8633242163117933,11.856969320605003,-0.046739737599516766,1.546966337646302,-0.7019590324524563
1.8545392235409546,11.565439146418505,-0.045733870514572735,1.5217723380010322,-0.6797464005482466
1.845943911173573,11.27864990465697,-0.044743101773656466,1.497061785804618,-0.6582723477136143
1.8375429407822716,10.996512550846216,-0.04368816550319821,1.4728050964138597,-0.6353362078733543
1.8293400531616182,10.718941125708849,-0.04265801997736565,1.4489993787163304,-0.6134081117371621
1.82133057469589,10.445851424264305,-0.04165227966187866,1.4256290575420252,-0.5924321398138882
1.8135099081112056,10.177162135794205,-0.04067052649269492,1.4026792421432304,-0.572356061830282
1.8058735380533923,9.912794717399098,-0.03971231622112789,1.3801356883315636,-0.5531310545372429
1.7984170355404783,9.652673274512814,-0.03877718391481079,1.3579847631030164,-0.5347114439858001
1.7911360614400664,9.396724447919713,-0.03786464872110193,1.336213411561217,-0.5170544699058223
1.7840263691029068,9.144877306854667,-0.03697421798584116,1.3148091259655812,-0.5001200700726386
1.7770838062674437,8.897063247797078,-0.03610539080850732,1.293759916745865,-0.4838706827696377
1.7703043163357044,8.653215898599104,-0.035257661104537534,1.2730542853380613,-0.4682710656521928
1.7636839391082932,8.413271027614659,-0.0344305202366338,1.2526811987087334,-0.45328812949310604
1.7572188110552471,8.17716645751997,-0.033623459269113296,1.2326300654458946,-0.4388907854449411
1.7509051651898844,7.94484198353868,-0.03283597089259837,1.2128907133045306,-0.42504980459251096
1.7447393306043446,7.7162392958048756,-0.032067551060452684,1.1934533681039372,-0.41173768869148497
1.7387177317181441,7.491301905616183,-0.03131770037323493,1.1743086338823003,-0.3989285510983928
1.7328368872846056,7.269975075346327,-0.030585925242960124,1.1554474742214493,-0.3865980069948085
1.7270934091943453,7.05220575180244,-0.02987173886504413,1.1368611946615659,-0.3747230720955772
1.7214840011100394,6.837942502827065,-0.029174662022385157,1.1185414261318625,-0.3632820691088043
1.716005456962324,6.627135456958289,-0.028494223743042207,1.1004801093289494,-0.352254541285023
1.7106546593328518,6.419736245973958,-0.027829961830349255,1.082669479979812,-0.3416211724554097
1.7054285777471778,6.215697950157423,-0.02718142328200735,1.0651020549310848,-0.3313637130149507
1.7003242668971823,6.014975046132957,-0.026548164612683087,1.0477706190106657,-0.3214649113567852
1.6953388648101542,5.817523357128831,-0.025929752092875215,1.0306682126117122,-0.3119084503091928
1.6904695909793812,5.62330000553521,-0.02532576191526016,1.013788119952724,-0.3026788881674132
1.685713744469087,5.432263367632476,-0.024735780298364752,0.99712385797078,-0.29376160394916806
1.681073814362343,5.244571376178364,-0.02410558924630892,0.9785813152304143,-0.3267332949234242
1.67654939645199,5.060392257691316,-0.023519862441615656,0.9601462477911582,-0.3611226968405179
1.6721321626259202,4.879705856781818,-0.022977335727538913,0.9418158670456517,-0.39682474316541616
1.6678140277347935,4.702492537655047,-0.022476715758008296,0.9235874921835128,-0.4337363063457987
1.6635871547539516,4.528733163950275,-0.022016684040326813,0.905458546814074,-0.47175596845234535
1.6594439592156318,4.358409079186959,-0.021595900573566373,0.8874265559576772,-0.5107837949230665
1.6553771129857784,4.1915020877479385,-0.021213007109100568,0.8694891434004333,-0.5507211104447824
1.6513795474550146,4.027994436330946,-0.020866630056835186,0.8516440294100124,-0.5914702759956082
1.6474444562091124,3.8678687957997795,-0.020555383057924797,0.8338890288127861,-0.632934466055355
1.6435652972406125,3.711108243366187,-0.020277869242073365,0.8162220494355433,-0.6750174449657617
1.6397357947600515,3.5576962450325915,-0.020032683184884135,0.7986410909180752,-0.7176233413889502
1.635949940662566,3.407616638224283,-0.019818412578123015,0.7811442439062308,-0.7606564197699142
1.6322019957034435,3.260853614537524,-0.019633639623164747,0.7637296896386206,-0.8040208476565368
1.6284864904344918,3.1173917025271685,-0.019476942155274516,0.7463956999440648,-0.8476204576678326
1.6247982259518883,2.97721575045372,-0.019346894503710594,0.7291406376711989,-0.8913585028269306
1.6211322745054968,2.8403109089051917,-0.019242068089884906,0.7119629575764472,-0.9351374038887785
1.617483980019477,2.7066626132037435,-0.019161031762954802,0.6948612077019419,-0.9788584871925128
1.6138489585744218,2.5762565655003655,-0.019102351869204167,0.6778340312809927,-1.0224217114536926
1.6102230989022526,2.4490787164531937,-0.019064592048365404,0.6608801692155365,-1.065725381780771
1.6066025629467318,2.3251152463758338,-0.019046312746591406,0.6439984631777294,-1.108665849051835
1.60298378654476,2.2043525457312683,-0.01904607043205947,0.6271878593966628,-1.1511371926202936
1.5993634802866779,2.0867771948344647,-0.01906241649512189,0.6104474132012533,-1.193030884130281
1.5957386306176484,1.9723759426121639,-0.019093895810449363,0.5937762944018957,-1.2342354300126417
1.5921065012469566,1.861135684251348,-0.019139044933673622,0.5771737936067083,-1.2746359899991766
1.5884646349378009,1.7530434375482855,-0.019196389899546105,0.5606393295834166,-1.3141139687354748
1.5848108557570064,1.6480863177472962,-0.019264443582500745,0.5441724577954299,-1.3525465772908434
1.5811432718721732,1.5462515106319543,-0.01934170257363864,0.5277728802608049,-1.3898063610583655
1.5774602789932373,1.4475262436011107,-0.01942664352042335,0.5114404569059599,-1.4257606902113162
1.5737605645664652,1.3518977544268473,-0.019517718866652167,0.4951752186126124,-1.4602712085388743
1.5700431128416958,1.2593532573508917,-0.019613351920392458,0.47897738218691943,-1.4931932361327156
1.5663072109484548,1.1698799061292462,-0.01971193116635683,0.4628473675146266,-1.5243751210504908
1.5625524561336417,1.0834647535808237,-0.01981180372641195,0.44678581720561467,-1.5536575347640582
1.558778764333189,1.0000947071340853,-0.019911267857300703,0.4307936190758541,-1.5808727059428125
1.5549863802727484,0.9197564797947457,-0.020008564357863416,0.414871931864552,-1.6058435869753525
1.5511758893185812,0.8424365358769137,-0.020101866738631687,0.39902221463892945,-1.6283829476701164
1.5473482313299263,0.7681210307484356,-0.020189269984053276,0.3832462603976905,-1.6482923909066383
1.5435047167988976,0.6967957437383916,-0.02026877771098696,0.36754623444488,-1.6653612857940012
1.5396470456042959,0.6284460032404695,-0.020338287495343957,0.3519247181648335,-1.6793656153663363
1.535777328752721,0.5630566029212112,-0.020395574100181016,0.3363847588799769,-1.6900667383495278
1.5318981135355911,0.5006117078095613,-0.020438270290660785,0.32092992650582225,-1.6972100685693043
1.5280124125962575,0.44109474890862543,-0.0204638448602195,0.3055643777145882,-1.7005236818704976
1.5241237374804026,0.38448830484167473,-0.020469577411937487,0.2902929282533073,-1.6997168700512728
1.52023613733994,0.3307739689379261,-0.020452529329774868,0.2751211338914022,-1.6944786758530441
1.516354243582685,0.2799322001058897,-0.020409510220278943,0.26005538013005236,-1.6844764647857486
1.5124833214180775,0.23194215587562184,-0.020337038880850478,0.24510298018858767,-1.6693546218796906
1.5086293294606423,0.18678150618293898,-0.020231297513205522,0.23027227973435502,-1.6487335092739852
1.504798988845813,0.1444262269233576,-0.020088077379733688,0.21557276510332807,-1.6222088910759624
1.5009998637333102,0.10485037318245105,-0.01990271327819185,0.20101516901147704,-1.5893521355770197
1.4972404556974257,0.06802583359808523,-0.01967000288901295,0.18661156345550223,-1.5497116565661362
1.4935303154576995,0.03392206989479973,-0.019384104897578743,0.17237542289483698,-1.502816275855505
1.4898801768983052,0.0025058497866012885,-0.01903840625394185,0.15832163087566295,-1.448181505761674
1.4863021207122493,-0.026259012077623822,-0.018625343072960116,0.14446638874778356,-1.385320196583324
1.4828097788747157,-0.052411880666269894,-0.018136149953711708,0.13082696481688658,-1.3137596025316483
1.4794185974726632,-0.07599545593132717,-0.01756049638368069,0.1174211958679083,-1.233067699612614
1.4761461857927936,-0.09705579876506931,-0.016885942351790553,0.10426662343463164,-1.1428924700829284
1.473012796577256,-0.11564214496706171,-0.01609710202228999,0.0913791260600104,-1.0430185684247684
1.4700420101020844,-0.13180640005455047,-0.015174334558464798,0.07877092749253027,-0.933445542912777
1.4672617398071508,-0.14560219725896673,-0.014091668546096555,0.06644799044867437,-0.8144889148282055
1.4647057512234243,-0.15708343885682297,-0.012813474440500279,0.05440718426562391,-0.6868968186800385
1.4624160153800965,-0.16630239562014992,-0.011289008120843623,0.04263446587466033,-0.5519565084175467
1.4604464875072232,-0.17330783044108955,-0.009442864225191272,0.03110695329312697,-0.411535557945506
1.4588696599517426,-0.17814446736971945,-0.00715532056934036,0.019805014376660924,-0.26797269200911045
1.4577903037030917,-0.18085734960115474,-0.004206324153301437,0.00875164069107255,-0.1237316589458784
