x,y,v_x,v_y,omega
2.375,32.48,0.0,2.6666666666666665,-3.1020408163265305
2.374387262479028,31.952343897529392,-0.006127375209722287,2.6098943580393668,-2.9272430839808816
2.3726303338883596,31.435842485234303,-0.011441910696958924,2.5551197649115194,-2.766972386775663
2.3698815677644363,30.93010760434245,-0.016045750542274344,2.502229044007024,-2.619647508122917
2.366274279531534,30.434772980664405,-0.020027131786745537,2.45111719277343,-2.483891682604941
2.3619253195429186,29.94949254650193,-0.023462468099409557,2.4016871488513387,-2.3585024539245776
2.356937263682605,29.473938930957182,-0.026418090503731298,2.3538490065961044,-2.242426495522878
2.351400283938597,29.007802097116354,-0.02895170693634489,2.3075193318121885,-2.134738492783243
2.345393750218017,28.550788107987863,-0.031113630269453692,2.2626205594727313,-2.034623364698578
2.338987605702537,28.102618005838977,-0.03294781488535031,2.219080462016117,-1.9413612431859564
2.332243550779724,27.663026791834323,-0.034492734342777845,2.1768316780304438,-1.8543147389270538
2.32521606467863,27.23176249474148,-0.035782126668160295,2.1358112928979693,-1.7729181104506702
2.317953289111919,26.808585319013645,-0.03684562899895277,2.095960464380367,-1.6966680232536135
2.3104977942678286,26.393266863849504,-0.03770931944195086,2.0572240872610497,-1.6251156419523434
2.3028872442348987,25.985589405915142,-0.038396180887346865,2.019550492082571,-1.5578598437358306
2.2951549762475687,25.585345239329826,-0.03892649898595254,1.9828911737705819,-1.4945413780354142
2.287330505905686,25.192336067297187,-0.03931820443287275,1.9472005465558209,-1.4348378271120168
2.2794399686611393,24.806372440429712,-0.03958716801259845,1.9124357221189483,-1.3784592465669392
2.2715065063124267,24.427273237386753,-0.03974745547452768,1.8785563083106271,-1.32514438469326
2.2635506059483497,24.054865183939953,-0.039811548166240926,1.8455242261573965,-1.2746573959548162
2.255590397690894,23.688982407007664,-0.03979053440831425,1.8133035431654927,-1.2267849773853436
2.24764191666884,23.329466020572113,-0.039694275812226724,1.7818603211900284,-1.181333867879872
2.239719333878368,22.97616374071771,-0.039531552092494496,1.7511624773540084,-1.138128659634039
2.2318351599309394,22.6289295273136,-0.03931018738179108,1.7211796566870836,-1.0970098787197524
2.22400042513233,22.28762325011359,-0.039037160604304406,1.6918831153129938,-1.0578322982455783
2.2162248388636616,21.952110377267125,-0.03871870208237996,1.6632456131516438,-1.0204634529622099
2.2085169308322286,21.622261684429944,-0.038360378231949474,1.635241315220175,-0.9847823287197384
2.200884176415732,21.297952982835916,-0.037967165933016266,1.6078457007201334,-0.9506782040127562
2.19333310802902,20.979064864845174,-0.037543517934102905,1.581035479187263,-0.9180496240828881
2.1858694141898978,20.66548246562059,-0.03709342045711882,1.5547885130585435,-0.8868034907855956
2.1784980277436006,20.35709523970679,-0.036620444005853535,1.5290837460794817,-0.8568542537507495
2.171223204518763,20.053796751395367,-0.03612778824252129,1.5039011370347297,-0.8281231903418899
2.1640485935266547,19.755484477858097,-0.03561832167856225,1.4792215983380008,-0.8005377636029758
2.1569844194143606,19.46206086991562,-0.03502341944437709,1.4550144810867425,-0.7718917475134042
2.1500394875136237,19.173431859915468,-0.03442589956299368,1.431275618914803,-0.7445488006258634
2.1432141680815304,18.889505456785862,-0.033827294757941065,1.4079884123812605,-0.7184342825360162
2.136508543427047,18.610192914101017,-0.03322895178688969,1.385137014467176,-0.6934786366047494
2.129922443089614,18.33540858388681,-0.032632051587444096,1.3627062876748903,-0.6696169887996473
2.1234554752105597,18.06506977871537,-0.032037627203095186,1.340681764039515,-0.6467887824049617
2.117107054515628,17.79909664152916,-0.03144657974622533,1.3190496078225658,-0.6249374450234797
2.1108764272786513,17.537412022679064,-0.030859692623539617,1.297796580678419,-0.6040100846864515
2.104762693594109,17.279941363700928,-0.030277644221884843,1.2769100091028946,-0.5839572122334858
2.0987648272490658,17.02661258739164,-0.029701019228544706,1.2563777539900283,-0.564732487429111
2.0928816934522834,16.777355993778812,-0.029130318739282297,1.2361881821382072,-0.5462924865518041
2.0871120646494328,16.53210416160895,-0.028565969289223142,1.2163301395604682,-0.52859648942922
2.0814546346279323,16.290791855006294,-0.028008330925779933,1.1967929264660724,-0.511606284104009
2.0759080310924634,16.053355934980523,-0.027457704428908724,1.1775662737916188,-0.4952859875013871
2.070470826872393,15.819735275484355,-0.02691433777179424,1.1586403211700451,-0.47960188063543935
2.0651415499047774,15.589870683743847,-0.026378431904364175,1.1400055962350206,-0.46452225703854
2.0599186921210775,15.36370482460369,-0.02585014593263488,1.1216529951665477,-0.4500172832294752
2.0548007173519514,15.141182148647921,-0.025329601758626513,1.1035737643911419,-0.436058870152785
2.0497860683522577,14.922248823873122,-0.02481688823830985,1.085759483356835,-0.4226205546261731
2.0448731730375633,14.706852670706489,-0.024312064908634714,1.068202048309509,-0.40967738992604463
2.0400604500137964,14.49494310017526,-0.023815165329032696,1.0508936570027796,-0.3972058447245959
2.0353463134731142,14.286471055047095,-0.023326200077790824,1.0338267942788617,-0.38518370966653104
2.0307291775214074,14.081388953772947,-0.02284515943927637,1.0169942184626106,-0.3735900109403982
2.0262074599960713,13.879650637075159,-0.022372015814084874,1.0003889485152935,-0.36240493025959153
2.021779585826591,13.681211317033767,-0.02190672588072232,0.9840042518986304,-0.3516097307220174
2.0174475870537223,13.486208311744484,-0.02141326184796092,0.9660258009941872,-0.37709191136007614
2.0132108146963055,13.294789960239005,-0.02095446172620975,0.9481577140606093,-0.4041978796969188
2.00906239971028,13.106934485668049,-0.02052968813404089,0.9303970316489579,-0.4328200504705253
2.004995606949247,12.922620691577798,-0.020138239476292615,0.9127409092535644,-0.46285318994449637
2.0010038473828518,12.741827939331312,-0.019779356187658,0.8951866132113033,-0.49419418407909094
1.997080689120217,12.564536126311822,-0.019452226438689567,0.8777315169836115,-0.5267418114115731
1.993219867342257,12.390725664832313,-0.019155991340910093,0.8603730978114675,-0.56039651971273
1.9894152932397362,12.220377461677561,-0.018889749684298292,0.8431089337360563,-0.5950602054894901
1.9856610620475892,12.053472898205914,-0.018652562237171277,0.8259367009804026,-0.6306359953997492
1.9819514602603334,11.889993810938886,-0.018443455635387653,0.8088541716898844,-0.6670280286345911
1.9782809721083128,11.72992247256667,-0.018261425884819292,0.7918592120322719,-0.7041412393047755
1.9746442853700148,11.573241573297363,-0.018105441498160593,0.7749497806608135,-0.7418811378422928
1.9710362965917652,11.419934202476586,-0.017974446284335806,0.7581239275469503,-0.7801535903934992
1.9674521157827314,11.269983830402637,-0.017867361806001264,0.7413797931925327,-0.8188645951372897
1.963887070650342,11.123374290259886,-0.017783089517893293,0.724715608234979,-0.8579200544093145
1.960336710438951,10.980089760090113,-0.01772051259601633,0.70812969346273,-0.8972255414506347
1.9567968094328623,10.840114744717575,-0.01767849746486951,0.691620460262663,-0.9366860605256158
1.9532633701836712,10.703434057538715,-0.017655895027042564,0.6751864115259313,-0.9762057990683078
1.949732626521313,10.570032802081716,-0.017651541596539606,0.6588261430440562,-1.015687870418014
1.9462010464082515,10.439896353233998,-0.017664259534075178,0.642538345433136,-1.0550340455920315
1.942665334696915,10.313010338027599,-0.017692857579291486,0.6263218066308577,-1.0941444724154408
1.9391224358518533,10.18936061586264,-0.017736130871324085,0.6101754150187338,-1.1329173801829848
1.9355695367001862,10.068933258037685,-0.017792860645347228,0.5940981632308061,-1.1712487678652246
1.932004069276791,9.951714526442593,-0.01786181358860438,0.5780891527201144,-1.2090320736889586
1.9284237138344391,9.837690851254006,-0.017941740834913497,0.5621475991657536,-1.2461578237192152
1.9248264020937818,9.726848807455777,-0.018031376571661054,0.5462728388165432,-1.2825132568460917
1.9212103208138371,9.619175089985873,-0.018129436227786143,0.5304643358824915,-1.3179819233339267
1.9175739157705467,9.514656487287361,-0.018234614205117038,0.5147216911026443,-1.352443253823184
1.9139158962391793,9.413279853013307,-0.018345581108556552,0.49904465163789136,-1.3857720953886654
1.9102352400860334,9.315032075603494,-0.01846098042290228,0.483433122460236,-1.4178382109548315
1.9065311995862033,9.21990004541384,-0.01857942457539818,0.46788717943628616,-1.4485057380565343
1.902803308097335,9.12787061903694,-0.01869949031328586,0.4524070843326999,-1.4776326026219526
1.8990513877345596,9.038930580403132,-0.018819713314468346,0.4369933020053811,-1.5050698831607539
1.895275558209444,8.953066598195328,-0.0189385819366868,0.42164652007267467,-1.5306611204901306
1.8914762470161695,8.87026517904648,-0.019054529996058518,0.4063676714158112,-1.554241567963013
1.8876542011716566,8.79051261591517,-0.01916592844907177,0.39115795989728597,-1.5756373771337473
1.8838105007434784,8.713794930951526,-0.01927107583270888,0.3760188897391375,-1.5946647139912316
1.879946574430744,8.640097812071925,-0.019368187294635342,0.36095229905686815,-1.6111288014314757
1.8760642174994344,8.569406542356397,-0.019455382018460483,0.3459603980984132,-1.6248228847110209
1.8721656124159223,8.501705921267902,-0.01953066881666065,0.3310458127865381,-1.6355271184821774
1.8682533525718608,8.436980176569286,-0.01959192962395726,0.3162116341996424,-1.6430073770427425
1.8643304695520784,8.375212865685551,-0.019636900573865468,0.3014614746376884,-1.6470139941931476
1.8604004644670638,8.316386765133089,-0.01966315027628224,0.2867995308869336,-1.6472804463935373
1.8564673439567088,8.260483746525594,-0.01966805482726616,0.2722306551880189,-1.643522003934591
1.852535661577762,8.20748463758899,-0.019648768962201996,0.2577604341780303,-1.635434391305202
1.848610565422351,8.157369066606865,-0.019602192591908155,0.24339527564323207,-1.6226925223786528
1.8446978529923816,8.110115288825522,-0.01952493170778604,0.22914250217019602,-1.6049494121264207
1.8408040345958887,8.065699993654064,-0.019413252257141578,0.2150104495443653,-1.5818354196625386
1.836936406871079,8.02409809212418,-0.019263024990957223,0.20100856575447512,-1.5529580552778595
1.8331031385383358,7.9852824852156346,-0.019069658336472443,0.18714750333098792,-1.5179026978544112
1.8293133712230059,7.949223815590852,-0.018828014816828012,0.17343919291683935,-1.4762347342744517
1.825577339336641,7.915890208433041,-0.01853230404681894,0.15989687866127222,-1.4275038703765326
1.8219065148080782,7.88524701204355,-0.018175941238810143,0.1465350852336505,-1.3712517007000158
1.8183137853444857,7.857256556435889,-0.017751353397113263,0.13336947084297307,-1.3070240917367382
1.8148136795821865,7.831877959370662,-0.017249704225878293,0.12041649980929527,-1.234390552646622
1.8114226601170547,7.809067025116967,-0.01666049042544054,0.10769284272765944,-1.1529735213765466
1.808159517864961,7.788776302096032,-0.015970932095497086,0.0952143874817054,-1.0624912522204437
1.8050459214962833,7.770955389649888,-0.015165031591279656,0.08299473697973392,-0.9628183479360946
1.8021072085718168,7.755551603917194,-0.014222097653385432,0.07104312034718949,-0.854066953910199
1.799373558298499,7.742511107972167,-0.013114405079791445,0.059361839103078365,-0.7366872282206525
1.7968817745717947,7.731780537885484,-0.011803432187251746,0.04794386176375707,-0.6115746847958954
1.7946780716491717,7.723308931970131,-0.010233597038977933,0.036772197389776266,-0.4801511943668323
1.7928226336638775,7.717049254546815,-0.008320782813964313,0.025824576843393725,-0.34435794299881767
1.7913979307283798,7.712957668588835,-0.005926246541013188,0.01509128273639073,-0.20647849249563374
1.7905285116310117,7.710985042295853,-0.002767944432667951,0.004634980193424544,-0.06873023354218488
