x,y,v_x,v_y,omega
2.375,32.48,0.0,2.2051282051282053,-4.6938775510204085
2.3741904435633128,32.02146853276892,-0.0077100613017829275,2.1618381494534593,-4.459090646645618
2.3718578546586113,31.57188489946854,-0.014505071123947093,2.1199107391216074,-4.241361975173518
2.3681837004015422,31.130970689463023,-0.020486874181472232,2.079272213311876,-4.039044311846924
2.3633293610297144,30.69846237814133,-0.025744929359742746,2.0398545611804524,-3.8506818719289155
2.357438553993705,30.27411018452755,-0.03035799479273191,2.0015949018079042,-3.6749845794679716
2.350639431230415,29.857677049970864,-0.03439555533383759,1.9644349511129557,-3.5108062650039438
2.343046399063469,29.448937721209795,-0.03791903673231116,1.9283205608972134,-3.357126117695459
2.3347617017690303,29.04767792391541,-0.040982842262347115,1.893201318096938,-3.213032846560657
2.325876803043624,28.653693615082656,-0.04363524083676027,1.8590301945959564,-3.0777111073238186
2.316473594071095,28.26679030447656,-0.04591913033017823,1.8257632397477868,-2.9504298321354314
2.3066254523472813,27.886782436839486,-0.0478726956109087,1.793359309176745,-2.8305321639496146
2.2963981716819486,27.513492827796995,-0.04952997739226038,1.7617798245612737,-2.7174267491916098
2.2858507807014123,27.146752147416827,-0.050921365279512375,1.730988560011732,-2.6105801842568637
2.2750362645993727,26.786398446219856,-0.05207402616848443,1.7009514513879964,-2.5095104454404673
2.264002202731094,26.43227671914696,-0.05301227733893137,1.6716364254967404,-2.413781159712157
2.2527913328401867,26.08423850357754,-0.05375791209828221,1.643013246592968,-2.3229965965789785
2.241442051186406,25.74214150799448,-0.05433048460439229,1.615053378007611,-2.2367972800933926
2.229988856557577,25.40584926831341,-0.05474755947968989,1.5877298570501968,-2.154856135638875
2.21846274505892,25.075230829254465,-0.055024930983709405,1.5610171816064302,-2.076875099067197
2.2068915616461036,24.75016044844283,-0.05517681580502286,1.5348912070757823,-2.0025821265565016
2.1953003135776803,24.43051732118922,-0.055216022941862335,1.5093290524823957,-1.9317285525949592
2.1837114502862622,24.11618532412976,-0.05515410364307402,1.4843090147505928,-1.864086751083196
2.1721624661946644,23.807057512573394,-0.05483622103880784,1.4597653810243196,-1.7950878659053422
2.1606865501253125,23.503030916179362,-0.05445821771692404,1.435726013204575,-1.7293647047982856
2.1492955821752258,23.20400160622947,-0.05402719133152268,1.4121721767943831,-1.666721839413458
2.1380000262258725,22.909869493139166,-0.053549531995649546,1.3890860431132752,-1.6069777221682329
2.1268090710145686,22.620538142093913,-0.05303099382629215,1.3664506335081976,-1.5499635428341627
2.1157307569861046,22.335914599962685,-0.052476758825748725,1.344249767741601,-1.4955221920839965
2.1047720904415574,22.05590923265047,-0.05189149397946058,1.3224680161842017,-1.4435073208015898
2.0939391463278407,21.780435572125864,-0.051279402341649766,1.3010906554787331,-1.3937824852557246
2.0832371608594555,21.509410172426204,-0.05064426878582863,1.2801036273751771,-1.346220369370899
2.07267061503033,21.242752474002657,-0.049989501015370176,1.2594935004681238,-1.3007020763181787
2.062243309956116,20.980384675821178,-0.049318166358093496,1.2392474345935693,-1.2571164825166332
2.0519584348838085,20.722231614683913,-0.04863302480673931,1.2193531476660968,-1.2153596478972482
2.0418186286142337,20.468220651279346,-0.04793655871302321,1.1997988847583774,-1.1753342769506374
2.03182603500233,20.218281562509137,-0.04723099949558202,1.1805733892436152,-1.1369492256694484
2.0219823531288252,19.972346439675544,-0.04651835168065279,1.161665875838224,-1.1001190500164335
2.0122888826737713,19.730349592145856,-0.045800414557958115,1.143066005396909,-1.064763592008661
2.0027465649664395,19.492227456139986,-0.04507880170234243,1.1247638613256687,-1.0308075999149293
1.9933560201364124,19.25791850831432,-0.04435495858363184,1.1067499274901706,-0.9981803794237488
1.984117580746571,19.02736318383954,-0.04363017846247798,1.0890150675077124,-0.9668154729590086
1.9750313222494535,18.800503798692567,-0.04290561674816424,1.0715505053206271,-0.9366503646045827
1.9660970905735076,18.57728447590334,-0.04218230397512977,1.0543478069577146,-0.9076262083519945
1.9573145271146308,18.357651075515975,-0.04146115753798265,1.0373988633981341,-0.8796875776105567
1.948683091380619,18.141551128040945,-0.04074299230974992,1.0206958744593069,-0.8527822341204238
1.9402020815113403,17.928933771190852,-0.04002853025480842,1.0042313336368078,-0.8268609145885571
1.93187065287529,17.71974968970683,-0.03931840913614619,0.987998013830063,-0.8018771335282154
1.9236935783479605,17.514106419724147,-0.03855849112413501,0.9705093193383562,-0.8072235949934188
1.9156730986738029,17.312123045551246,-0.037827029582128205,0.9531418632607245,-0.8147801899182643
1.9078032283292732,17.113774471344108,-0.03712411655625021,0.9358921768072391,-0.8244222341343418
1.900077974704319,16.919036314755587,-0.03644972749093263,0.9187569335596374,-0.8360286088743476
1.892491361558128,16.727884877677315,-0.03580373104421772,0.9017329433762643,-0.8494814868551834
1.8850374504943541,16.540297118211065,-0.035185898134583005,0.8848171467785236,-0.864666067902671
1.877710360611449,16.356250623770617,-0.03459591027403705,0.8680066097971649,-0.8814703230402439
1.8705042864727104,16.175723585219657,-0.0340333672377598,0.8512985192595988,-0.8997847460012565
1.8634135145305244,15.998694771954668,-0.03349779411639098,0.8346901785022084,-0.9195021111546835
1.8564324381300201,15.82514350784503,-0.03298864779317277,0.818179003494347,-0.9405172368571552
1.8495555712088647,15.655049647944967,-0.03250532288449826,0.8017625193634054,-0.962726753260592
1.8427775608022001,15.488393555893943,-0.032047157178975626,0.7854383573130272,-0.9860288736142174
1.836093198454687,15.325156081923499,-0.03161343660686304,0.7692042519292794,-1.0103231681024096
1.8294974306352598,15.165318541389325,-0.031203399768634607,0.7530580388723702,-1.0355103392556273
1.822985368244463,15.008862693747513,-0.03081624204847822,0.7369976529544022,-1.0614919979603494
1.8165522952991267,14.855770721893602,-0.03045111933567837,0.7210211266066643,-1.088170439075398
1.8101936768746023,14.70602521178187,-0.030107151374075842,0.705126588743167,-1.115448415635885
1.803905166380829,14.559609132240631,-0.029783424757098748,0.6893122640305422,-1.1432289105920093
1.7976826122450975,14.416505814896723,-0.029478995583200794,0.6735764725781097,-1.1714149049876126
1.7915220640715521,14.2766989341191,-0.029192891783898767,0.6579176300659241,-1.1999091414323744
1.7854197783451782,14.140172486887213,-0.028924115133946042,0.6423342483330061,-1.2286138816612404
1.779372223746313,14.006910772484702,-0.028671642950486142,0.6268249364528089,-1.2574306569046698
1.7733760861405583,13.87689837191268,-0.028434429485271362,0.6113884023283491,-1.286260009712972
1.7674282733084312,13.750120126909433,-0.02821140701117626,0.5960234548454331,-1.3150012257868984
1.7615259194791264,13.626561118454603,-0.028001486601251603,0.5807290066291282,-1.3435520542642914
1.7556663897334763,13.506206644625646,-0.02780355859541589,0.5655040774561833,-1.371808414798634
1.749847284342572,13.389042197662363,-0.027616492746529483,0.5503477983846125,-1.3996640896396826
1.7440664431106168,13.275053440081496,-0.027439138033997938,0.535259416671267,-1.4270103987892007
1.7383219497934854,13.16422617966731,-0.027270322129157674,0.5202383015590802,-1.4537358561568814
1.7326121366682161,13.056546343145673,-0.02710885049245466,0.5052839510279507,-1.4797258044843307
1.7269355893333422,12.951999948327941,-0.026953505077773148,0.4903959996171035,-1.5048620266410713
1.721291151825692,12.85057307448669,-0.026803042614135568,0.4755742274424284,-1.5290223307301118
1.7156779321461317,12.752251830697496,-0.02665619242929323,0.46081857054990394,-1.5520801062781362
1.7100953082948531,12.657022321849329,-0.02651165377336172,0.4461291327659564,-1.5739038486364805
1.704542934926332,12.56487061199001,-0.026368092593505612,0.4315061992275704,-1.5943566485979626
1.699020750745241,12.475782684632197,-0.026224137702597034,0.41695025179921935,-1.6132956441619066
1.6935289867775332,12.389744399599216,-0.02607837627557517,0.40246198661010285,-1.6305714313849187
1.6880681756659466,12.306741445937945,-0.025929348596677063,0.38804233397344795,-1.646027431380339
1.682639162156606,12.22675929036793,-0.025775541968470896,0.37369248097906094,-1.6594992108348101
1.6772431149635945,12.149783120671763,-0.025615383679258794,0.3594138970796686,-1.670813753981096
1.6718815402219003,12.075797783361427,-0.02544723290830505,0.345208363018772,-1.6797886849225092
1.666556296766631,12.00478771488017,-0.025269371427593515,0.3310780034693824,-1.6862314407163006
1.6612696135087568,11.936736865520686,-0.025079992933112857,0.31702532376380727,-1.6899383979319265
1.6560241092161443,11.871628615161413,-0.02487719080605342,0.303053251086428,-1.690693958846029
1.6508228150550184,11.809445679848864,-0.02465894406181085,0.28916518046167555,-1.6882696085019424
1.6456692003038107,11.750170008193557,-0.02442310118778832,0.27536502577935695,-1.682422961231647
1.6405672017223654,11.693782666513975,-0.024167361492641953,0.26165727593092974,-1.67289682588241
1.6355212571503586,11.640263711677882,-0.023889253478852214,0.24804705584138426,-1.6594183342840467
1.63053634402812,11.589592050684963,-0.023586109590085298,0.2345401917102237,-1.6416981993828192
1.6256180236941755,11.541745286257129,-0.023255036447481132,0.22114327903104647,-1.6194302007022827
1.6207724925373825,11.496699548123704,-0.022892879331499676,0.20786375081109784,-1.5922910392248328
1.616006641400043,11.454429310412962,-0.02249617911935301,0.1947099416721742,-1.5599407667715526
1.611328125093063,11.414907196740796,-0.022061119042362205,0.18169114091989974,-1.522024083788838
1.6067454445763487,11.378103776438405,-0.021583457307297025,0.16881762386478308,-1.4781729237768984
1.6022680454061753,11.343987358185217,-0.021058439551498477,0.1561006452132081,-1.4280109144953095
1.5979064376609993,11.312523791513797,-0.02048068183112901,0.1435523707050783,-1.3711605391064716
1.5936723450520929,11.283676292733105,-0.01984400968226386,0.13118571292056702,-1.3072541260316912
1.5895788948144158,11.257405320321407,-0.019141230676565372,0.11901402433370195,-1.2359501743647723
1.5856408660470782,11.2336685361702,-0.018363805202842236,0.10705058663018675,-1.1569569384644132
1.581875023641309,11.21242090298498,-0.017501360566387725,0.09530782465759771,-1.0700655371364145
1.5783005796190728,11.193614982738222,-0.016540963454908124,0.08379617769248437,-0.9751948378846734
1.5749398463483972,11.177201510580467,-0.015466020075336597,0.07252260476232701,-0.8724494011812942
1.5718191810616196,11.163130309797868,-0.014254601703496943,0.06148883126244049,-0.7621887781966487
1.5689703766953207,11.151351560115643,-0.012876868451730902,0.050689737139717236,-0.6450998816981405
1.566432751598985,11.141817288782171,-0.011290989608607903,0.04011284698857813,-0.5222526930685044
1.5642564002195725,11.134482649550769,-0.009436166385798967,0.029740859977160833,-0.39510453397971024
1.5625076589453546,11.12930594315262,-0.007218512416275033,0.019561105719490046,-0.26540697840989635
1.5612800984753186,11.126244779675165,-0.004472539679306906,0.009592832161038588,-0.1349756227361118
1.5607282623632601,11.125237540741445,-0.000783042340295856,-8.041132568484266e-08,-0.005363868097826546
