x,y,v_x,v_y,omega
2.375,32.48,0.0,3.8974358974358974,-6.775510204081632
2.3733796661280713,31.787583560867866,-0.01800370968809542,3.7960800929210974,-6.287236300736276
2.3687854184640775,31.1129824090355,-0.033043486578502076,3.6994882607718917,-5.852127529844861
2.361708377302319,30.455371447604122,-0.04559030410770658,3.607300199576735,-5.462729336680849
2.3525622043281627,29.813986943170054,-0.05603384004958328,3.5191942941351364,-5.112821028514397
2.3416963419493007,29.188120085457754,-0.06469796415999349,3.4348819026681734,-4.797183062614571
2.3294067583707796,28.577111462271507,-0.07185296449024128,3.35410279940125,-4.51141346836922
2.315944717170794,27.980346281548314,-0.07772527106515902,3.27662143085646,-4.251781910852433
2.3015239710980016,27.397250210052732,-0.08250524085475328,3.202223807983326,-4.015112859688848
2.2863266908804825,26.82728572620886,-0.0863534282287903,3.1307149013930626,-3.7986914522885566
2.270508372638286,26.26994890554322,-0.08940566335117434,3.0619164393362532,-3.600187188296599
2.254201916201848,25.72476657315992,-0.09177718594258376,2.995665031589323,-3.417591732669941
2.2375210271391928,25.191293769941634,-0.093566025864692,2.931810559724956,-3.2491679542865617
2.2205630646305083,24.66911148872456,-0.09485577978735832,2.8702147871313928,-3.0934079658333813
2.2034114333503587,24.157824644215786,-0.09571790110319386,2.810750151855019,-2.9489984153994437
2.1861375986440827,23.657060246402622,-0.0962135956332027,2.7532987127356616,-2.8147916509001396
2.168802789339582,23.166465752006765,-0.09639539663902788,2.6977512249960838,-2.6897816640959333
2.1514594406355223,22.685707572428548,-0.09630847785052604,2.644006325872986,-2.5730839425804106
2.1341524199828927,22.214469719808356,-0.09599175162313506,2.5919698143513665,-2.4639185311493637
2.116920071218061,21.752452575453212,-0.09547879020832925,2.541554011816927,-2.3615957398780423
2.099795106019152,21.299371767051973,-0.09479860089066083,2.492677192641292,-2.2655040435875002
2.0828053667397066,20.85495714292037,-0.0939762799920661,2.44526307548761,-2.17509980262017
2.0659744805873483,20.41895183304575,-0.09303356614524837,2.399240367563739,-2.0898985028598593
2.0493224217751798,19.991111387994508,-0.0919893095455111,2.354542355227829,-2.0094672674567717
2.0328659955338653,19.57120298784511,-0.09085987091354174,2.3111065353210547,-1.9334184366235398
2.016619255617338,19.15900471424965,-0.08965946149231757,2.2688742824062427,-1.8614040473714357
2.0005938650730597,18.754304879534544,-0.08840043344410467,2.2277905477616335,-1.7931110738805547
1.9847994085054699,18.356901407447275,-0.08709352841800437,2.187803586541329,-1.7282573126902954
1.9692436627800383,17.966601260759635,-0.08574809075345824,2.1488647099880285,-1.6665878161138596
1.9539328320479459,17.583219911462034,-0.08437225071423643,2.110928059985305,-1.6078717930564146
1.9388717520797263,17.20658084974129,-0.08297308226598109,2.0739504035785292,-1.5518999094113664
1.924064068149345,16.836515128334504,-0.081556739182698,2.0378909453857603,-1.4984819309482198
1.909512390083039,16.47286093920342,-0.08012857266514634,2.002711156070734,-1.4474446605083602
1.895218427559321,16.115463219783102,-0.07869323315394555,1.9683746152661403,-1.398630128728228
1.8811831083011126,15.764173286332152,-0.0772547586039248,1.9348468675221995,-1.351894003683533
1.8674066814242634,15.418848492153572,-0.07581665113884357,1.9020952900175723,-1.3071041900120621
1.853888807887418,15.07935190867003,-0.07438194371499272,1.8700889709106676,-1.2641395924034888
1.8406286397170053,14.745552027528149,-0.07295325817848251,1.8387985973324505,-1.2228890219865076
1.8276248894502847,14.417322482076568,-0.07153285589618974,1.808196352129567,-1.1832502272141232
1.8148758910425271,14.094541786714409,-0.0701226819677848,1.778255818561092,-1.1451290334431987
1.8023796533161738,13.777093092742732,-0.06872440388058705,1.7489518922353406,-1.1084385776033256
1.7901339068858029,13.46486395947337,-0.06733944534575556,1.7202606996464778,-1.0730986262176774
1.7781361453691988,13.157746139458997,-0.06596901594984571,1.6921595227354278,-1.0390349666283438
1.7663836615886812,12.855635376806681,-0.0646141371670153,1.664626728956956,-1.0061788626350792
1.7548735793755028,12.558431217625845,-0.06327566520163416,1.6376417063856867,-0.9744665669162298
1.7436028815113573,12.266036831741616,-0.06195431106664799,1.6111848034390845,-0.9438388835944588
1.7325684342730363,11.978358844876883,-0.06065065824803243,1.5852372728357371,-0.9142407751632755
1.72176700898744,11.695307180571774,-0.05936517825859322,1.5597812194432514,-0.8856210087246532
1.7111953009532055,11.41679491116868,-0.05809824434401055,1.53479955170223,-0.857931837121049
1.7008499460410011,11.142738117244736,-0.05685014356937074,1.510275936341584,-0.8311287110919531
1.6907275352461417,10.873055754922632,-0.055621087484622495,1.4861947561262556,-0.8051700190583115
1.6808310759216916,10.607671233970752,-0.05433957167593535,1.462522143339074,-0.7781928869719927
1.6711626350024043,10.346510497248822,-0.053087549649478295,1.4392638202379313,-0.7523465571480525
1.6617169495807333,10.089500211572759,-0.05186451059130911,1.4164060206072213,-0.7275710024430433
1.6524888511293838,9.836569469601717,-0.050669916645910494,1.3939355568488119,-0.7038099842116347
1.6434732698523964,9.587649688454402,-0.04950320865394866,1.3718397892324585,-0.681010774853865
1.6346652380709097,9.342674513685527,-0.0483638111403481,1.3501065970883934,-0.6591239034083294
1.6260598927702978,9.101579728285628,-0.04725113664422852,1.328724351799385,-0.638102922054684
1.6176524774199326,8.864303166392148,-0.04616458947094111,1.3076818914614978,-0.6179041916071397
1.6094383431632555,8.630784631422188,-0.045103568936581254,1.2869684970935964,-0.5984866842745865
1.6014129494639557,8.400965818358074,-0.044067472166748695,1.2665738702854479,-0.5798118021355623
1.5935718642836059,8.174790239935895,-0.04305569650380832,1.2464881121831906,-0.5618432099300098
1.5859107638569334,7.9522031565046944,-0.04206764157033039,1.2267017037190353,-0.5445466809068831
1.5784254321228464,7.733151509340033,-0.041102711030635466,1.207205486999444,-0.5278899545891055
1.5711117598622295,7.517583857210536,-0.04016031408732926,1.1879906477727467,-0.5118426054268527
1.5639657435872936,7.3054503160096935,-0.039239866745294054,1.1690486989032922,-0.4963759214081139
1.5569834842217616,7.096702501277765,-0.038340792871726745,1.1503714647848173,-0.4814627917832893
1.5501611856063393,6.891293473450354,-0.03746252507740922,1.1319510666308423,-0.46707760313934404
1.543495152859646,6.689177685680967,-0.03660450544140596,1.1137799085845732,-0.4531961431297729
1.5369817906210317,6.490310934094797,-0.03576618609875329,1.0958506645950787,-0.43979551123022415
1.5306176011983887,6.294650310340302,-0.03494702970839049,1.0781562660104371,-0.42685403594685517
1.5243991826411443,6.102154156313571,-0.03414650981654524,1.0606898898421464,-0.41435119795605074
1.518323226756046,5.912782020938522,-0.03336411112899042,1.0434449476584045,-0.4022675587006233
1.5123865170810764,5.726494618893245,-0.03259932970400698,1.0264150750668986,-0.3905846940095813
1.5065859268308315,5.543253791179676,-0.031851673076491505,1.0095941217505422,-0.37928513234646716
1.50091841682493,5.363022467440132,-0.031120660322415502,0.9929761420221677,-0.3683522973255587
1.4953875445533213,5.185986073453506,-0.030333476028791384,0.9740949022736806,-0.40687765125006137
1.4899937202583045,5.012339086464667,-0.02959790502695131,0.9553160642689785,-0.44657379058512686
1.4847278143831284,4.842063302325485,-0.02891216025278211,0.9366370928330616,-0.4873385696098765
1.4795810189524534,4.675140964237421,-0.028274455643606717,0.9180555525898545,-0.5290712543034596
1.4745448472132625,4.5115547450078,-0.027683008125181964,0.8995691055170321,-0.5716722967222957
1.4696111329431423,4.3512877297139845,-0.027136039320595655,0.8811755088587077,-0.6150431103746891
1.4647720294745719,4.194323398710946,-0.026631776996854914,0.8628726133972788,-0.6590858455891283
1.4600200084812198,4.040645610917213,-0.02616845626261051,0.8446583620886413,-0.7037031638474636
1.4553478585700517,3.8902385873131102,-0.025744320528148238,0.8265307890680755,-0.7487980100204782
1.4507486837212356,3.7430868945836124,-0.025357622236475367,0.8084880190374446,-0.7942733814006155
1.4462159016164715,3.5991754288359274,-0.025006623372013852,0.7905282670479539,-0.8400320923741429
1.441743241895395,3.4584893993189105,-0.024689595751057225,0.7726498386966818,-0.885976533512097
1.4373247443791846,3.3210143120678595,-0.024404821095727676,0.7548511307594581,-0.9320084237851138
1.43295475730041,3.186735953393633,-0.02415059089065525,0.7371306322875185,-0.978028554520733
1.4286279355785445,3.055640373129684,-0.023925206018960733,0.7194869262007938,-1.023936523621924
1.424339239181419,2.927713867544103,-0.02372697617132337,0.7019186914167919,-1.0696304584512246
1.4200839316142975,2.8029429618161075,-0.02355421901891662,0.6844247055609259,-1.1150067256547391
1.4158575785801968,2.681314391967547,-0.023405259137757546,0.667003848311959,-1.1599596260529668
1.4116560468576345,2.562815086129408,-0.023278426668491947,0.6496551054451348,-1.2043810725596333
1.4074755034452102,2.4474321450112306,-0.023172055691775797,0.63237757364572,-1.248160248903998
1.4033124150263863,2.335152821427158,-0.02308448229515572,0.6151704661773,-1.2911832467252389
1.3991635478125857,2.225964498715978,-0.023014042302630874,0.5980331195024864,-1.3333326783784423
1.3950259678283947,2.119854667873547,-0.022959068632821607,0.5809650009689685,-1.37448726253982
1.3908970417093198,2.0168109031941164,-0.02291788824579134,0.5639657176913834,-1.4145213794241587
1.386774438090321,1.9168208361917252,-0.022888818631970665,0.5470350267796165,-1.4533045921313885
1.3826561296724154,1.8198721275437073,-0.022870163789205134,0.530172847087257,-1.4907011303244933
1.3785403960650862,1.7259524367646186,-0.022860209625561474,0.5133792726804062,-1.526569332113301
1.374425827514343,1.6350493892802263,-0.022857218716030126,0.496654588257295,-1.5607610396873366
1.3703113296401574,1.5471505405265447,-0.022859424330476014,0.4799992867836059,-1.5931209439208154
1.3661961293230038,1.4622433366477559,-0.022865023637898486,0.4634140896473685,-1.62348587288707
1.362079781897573,1.3803150713081997,-0.022872169978000314,0.44689996968104684,-1.6516840190030853
1.3579621798328119,1.3013528380666806,-0.022878964074899415,0.4304581774469607,-1.677534099429219
1.353843563101651,1.2253434776852963,-0.02288344404911104,0.414090271235097,-1.7008444444511341
1.349724531471642,1.1522735196590617,-0.02288357406209994,0.3977981512786049,-1.721412008982471
1.345606058979878,1.0821291171565157,-0.022877231401945117,0.3815840987496771,-1.739021303211326
1.3414895108927989,1.0148959744552535,-0.022862191787821815,0.365450820153218,-1.7534432400090934
1.3373766634948896,0.9505592658411679,-0.022836112633391505,0.3494014977810739,-1.7644338993725779
1.3332697271012826,0.8891035448185391,-0.02279651396224291,0.33343984691480805,-1.7717332143825117
1.3291713727499337,0.830512642355469,-0.022740756608300945,0.3175701804526561,-1.775063589665397
1.3250847631022884,0.7747695527744263,-0.022666017254423836,0.3017974815589461,-1.774128473206512
1.321013588171586,0.7218563058066998,-0.022569259753379357,0.2861274847491109,-1.768610917133096
1.3169621066118797,0.6717538232874958,-0.022447202021135208,0.27056676546426955,-1.7581721850335947
1.3129351934489424,0.624441759015788,-0.022296277567056575,0.25512283755470416,-1.7424504958052185
1.3089383953330977,0.5798983205034354,-0.022112590386772882,0.2398042570269792,-1.7210600417383648
1.3049779946703812,0.5381000717896072,-0.02189186142118887,0.22462072868221566,-1.6935904885281718
1.3010610843857715,0.4990217173498799,-0.021629363963364505,0.20958320953699122,-1.659607267183917
1.297195655661797,0.46263586861139316,-0.02131984408079641,0.19470399866840865,-1.6186531166061884
1.2933907018951967,0.42891279703306395,-0.02095741999253898,0.17999679664637375,-1.5702515505499481
1.2896563435181339,0.3978201816104274,-0.020535450863714423,0.16547670804961465,-1.5139132296160724
1.2860039805612542,0.36932286469702547,-0.02004635976828148,0.15116014654370777,-1.4491466486952298
1.2824464834267748,0.3433826390805379,-0.019481386170379558,0.1370645825283614,-1.3754751320691117
1.2789984381662718,0.31995810231115485,-0.018830227835208494,0.12320804824257495,-1.2924628685783985
1.2756764720411007,0.29900463210959316,-0.018080506888915042,0.10960828733033647,-1.1997535482189863
1.2724997005531966,0.28047455879885064,-0.017216954087796863,0.09628141612239231,-1.0971258127909174
1.269490362038611,0.2643176330279786,-0.01622014051870953,0.08323998133171939,-0.98456950136672
1.266674745960162,0.25048189704189383,-0.01506448257517038,0.07049041851367072,-0.8623840074295723
1.2640845859839178,0.23891503574907347,-0.013715072716430536,0.05803026251769008,-0.7312921495152338
1.2617592005146419,0.22956615086404497,-0.012122543608857273,0.04584623620488723,-0.5925460566537403
1.259748889464863,0.2223875653940297,-0.010214245833129795,0.0339158245730275,-0.4479742864143176
1.258120707318841,0.2173355416577536,-0.007876666900447681,0.022217772496704653,-0.2998907568189074
1.2569700702487803,0.2143670240219464,-0.004908189433560655,0.010765756790054527,-0.15078160004936159
1.2564564770313913,0.21342065162039603,-0.0007984018707614549,-0.0002505078839622945,-0.002784488608549379
