x,y,v_x,v_y,omega
2.375,32.48,0.0,2.0,-3.836734693877551
2.374473761991408,32.08363853958642,-0.00526238008592118,1.963614604135805,-3.66614632329965
2.372952024914264,31.69445609182616,-0.009954990685518025,1.928209873466745,-3.5063000632425227
2.370543092698227,31.31226114786425,-0.014134331474852064,1.8937395661523873,-3.356286235324998
2.3673445782722546,30.936871139854986,-0.01785081278487217,1.8601605139402253,-3.2152883642600685
2.3634445482431956,30.56811185424402,-0.021149487505716803,1.8274323421694523,-3.082572133771456
2.3589225310329964,30.205816897724173,-0.024070684596275354,1.795517223029003,-2.9574758267343095
2.3538504066731125,29.849827209700564,-0.026650559002564994,1.764379657207083,-2.8394020258291897
2.3482931937431113,29.49999061599001,-0.028921570297446457,1.7339862798984655,-2.727810388534282
2.3423097466803062,29.156161419219504,-0.03091290033060519,1.7043056878065996,-2.6222113408510324
2.335953374794807,28.818200022006543,-0.03265081852438418,1.6753082843230007,-2.5221605591828324
2.3292723927330727,28.48597257952303,-0.0341590020929579,1.6469661405121392,-2.427254130369393
2.322310610789662,28.159350678482213,-0.03545881734115282,1.6192528698960311,-2.337124296885722
2.3151077723286195,27.83821103995914,-0.036569567269271214,1.5921435153346752,-2.2514357083254763
2.307699944608137,27.522435243770808,-0.03750870993555406,1.5656144465486876,-2.169882112043777
2.3001198684765956,27.21190947241206,-0.03829205137986047,1.5396432670387652,-2.0921834256646954
2.2923972717018146,26.906524272775115,-0.03893391636794779,1.5142087293307105,-2.0180831424082677
2.2845591500893088,26.606174334079952,-0.0394472997571093,1.489290657620916,-1.9473460271386538
2.2766375478460783,26.31076162167803,-0.03976872267519764,1.4648364663982896,-1.8771827641570848
2.2686606006775056,26.020191721916724,-0.040000749010527435,1.4408625312147714,-1.810246809204055
2.260645337565057,25.734370320763134,-0.04015188211396133,1.4173514803211162,-1.7463511897771888
2.252607164038617,25.453206497008836,-0.04022985315043592,1.3942867572218995,-1.685321829779842
2.2445600092679725,25.176612564119097,-0.040241694556011,1.3716525716754524,-1.6269965167242233
2.2365164592137448,24.90450392152269,-0.04019380598626466,1.3494338542886228,-1.5712239629847782
2.2284878772564936,24.63679891465477,-0.040092013586248594,1.3276162143906238,-1.5178629515003739
2.220484513566594,24.373418703125427,-0.039941623312746484,1.3061859009027734,-1.4667815574110292
2.212515604340017,24.11428713644019,-0.039747468953027144,1.2851297659496161,-1.4178564380666814
2.2045894619038306,23.859330636747003,-0.03951395540883457,1.2644352309822482,-1.3709721846802299
2.1967135565881004,23.608478088128066,-0.03924509774846636,1.2440902552070978,-1.3260207296305597
2.1888945911660387,23.361660731994025,-0.03894455647215039,1.2240833061333156,-1.2829008040668515
2.1811385685802818,23.11881206817373,-0.03861566938542107,1.2044033320696212,-1.241517441034711
2.1734508535986525,22.87986776132505,-0.03826148043086823,1.1850397364172216,-1.2017815198473722
2.165836228976599,22.644765552321378,-0.03788476578966846,1.1659823536194933,-1.1636093478699032
2.158298946644631,22.413445174295255,-0.03748805753001041,1.147221426641709,-1.1269222762782956
2.150842774386701,22.18584827304455,-0.037073665049291826,1.128747585865372,-1.0916463467048427
2.143471038428744,21.961918331528828,-0.03664369453027854,1.1105518292918555,-1.0577119659917704
2.1361866623149335,21.741600598203725,-0.036200066607826945,1.0926255039591444,-1.0250536065514113
2.128992202411961,21.524842018959443,-0.035744532421896354,1.0749602884836889,-0.9936095300774123
2.1218898803483635,21.3115911724464,-0.035278688214080166,1.0575481766467796,-0.9633215325711133
2.1148816126661076,21.101798208586565,-0.034803988608475,1.0403814619515408,-0.934134708843453
2.107969037934947,20.895414790083144,-0.03432175870313273,1.0234527230826935,-0.9059972348282529
2.1011535415560956,20.6923940367542,-0.03383320508538118,1.0067548102067263,-0.8788601661999006
2.094436278460281,20.492690472528018,-0.033339425872764235,0.9902808320550868,-0.8526772519293584
2.0878210903704044,20.296449754321387,-0.0328124550260019,0.9721263500112033,-0.8647963773750429
2.081308950980149,20.10382806151852,-0.03230893887655394,0.9540905780174771,-0.8788857149383892
2.0748951612631843,19.91480198013484,-0.03182895829309116,0.9361702358193216,-0.8948236200409824
2.0685750171505664,19.729348738829483,-0.03137248283309168,0.9183621772342417,-0.9124913825670683
2.0623438308851036,19.547446182596687,-0.030939379821533067,0.9006633850936941,-0.9317729650790422
2.0561969506313678,19.36907274742372,-0.03052942271582461,0.8830709666359998,-0.9525547476562033
2.050129778479223,19.1942074358265,-0.030142298805624627,0.8655821493361738,-0.974725278325385
2.04413778696946,19.022829793176747,-0.02977761629200462,0.8481942771613772,-0.9981750280672742
2.0382165342616108,18.854919884736255,-0.02943491078648965,0.8309048072435435,-1.0227961493903348
2.0323616780562825,18.690458273315535,-0.02911365126679067,0.8137113069636142,-1.0484822374652016
2.0265689883773517,18.529425997474696,-0.02881324552251969,0.7966114514447666,-1.0751280928060742
2.0208343593130182,18.371804550184713,-0.028533045120813557,0.7796030214550811,-1.1026294844718492
2.015153819809081,18.217575857866876,-0.028272349918559227,0.7626839017232905,-1.1308829127381979
2.0095235436027465,18.06672225972708,-0.028030412144784734,0.7458520796746538,-1.1597853701622183
2.003939858380895,17.919226487299852,-0.02780644007372891,0.7291056445976183,-1.18923409992326
1.998399254242912,17.775071644114504,-0.027599601306101333,0.712442787255853,-1.2191263502765748
1.9928983915449956,17.63424118539247,-0.027409025673064295,0.6958617999645019,-1.249359123900078
1.9874341082002411,17.4967188976806,-0.027233807774481818,0.6793610771541817,-1.2798289208481233
1.9820034265067972,17.362488878320043,-0.02707300915995668,0.6629391164514189,-1.3104314737491953
1.9766035595749931,17.2315355146439,-0.0269256601580833,0.6465945203099649,-1.3410614737961701
1.97123191742357,17.103843462789523,-0.026790761356148145,0.6303259982338404,-1.3716122859776463
1.965886112815038,16.979397626002125,-0.0266672847291732,0.6141323696401546,-1.4019756518862463
1.9605639669007524,16.858183132296325,-0.02655417441368271,0.5980125674178421,-1.4320413783142416
1.9552635147476005,16.740185311329782,-0.026450347117834234,0.5819656422475944,-1.4616970097081226
1.9499830108202627,16.625389670329163,-0.02635469215554465,0.5659907677585957,-1.490827482401864
1.9447209344959178,16.513781868892366,-0.02626607108790537,0.5500872466093706,-1.519314758384225
1.9394759956920815,16.4053476924721,-0.02618331695045844,0.5342545175932967,-1.547037436179803
1.9342471406930628,16.300073024324334,-0.02610523303972725,0.5184921638843418,-1.5738703362392177
1.9290335582664218,16.197943815680343,-0.026030591226683122,0.5027999225555478,-1.5996840580448555
1.9238346861679045,16.098946053872595,-0.025958129758490187,0.4871776955219202,-1.6243445059514903
1.9186502181417757,16.003065728112315,-0.02588655050279687,0.4716255620808882,-1.6477123806056415
1.9134801115334057,15.910288792579472,-0.0258145155809028,0.4561437932475237,-1.6696426326382474
1.908324595642599,15.820601126443886,-0.025740643327164765,0.4407328681083323,-1.689983875223351
1.903184180959701,15.733988490388395,-0.025663503501813883,0.42539349244659025,-1.7085777520717154
1.8980596694422518,15.650436479151374,-0.025581611672679142,0.4101266199236085,-1.7252582575266153
1.8929521660082032,15.569930469545682,-0.025493422667807228,0.39493347613330265,-1.7398510057123295
1.8878630914429055,15.492455563344272,-0.02539732298516782,0.37981558588079933,-1.7521724462435562
1.8827941969417004,15.417996524349451,-0.025291622026884383,0.36477480406740226,-1.7620290249630974
1.8777475805387323,15.346537708883652,-0.02517454200279714,0.34981335059060104,-1.7692162897160686
1.8727257057064248,15.278062988856249,-0.025044206320277308,0.33493384968343315,-1.7735179435474795
1.8677314224501944,15.212555666476522,-0.024898626242026205,0.32013937411383114,-1.7747048512896941
1.8627679912711907,15.149998379602291,-0.02473568554801194,0.30543349462846675,-1.7725340108032943
1.857839110428693,15.090372996645733,-0.024553122876965212,0.2908203349370955,-1.7667475078834367
1.8529489470070373,15.033660499915776,-0.024348511339592382,0.27630463236248487,-1.7570714850884797
1.8481021723852473,14.979840856281246,-0.024119234878308558,0.2618918039828153,-1.7432151709746098
1.843304002829556,14.928892874122827,-0.023862460678602943,0.2475880176013843,-1.7248700395415886
1.8385602460930797,14.880794045753241,-0.023575106686160936,0.23340026609447037,-1.7017092031040053
1.8338773551339265,14.835520374896856,-0.02325380290537146,0.2193364424693741,-1.6733871895188077
1.829262490385905,14.793046189539382,-0.02289484457484379,0.20540541110537783,-1.6395403226121703
1.8247235924868925,14.753343941642736,-0.02249413441528044,0.19161706786107635,-1.599788020838877
1.8202694680719838,14.716383997094894,-0.022047109733807066,0.17798237761735386,-1.5537354644512793
1.8159098923044987,14.682134422145477,-0.02154864794104219,0.1645133718768064,-1.500978269398955
1.8116557334598444,14.650560776891115,-0.02099294050550074,0.15122308066681325,-1.4411100624377284
1.807519107432846,14.621625932657604,-0.020373319764483918,0.13812536166828515,-1.3737341903677682
1.803513574043131,14.59528993897445,-0.019682014132666306,0.12523457516325234,-1.2984812188529269
1.7996543933028093,14.571509977711681,-0.018909793270551086,0.11256503746443125,-1.2150343486969448
1.7959588696786246,14.550240456671979,-0.01804544297129541,0.10013017293258861,-1.1231652778614087
1.7924468277924737,14.531433310558139,-0.017074975890214904,0.08794128820582393,-1.0227830566535883
1.7891412869448307,14.51503858778566,-0.015980432586213726,0.07600593951895444,-0.9139974588614797
1.7860694390974978,14.501005393049446,-0.014738045887114143,0.06432600784320078,-0.797195106247012
1.783264094657456,14.489283199840028,-0.013315398513304603,0.05289592425099495,-0.6731192498245113
1.7807658659927688,14.479823395319826,-0.011666888133565608,0.041702120951010266,-0.5429311943027407
1.7786265876287621,14.472580593212427,-0.009725895506501506,0.030725900122980654,-0.40821428356971695
1.7769151279453437,14.467512585220554,-0.007388701327682646,0.019954179795763693,-0.2708686940442788
1.7757293069579756,14.464576063030943,-0.00446950854599795,0.009411042100328825,-0.13285260059065132
1.7752343277343847,14.463705360800446,-0.0004802836899103508,-0.000704019795352423,0.004164133121387081
