x,y,v_x,v_y,omega
2.375,32.48,0.0,2.358974358974359,-7.755102040816326
2.3737216201288036,32.01296006304375,-0.012783798711962488,2.3114250105880814,-7.359548396801516
2.3700400540657323,31.555268982741087,-0.024031861918753936,2.2654857924385743,-6.993519793954183
2.364244915322645,31.106614634285684,-0.03391952551211722,2.2210576921154503,-6.654064203384021
2.356592983273916,30.666703770884816,-0.0425997949751715,2.178050941893254,-6.338589602875214
2.347312342089056,30.23526029513295,-0.050206616873433564,2.1363838156254022,-6.044812278764135
2.3366059209032426,29.81202375126761,-0.056857594984698244,2.095981623027994,-5.77071372952738
2.3246545354161556,29.396748002620768,-0.06265625988617175,2.0567758634404005,-5.514504533509528
2.311619511773479,28.98920006534577,-0.0676939765405943,2.018703509309591,-5.274593895211976
2.297644958499925,28.589159074826533,-0.07205155619494524,1.981706395882785,-5.049563852376033
2.2828597403729014,28.196415365398487,-0.07580062507529037,1.9457306983976832,-4.838147331798078
2.26737919868895,27.810769647380013,-0.07900479176421962,1.9107264817870522,-4.639209401222223
2.251306654817397,27.432032268118718,-0.0817206469513161,1.8766473108259007,-4.451731189215874
2.2347347278370613,27.060022545942314,-0.08399862285204011,1.8434499109381308,-4.274796043023414
2.2177464920959666,26.69456816767954,-0.0858837345589066,1.8110938716895841,-4.107577572202825
2.200416496480176,26.33550464186716,-0.08741622159899735,1.7795413864342506,-3.9493292879954933
2.182811663841816,25.98267480095052,-0.0886321047846047,1.7487570227321374,-3.7993755983332336
2.164992086275356,25.635928346768956,-0.08956367087999396,1.7187075190835006,-3.657103958782603
2.1470117296342077,25.295121434433327,-0.09023989553149031,1.6893616042728092,-3.5219580125787675
2.128919058759342,24.96011629038365,-0.09068681321716357,1.6606898362239728,-3.393431579760389
2.11075759327892,24.630780860984775,-0.09092784158705723,1.6326644577647806,-3.2710633774864335
2.0925664024778277,24.306988488497737,-0.09098406642386712,1.6052592671055717,-3.1544323718350458
2.074380546584498,23.98861761166993,-0.09087449250942821,1.5784495011724926,-3.0431536764920657
2.0562314708438745,23.67555148853137,-0.09061626489680742,1.5522117302131406,-2.936874926316308
2.038147357911034,23.367677939277762,-0.09022486443159612,1.5265237623229304,-2.8352730642847264
2.0201534433863153,23.06488910737218,-0.08971428081559443,1.501364556732875,-2.738051489144345
2.002272298700491,22.76708123721283,-0.08909716604264452,1.4767141448606271,-2.6449375185278337
1.984542146971386,22.474164731487697,-0.08820435124840757,1.4524509123907297,-2.550102603129797
1.9669962622071975,22.18605315731247,-0.08725449639347822,1.4286648293615076,-2.459601659841679
1.9496452931212531,21.902652830478054,-0.0862551944659654,1.4053384389826657,-2.373184835868049
1.9324984456000533,21.62387347451603,-0.08521328074603193,1.38245512063757,-2.2906194463962395
1.9155636267570944,21.34962805864157,-0.08413490768355797,1.3599990381070448,-2.2116886032362024
1.8988475747898357,21.079832645657007,-0.08302561198902877,1.3379550917385976,-2.1361899681966667
1.882355976110366,20.81440624906321,-0.0818903748056684,1.3163088741993603,-2.0639346184566887
1.8660935710571704,20.553270698694277,-0.08073367572628705,1.2950466294899796,-1.9947460126381313
1.850064249351799,20.296350514252197,-0.07955954132742811,1.2741552149308164,-1.9284590475499344
1.8342711363376318,20.043572786172934,-0.07837158881424237,1.253622065861797,-1.864919196684116
1.8187166709261637,19.794867063304388,-0.07717306530043916,1.2334351628236626,-1.8039817225173989
1.8034026760773925,19.550165246920855,-0.07596688318727207,1.2135830010116728,-1.7455109555292219
1.7883304225534027,19.309401490638344,-0.0747556520526283,1.194054561813428,-1.6893796336020717
1.77350068660665,19.072512105830924,-0.07354170741489566,1.1748392862607646,-1.6354682961367515
1.7589138021956088,18.839435472180657,-0.07232713669551977,1.1559270502419068,-1.5836647278047362
1.744569708259227,18.610111953023015,-0.07111380266829662,1.137308141334516,-1.5338634473818895
1.7304679915272132,18.384483815176246,-0.06990336465184073,1.1189732371331784,-1.4859652375709664
1.7166079252946513,18.16249515296729,-0.06869729767378062,1.1009133849563841,-1.4398767121317553
1.702988504546214,17.944091816188816,-0.06749690981059189,1.0831199828283757,-1.3955099170037393
1.689608477776637,17.729221341741926,-0.06630335788517869,1.0655847616404919,-1.3527819624322373
1.6764663758196185,17.517832888737384,-0.06511766168500413,1.0482997684049442,-1.3116146833998659
1.6635605379664735,17.309877176844743,-0.06394071684644632,1.031257350521449,-1.2719343259250084
1.6508891356282436,17.105306427694213,-0.0627733065358527,1.0144501409838753,-1.2336712570213635
1.6384501937702332,16.90407430914981,-0.061616112044252914,0.9978710444601581,-1.1967596963207645
1.6262520591754117,16.706329509622872,-0.06036523390396265,0.9795769508092212,-1.1992611461098401
1.614299976900723,16.51223099823552,-0.0591555888429248,0.9614081630642936,-1.2040474727043633
1.6025857564327182,16.321754070126754,-0.057986615837121704,0.9433611180233462,-1.2109817315012161
1.5911013286286497,16.134874717745188,-0.05685766220356327,0.9254324057923327,-1.2199307159776602
1.5798387632029103,15.951569600811563,-0.05576799205382978,0.907618763543928,-1.230764646293541
1.5687902845922117,15.77181601747505,-0.054716794053156805,0.8899170698212073,-1.243356868220735
1.5579482863334602,15.595591876556469,-0.05370318853435884,0.8723243393646117,-1.2575835611113568
1.5473053440788502,15.422875670775607,-0.05272623401174084,0.8548377184440183,-1.2733234536586722
1.53685422736405,15.25364645086309,-0.05178493313626223,0.8374544806811277,-1.2904575462381904
1.5265879102374669,15.087883800459903,-0.050878238129567224,0.8201720233507473,-1.3088688386413079
1.5164995808514052,14.925567811709534,-0.050005055731049464,0.8029878641529211,-1.3284420620302877
1.5065826501094153,14.766679061449114,-0.04916425168885111,0.7858996384512683,-1.3490634139514137
1.496830759458272,14.611198587906348,-0.04835465482258124,0.7689050969763932,-1.370620295242853
1.487237787907759,14.459107867809024,-0.04757506068255052,0.7520021039968506,-1.3930010476650738
1.4777978583567604,14.310388793812944,-0.04682423482743397,0.735188635963949,-1.4160946910644803
1.46850534330007,14.165023652152481,-0.04610091573946797,0.7184627806406896,-1.4397906588551097
1.4593548699867698,14.022995100415468,-0.04540381739353609,0.7018227367294351,-1.463978530568578
1.4503413250980386,13.88428614534077,-0.04473163149377714,0.685266814017528,-1.4885477601787618
1.4414598590097976,13.748880120532505,-0.04408302938863273,0.6687934340651082,-1.5133873988547337
1.4327058897036826,13.616760663979505,-0.04345666367251409,0.6524011314648814,-1.538385810733025
1.4240751063884831,13.487911695262053,-0.04285116947948174,0.6360885557096433,-1.5634303802282474
1.4155634728933881,13.362317392320083,-0.04226516547146763,0.6198544737100595,-1.5884072093194306
1.4071672308941818,13.239962167647814,-0.04169725452059594,0.603697773012638,-1.613200803158298
1.3988829030339178,13.12083064376894,-0.04114602408204177,0.5876174657761061,-1.6376937422455657
1.3907072960006568,13.004907627833965,-0.04061004625056896,0.5716126935736465,-1.6617663393131021
1.3826375036265635,12.892178085166723,-0.04008787749036687,0.5556827330987696,-1.6852962789349488
1.3746709100751253,12.782627111570434,-0.03957805802401447,0.5398270028641283,-1.7081582377711937
1.3668051931864955,12.676239904184474,-0.03907911086228319,0.5240450709954614,-1.7302234832291774
1.3590383280550686,12.573001730661211,-0.038589540451985475,0.5083366642371768,-1.751359448211979
1.3513685909184594,12.472897896407293,-0.038107830914107646,0.4927016783019884,-1.7714292795224542
1.3437945634431543,12.37591370960564,-0.03763244383894312,0.47714018971453814,-1.7902913574136778
1.3363151374993847,12.28203444370238,-0.037161815598752264,0.461652469318093,-1.8077987837395526
1.328929520526362,12.191245297007164,-0.036694354131474885,0.44623899763407354,-1.8237988361853046
1.321637241599112,12.103531349015146,-0.03622843514102462,0.4309004822860903,-1.838132386178407
1.314438158319964,12.018877513014257,-0.03576239765045426,0.41563787772278715,-1.8506332783406292
1.3073324646715727,11.93726848449236,-0.03529453883345919,0.4004524074961897,-1.8611276698033903
1.3003206999845454,11.85868868480545,-0.03482310803681426,0.38534558937290625,-1.869433328457747
1.2934037591917888,11.783122199510956,-0.034346299890751546,0.370319263572034,-1.875358890367336
1.2865829045642114,11.710552710710523,-0.033862246385023165,0.3553756244322881,-1.8787030783046978
1.279859779149304,11.640963422686681,-0.03336900776404999,0.3405172558061166,-1.8792538859115853
1.2732364221665935,11.574336980060867,-0.0328645620630547,0.32574717045204227,-1.8767877356567269
1.2667152866537577,11.510655377652082,-0.03234679306530373,0.31106885363582104,-1.8710686240226686
1.2602992597068432,11.449899861184694,-0.03181347640384042,0.2964863110380455,-1.8618472748280859
1.2539916857212352,11.39205081799349,-0.03126226345223853,0.282004120873991,-1.8488603321638077
1.24779639312231,11.337087656923867,-0.0306906625370138,0.26762748982223505,-1.8318296393164042
1.241717725184349,11.284988676754015,-0.030096016842595982,0.25336231187627456,-1.8104616709773635
1.2357605756858658,11.235730922716535,-0.029475478142234644,0.23921522849852694,-1.7844472153469164
1.229930430358173,11.18929003113104,-0.028825975134693038,0.2251936873564056,-1.7534614436755465
1.2242334153812335,11.145640062865454,-0.028144174634701636,0.21130599529948113,-1.7171645617247897
1.2186763546119554,11.104753327447156,-0.027426433058079083,0.19756135888348023,-1.675203316374898
1.2132668378651312,11.066600201320249,-0.026668734410162376,0.1839699023855833,-1.6272137385627026
1.2080133035143874,11.03114894622648,-0.02586660909727611,0.17054264855209805,-1.5728256497219872
1.20292514010654,10.99836553727891,-0.025015024981198244,0.15729144092358527,-1.5116696520504036
1.1980128138433472,10.968213515361,-0.02410823765072806,0.14422877825551292,-1.443387569405427
1.193288032068378,10.940653885387203,-0.023139580098963795,0.1313675214824575,-1.3676476007815233
1.1887639578861782,10.915645090922887,-0.022101161723035844,0.11872042316070039,-1.2841657597166498
1.1844554985942808,10.893143106391335,-0.020983431195938547,0.10629942215482294,-1.1927354068108609
1.180379701967167,10.873101699045218,-0.019774535075201324,0.09411465130634743,-1.0932666230790793
1.176556311384505,10.855472919829769,-0.018459370751417195,0.0821731408481326,-0.9858363876364462
1.173008556068053,10.840207875962179,-0.017018182413103926,0.07047729782778027,-0.870748263497246
1.169764291256861,10.827257800887153,-0.01542446569881503,0.059023452922459176,-0.7485954983734355
1.1668576671799282,10.816575339705604,-0.013641775070513356,0.04780115889304491,-0.6203131917198705
1.1643316330115867,10.808115765125333,-0.011618566612901626,0.036794586909680044,-0.4871940972003417
1.1622419069977121,10.80183745184927,-0.009278693525844364,0.025988545850936483,-0.35083320158021497
1.1606641170136933,10.797700104099803,-0.006499206314343553,0.015384931643723123,-0.21296722192415662
1.1597107380924319,10.795656242988684,-0.003034582898270019,0.005053679467455692,-0.07519900952105868
