x,y,v_x,v_y,omega
2.375,32.48,0.0,3.948717948717949,-5.3061224489795915
2.373703574614876,31.778538510091,-0.014404726501378397,3.845298605826466,-4.919333794733892
2.3700308821958425,31.095254738184458,-0.026402967043438325,3.746743304246238,-4.575152648108105
2.364380205618077,30.42930566688772,-0.036382328265066335,3.6526908212730267,-4.267548284456233
2.35708614068382,29.7799099662249,-0.044662837671121634,3.5628169638694587,-3.991494321882306
2.3484305967316756,29.146341781265356,-0.051509872908259854,3.4768295356810386,-3.7427790157734573
2.3386517140292327,28.527925346714042,-0.05714437934110807,3.3944641815557564,-3.5178554251499303
2.3279511300972415,27.924030287453057,-0.06175099768101697,3.3154809213440943,-3.313722232848327
2.3164999291929154,27.334067493640312,-0.06548456792260679,3.2396612321308593,-3.1278283278084418
2.304443535438266,26.757485481268233,-0.06847536268460482,3.1668055720033093,-2.957995946840855
2.291905754022676,26.19376716610501,-0.07083331971083852,3.096731263143627,-2.8023584136751865
2.2789921219361444,25.642426992101818,-0.07265148125062823,3.0292706702251633,-2.65930943338454
2.265792696495977,25.10300836565085,-0.07400880141789465,2.9642696236745003,-2.527461589456668
2.2523843841120303,24.575081355233472,-0.07497244729262786,2.9015860476296975,-2.4056122112959386
2.2388328915273576,24.058240622521595,-0.07559969253706628,2.8410887602800305,-2.292715176162235
2.225194365860861,23.552103556264992,-0.07593948153512364,2.782656420348918,-2.187857513356411
2.211516777183928,23.056308584592692,-0.07603372598635341,2.7261765982321897,-2.0902399129775304
2.1978410873425474,22.570513644886862,-0.07591838336231634,2.6715449540548013,-1.9991604237487874
2.1842022407258237,22.094394793311057,-0.07562435682350158,2.618664507898592,-1.9140007667562562
2.170630006249339,21.62764493851304,-0.07517824847077337,2.5674449898571514,-1.8342148037919719
2.157149694634556,21.169972686068917,-0.0746029916934822,2.51780225952199,-1.759318787336683
2.1437827708655233,20.721101281963364,-0.07391838351799278,2.4696577860952598,-1.688883089343982
2.1305473782905686,20.28076764486783,-0.07314153398150351,2.4229381816329,-1.622525161915995
2.117458788052063,19.848721478230374,-0.07228724644633958,2.377574781005482,-1.5599035277666018
2.1045297852478604,19.424724454263902,-0.07136834026702167,2.333503263066432,-1.500712634417445
2.0917710013557973,19.008549462843334,-0.07039592520034445,2.2906633082732273,-1.4446784351952313
2.079191200909939,18.599979919120813,-0.06937963530918766,2.248998288643681,-1.3915545837193786
2.066797529142195,18.198809124360757,-0.06832782877686121,2.2084549864680434,-1.3411191477990534
2.054595726245887,17.80483967509964,-0.06724775895989293,2.168983338655484,-1.2931717643711254
2.0425903130391054,17.41788291626206,-0.06614572111545954,2.1305362039843314,-1.2475311699938825
2.030784752073067,17.03775843432603,-0.06502717850718667,2.0930691508603894,-1.2040330520106164
2.0191815876183576,16.66429358703578,-0.06389687098958578,2.0565402634757346,-1.1625281742457163
2.007782567448742,16.297323066517148,-0.06275890867280819,2.0209099645090753,-1.122880738339642
1.996588748911121,15.936688492966162,-0.06161685285631753,1.9861408527240785,-1.084966947845155
1.9856005914071284,15.582238036360174,-0.06047378607693218,1.952197554009115,-1.0486737472183234
1.974818037105424,15.233826063888522,-0.059332372830893994,1.9190465845647864,-1.013897712023833
1.9642405814444537,14.89131281101978,-0.05819491229099763,1.886656225087909,-0.9805440701806124
1.9538673347656554,14.554564074318595,-0.0570633841400956,1.8549964049252465,-0.9485258370189142
1.9436970762303198,14.223450924300153,-0.05593948847474342,1.8240385952796694,-0.9177630494001237
1.9337283010143251,13.897849436766691,-0.05482468059186485,1.7937557106476743,-0.8881820862444011
1.923959261639324,13.577640441210715,-0.0537202013525928,1.764122017752066,-0.8597150645833532
1.9143880041830446,13.262709284995253,-0.052627103717177506,1.7351130513086006,-0.8322993017582904
1.9050124000120985,12.952945612134616,-0.05154627596000198,1.7067055360317969,-0.8058768356630176
1.8958301735955372,12.648243155600792,-0.050478462001791694,1.6788773143440285,-0.7803939960196518
1.8868389268842285,12.348499542172437,-0.049424279234969885,1.6516072793043666,-0.7558010206066147
1.8780361606781353,12.05361610892622,-0.048384234166066034,1.6248753123202548,-0.7320517111546173
1.8694192933492666,11.763497730545197,-0.04735873615469827,1.5986622252466731,-0.709103124309847
1.8609856772411784,11.478052656686685,-0.046348109490726375,1.572949706514578,-0.6869152936510077
1.8527326130253288,11.197192358713647,-0.04535260401871177,1.547720270963638,-0.6654509792528338
1.8446573622594555,10.920831385149356,-0.04437240449099035,1.5229572130840476,-0.6446754417253543
1.8367571583626578,10.648887225265888,-0.04340763880676287,1.4986445633989296,-0.6245562380357321
1.8290345657086278,10.381281204457022,-0.04239894623801557,1.4747556678106957,-0.6035387357092491
1.8214914087545617,10.11793727844783,-0.04141390880716386,1.4512879545136448,-0.5834071778154442
1.8141234685634586,9.858780897893197,-0.040452093316203475,1.4282273849822522,-0.5641143032365526
1.8069266059279911,9.603739987110842,-0.039513047077877395,1.4055605125994781,-0.5456158482274353
1.7998967644785466,9.35274484037268,-0.038596302360395456,1.3832744511578874,-0.5278703258792524
1.7930299730445447,9.105728023686947,-0.037701380239625916,1.3613568453502523,-0.5108388239837571
1.7863223473690895,8.862624281726088,-0.03682779393210018,1.3397958431037247,-0.49448481958489243
1.7797700912646297,8.623370449580609,-0.03597505167300657,1.3185800696238248,-0.4787740086801521
1.7733694972864757,8.38790536904217,-0.03514265919537033,1.2976986030255129,-0.4636741496902628
1.7671169469915227,8.156169809140398,-0.0343301218596646,1.277140951438612,-0.4491549194545681
1.76100891084122,7.928106390677367,-0.033536946477032537,1.2568970314839476,-0.43518778063309377
1.7550419478005264,7.703659514521576,-0.03276264286400633,1.2369571480248334,-0.4217458595064712
1.7492127046781873,7.4827752934397935,-0.03200672516198194,1.2173119751060715,-0.4088038332632445
1.7435179152480496,7.2654014872602914,-0.03126871295066162,1.1979525379994964,-0.3963378259519854
1.7379543991861879,7.051487441175013,-0.030548132181134235,1.1788701962813626,-0.38432531235427203
1.7325190608542815,6.840984027001156,-0.02984451595115974,1.1600566278725926,-0.37274502910502244
1.7272088879558516,6.6338435872345904,-0.029157405142503756,1.1415038139781415,-0.36157689244982966
1.722020950088626,6.43001988173857,-0.02848634893778068,1.1232040248665163,-0.35080192208563893
1.7169523972133307,6.229468036921446,-0.02783090523216801,1.1051498064348784,-0.3404021705820525
1.7120004580566195,6.032144497266483,-0.027190640953512892,1.087333967509174,-0.3303606579263798
1.7071624384635573,5.838006979085737,-0.026565132302733052,1.0697495678324311,-0.3206613107768168
1.7024357197130622,5.647014426378021,-0.02595396492498989,1.0523899066977447,-0.31128890604534193
1.697817756807936,5.459126968678522,-0.025356734020858064,1.0352485121855886,-0.30222901846548
1.6933060767495536,5.274305880794703,-0.02477304440561183,1.0183191309679553,-0.293467971830402
1.6888982768059086,5.092513544329584,-0.024202510523775693,1.0015957186444617,-0.284992793614236
1.6845920227804982,4.913713410899565,-0.02364475642522947,0.9850724305779861,-0.27679117271426346
1.680389997340638,4.738093597420757,-0.02304441512877264,0.9662588302976499,-0.3182747873760704
1.676291741831428,4.565851225572935,-0.022491757195782603,0.9475453013448418,-0.36082980391362474
1.6722888232444892,4.3969685033326265,-0.021985115992426002,0.9289293902141572,-0.40435767268397316
1.6683731086579459,4.23142807172297,-0.02152282385805556,0.9104087387820226,-0.44876104840496917
1.6645367652454786,4.069212987840057,-0.021103214058249088,0.8919810821392432,-0.49394357266402256
1.6607722599583932,3.9103067082385152,-0.020724622464919202,0.8736442467667648,-0.5398096565494223
1.6570723589285365,3.754693072614309,-0.02038538897793355,0.8553961490577636,-0.5862642624191028
1.6534301266374913,3.602356287721822,-0.020083858700345635,0.8372347941920808,-0.6332126837894091
1.649838924895529,3.453280911461043,-0.019818382877013447,0.8191582753721239,-0.6805603222853381
1.646292411672233,3.307451837068605,-0.01958731960405343,0.8011647734327304,-0.7282124605432585
1.6427845398195888,3.1648542773439523,-0.019389034314215077,0.7832525568411723,-0.7760740298964784
1.639309555727634,3.025473748838568,-0.019221900040839936,0.765419982107542,-0.8240493716023818
1.635861997952508,2.8892960559321637,-0.019084297460559167,0.7476654946302719,-0.8720419902861954
1.632436695856955,2.756307274714846,-0.018974614712254124,0.7299876300065814,-0.9199542981796703
1.62902876830402,2.6264937365883547,-0.018891246987021004,0.7123850158433149,-0.9676873486218092
1.6256336224459067,2.4998420114925537,-0.018832595880905065,0.694856374110038,-1.015140557161883
1.622246952651719,2.376338890655134,-0.01879706849896066,0.677400524083528,-1.0622114084608525
1.6188647396201992,2.2559713687529204,-0.01878307629570329,0.660016385941076,-1.1087951470243502
1.615483249726598,2.138726625361972,-0.018789033633197165,0.6427029850694744,-1.1547844496169284
1.6120990346565676,2.0245920055606526,-0.018813356033807065,0.6254594571674074,-1.200069077001649
1.6087089313845278,1.9135549995347603,-0.018854458099970654,0.6082850542314071,-1.244535502419695
1.6053100625593975,1.8056032210162485,-0.018910751068141322,0.5911791515298537,-1.2880665139701113
1.6018998373670246,1.700724384366822,-0.018980639958227047,0.5741412556859828,-1.3305407877690985
1.598475952946186,1.5989062800941944,-0.019062520273310166,0.5571710140098622,-1.3718324284611723
1.5950363964438523,1.5001367485616015,-0.01915477419706496,0.5402682252411878,-1.411810473321952
1.5915794478055996,1.4044036516197984,-0.019255766227966445,0.5234328518899666,-1.4503383558370098
1.5881036834088866,1.3116948418544965,-0.019363838179956124,0.5066650343911464,-1.487273324268619
1.584607980660523,1.2219981291002675,-0.019477303468525255,0.48996510732252313,-1.5224658103419826
1.581091523695347,1.135301243823644,-0.01959444058898809,0.4733336179732777,-1.5557587428102666
1.577553810331156,1.0515917969226152,-0.019713485679800264,0.4567713475937159,-1.5869868003181622
1.5739946604556694,0.970857235425683,-0.019832624047829126,0.44027933570552147,-1.6159755977144143
1.5704142260450935,0.8930847935006305,-0.019949980514124662,0.42385890790617137,-1.6425407998214943
1.5668130030412488,0.8182614380996078,-0.020063608417482427,0.40751170766074457,-1.6664871567397155
1.56319184534573,0.7463738084727112,-0.020171477088280577,0.3912397326380949,-1.6876074551682547
1.5595519812259622,0.6774081486760295,-0.02027145757581036,0.3750453762139351,-1.7056813811499933
1.5558950324701808,0.6113502320823869,-0.02036130637731576,0.3589314748265213,-1.720474291359615
1.5522230366775338,0.548185276774845,-0.020438646874315906,0.34290136192393394,-1.7317358929486788
1.5485384731272689,0.48789785056710855,-0.020500948128627367,0.32695892927312425,-1.7391988366140272
1.544844292739679,0.43047176425742606,-0.02054550062236925,0.31110869639000555,-1.7425772348118604
1.5411439527244206,0.3758899515934644,-0.02056938843605889,0.2953558887651304,-1.7415651281386388
1.5374414566139953,0.32413433432301986,-0.02056945723533488,0.2797065253508852,-1.7358349396618802
1.5337414005092902,0.27518567065853716,-0.020542277261388676,0.26416751536560745,-1.7250359820838959
1.5300490265321463,0.229023385539314,-0.020484100262432532,0.24874676373687069,-1.7087931199903885
1.5263702847063543,0.18562538130912998,-0.02039080891303262,0.23345328326517722,-1.686705744840529
1.5227119048047224,0.14496782795494312,-0.020257856660653873,0.21829730955915544,-1.6583473022204236
1.5190814801577017,0.10702493305488758,-0.0200801949729105,0.20329041155259986,-1.6232657314107477
1.515487566104441,0.07176869333422786,-0.0198521833966545,0.18844558534364553,-1.580985353910695
1.5119397968235906,0.039168632634641654,-0.01956747527945899,0.17377731131846014,-1.5310110043255127
1.508449025949282,0.009191535758702685,-0.019218867768415197,0.15930154285867665,-1.4728355656549026
1.5050274990611376,-0.01819880511654759,-0.018798097655410517,0.14503557797740066,-1.4059525888880873
1.5016890705114112,-0.04304180389152634,-0.018295552897103995,0.13099774174459708,-1.3298763769949065
1.498449484239798,-0.06538021062404198,-0.01769985012082114,0.11720677750555403,-1.2441727942974796
1.4953267500697582,-0.08526009380216948,-0.016997196212953057,0.10368081336249298,-1.148505010426875
1.4923416664558409,-0.10273058482619035,-0.01617039949724089,0.09043575357108335,-1.0426990048156846
1.4895185725091071,-0.11784327129271333,-0.015197311022023529,0.0774829849458121,-0.9268329157837412
1.4868864641137638,-0.130651123082977,-0.014048337815124155,0.06482647939045691,-0.801350020781324
1.484480695460881,-0.14120689627978322,-0.01268242499468394,0.05245988946293952,-0.6671834865786391
1.4823456444371925,-0.14956116724009405,-0.011040364157410741,0.040365343429430336,-0.525857737142538
1.4805390737364197,-0.15576064542595702,-0.009032643628954104,0.02851774752460695,-0.379497280177648
1.4791400215293922,-0.15984850947168638,-0.006512380893572705,0.016902964094597107,-0.23064618363272144
1.4782671547631243,-0.16187186582352808,-0.0031861387316263583,0.005578773148110476,-0.08181702462485976
