x,y,v_x,v_y,omega
2.375,32.48,0.0,2.717948717948718,-3.7142857142857144
2.3741704139481894,31.915591378015236,-0.007900819541053419,2.6573714914299567,-3.492190705234183
2.3717973587239,31.36366328332121,-0.014699706404562836,2.599086553275051,-3.2898297618612866
2.3680968620090663,30.823749062307144,-0.020543119450994372,2.5429536468589076,-3.1049169337297204
2.363256412159413,30.2954102704837,-0.02555640292665264,2.4888443705072323,-2.9354803411496246
2.3574390401034533,29.77823432296692,-0.029847140463440964,2.4366408439382883,-2.779812960125157
2.350786758500942,29.27183240471574,-0.03350792241762335,2.386234567977692,-2.636432031446157
2.343423469523514,28.775837603573425,-0.03661863927216348,2.337525442901533,-2.5040454235863727
2.3354574314417764,28.289903235669374,-0.03924839007771923,2.290420918089424,-2.3815236339243953
2.3269833574368475,27.813701337889476,-0.041457076635888636,2.2448352512429137,-2.267876385432385
2.3180842066948415,27.346921306239864,-0.04329673995464468,2.2006888597058167,-2.162232987060227
2.3088327171346426,26.88926866224789,-0.044812684428204484,2.157907749741549,-2.0638257906419297
2.2992927204896816,26.440463932242157,-0.046044426476181795,2.1164230122178043,-1.9719762063517638
2.2895202734749334,26.00024162656372,-0.04702649747380284,2.0761703751958502,-1.8860828407745407
2.2795646330829396,25.56834930758546,-0.04778912530709223,2.037089805549493,-1.8056114026987888
2.2694690994047786,25.14454673693321,-0.048358814484917106,1.9991251530433662,-1.7300860864556475
2.259271745558092,24.728605093571517,-0.048758841197808545,1.9622238313537295,-1.6590821945590317
2.249006051163025,24.320306255485335,-0.049009676850450296,1.926336531371826,-1.5922198032743868
2.238701453210318,23.919442138593972,-0.04912935127057159,1.8914169628315924,-1.5291583086530534
2.2283838260121254,23.525814087304056,-0.04913376490268789,1.857421620881934,-1.4695917181461695
2.2180759001340817,23.13923231176758,-0.049036957745348934,1.8243095747035314,-1.4132445754281424
2.2077976287114214,22.75951536747832,-0.04885134151808443,1.7920422756703978,-1.3598684245133823
2.1975665082999507,22.386489673329248,-0.04858790049591837,1.760583382892181,-1.3092387344287542
2.187397860361677,22.019989064678647,-0.04825636558288151,1.7298986042563815,-1.2611522182323511
2.177305078600323,21.659854378342118,-0.047865365477632184,1.6999555513296465,-1.2154244905437008
2.167299846615534,21.305933066750928,-0.04742255818702615,1.6707236066816618,-1.171888016368837
2.157392329713123,20.95807883880051,-0.04693474564545927,1.6421738023699264,-1.1303903111848712
2.1475913441733,20.616151325161923,-0.04640797378142833,1.6142787084737906,-1.0907923582499262
2.1379045068237583,20.28001576604914,-0.04584762002372776,1.5870123306955375,-1.0529672141336157
2.128338367376895,19.94954271962949,-0.04525846994639813,1.5603500161582693,-1.016798777689515
2.1188985256595534,19.624607789436975,-0.04464478450447406,1.5342683666275883,-0.9821807012518675
2.1095897355806668,19.305091369301856,-0.044010359103972524,1.5087451584687754,-0.9490154258465053
2.100415997439581,18.99087840444649,-0.0433585755730328,1.4837592687251921,-0.9172133247528118
2.091393146060737,18.68186000080017,-0.0425733423207223,1.459273146954055,-0.8833543374908895
2.0825350989322184,18.37793126702551,-0.041789011284213466,1.4352862223284069,-0.8510947209164447
2.0738414879098803,18.078989292014928,-0.041007284166624684,1.411780206343817,-0.820339577089323
2.0653116112934247,17.784934914692837,-0.04022963599009716,1.3887376729141951,-0.791000706104047
2.0569444787091493,17.495672548270054,-0.03945734100300388,1.3661420073027795,-0.76299605861859
2.0487388508650564,17.211110014844003,-0.03869149560740224,1.3439773586596153,-0.7362492390774281
2.0406932747664497,16.931158389618513,-0.03793303866504278,1.3222285958688547,-0.710689054395068
2.032806114909679,16.65573185407639,-0.03718276949467811,1.3008812664370883,-0.6862491034612348
2.0250755809101686,16.384747557491718,-0.03644136383399301,1.279921558178846,-0.6628674033501465
2.0174997519670406,16.118125486217778,-0.03570938800532112,1.259336263477721,-0.6404860485736863
2.0100765985195403,15.855788340230848,-0.03498731149467935,1.2391127459216025,-0.6190509001202694
2.002804001409169,15.597661416450592,-0.034275518127904525,1.2192389091284728,-0.5985113013750497
1.9956797688251853,15.343672498394582,-0.03357431600527754,1.1997031675954124,-0.5788198183290557
1.9887016512792977,15.09375175175817,-0.032883946336508124,1.1804944194180262,-0.5599320017602499
1.9818673548273662,14.84783162554151,-0.03220459130093406,1.1616020207406497,-0.541806169313008
1.9751745527312607,14.605846758373737,-0.03153638104292614,1.1430157618095718,-0.5244032056181006
1.9686208957323066,14.367733889709946,-0.030879399899494522,1.1247258445122499,-0.5076863787864081
1.9622040210885596,14.133431775600162,-0.030233691945716543,1.1067228612952185,-0.49162117177928455
1.9559215605112275,13.902881108751131,-0.029599265933636112,1.0889977753622104,-0.4761751273093417
1.9497711471205843,13.67602444262159,-0.02897609969153827,1.0715419020620172,-0.4613177050596843
1.9437504215284767,13.452806119309873,-0.028364144042819724,1.0543468913828837,-0.44702015012928964
1.9378570371428037,13.233172201009602,-0.027763326296921603,1.0374047114768579,-0.4332553717189912
1.9320886647789481,13.017070404824459,-0.02717355335884547,1.020707633143533,-0.41999783116790756
1.9264429966539232,12.804450040747536,-0.026594714498535878,1.0042482152081256,-0.4072234385354687
1.9209177498308136,12.59526195262363,-0.026026683816793482,0.9880192907338402,-0.3949094570005773
1.9155152240506212,12.38960216666188,-0.025425942661228523,0.9706453374733033,-0.41037146442643846
1.91023548290726,12.187578810682801,-0.024857306323165403,0.9533866242322229,-0.42777713135047823
1.9050718081622409,11.989168022215608,-0.02432054839130275,0.936239932598202,-0.4470137110343149
1.9000175387538922,11.794346601372652,-0.023815350735826947,0.9192021706680549,-0.4679715137330918
1.8950660891931328,11.60309198483457,-0.02334131174759624,0.9022703677898772,-0.4905436632780326
1.89021096629897,11.415382220895872,-0.022897953911098303,0.8854416697215531,-0.5146258613145411
1.8854457844086212,11.231195945485346,-0.0224847307588887,0.8687133341882102,-0.5401161582524487
1.8807642791875594,11.050512359079107,-0.022101033251222608,0.8520827268236016,-0.566914730010191
1.876160320155991,10.873311204426933,-0.02174619562085645,0.8355473174828104,-0.5949236596535629
1.8716279220402547,10.699572745015054,-0.021419500719490357,0.8191046769160566,-0.6240467230422997
1.8671612550503112,10.52927774419031,-0.021120184899019546,0.8027524737957805,-0.6541891776040444
1.8627546541778623,10.362407444872137,-0.020847442457636457,0.7864884720915892,-0.6852575533552174
1.858402627603636,10.198943549779557,-0.020600429677850945,0.7703105287901238,-0.7171594452817452
1.8540998642969937,10.03886820210085,-0.02037826848064858,0.754216591959463,-0.7498033061793165
1.8498412408862128,9.88216396653327,-0.020180049717263365,0.7382046991603527,-0.7830982390325381
1.8456218278735754,9.728813810619446,-0.020004836117377144,0.7222729762093856,-0.8169537879846863
1.8414368952657063,9.57880108630572,-0.01985166490994997,0.7064196363022787,-0.8512797269142597
1.837281917686479,9.43210951164557,-0.019719550130309123,0.6906429795086702,-0.8859858445907253
1.8331525790372183,9.28872315256855,-0.019607484624554614,0.6749413926534179,-0.9209817253291006
1.8290447767668665,9.148626404631596,-0.019514441759749493,0.6593133496032965,-0.9561765240006541
1.8249546258132914,9.011803974665106,-0.019439376845726598,0.6437574119823201,-0.9914787341842676
1.820878462275969,8.87824086222087,-0.019381228271630146,0.6282722303437455,-1.0267959481590367
1.8168128468799114,8.747922340722397,-0.019338918357489136,0.612856545832211,-1.0620346073425766
1.8127545682909687,8.62083393821058,-0.01931135391815536,0.5975091923755517,-1.0970997416702615
1.808700646343514,8.496961417568613,-0.019297426533794498,0.5822290994527057,-1.1318946962872642
1.8046483352431015,8.376290756099426,-0.01929601251775256,0.5670152954919301,-1.1663208437867567
1.800595126808994,8.258808124316719,-0.01930597256898606,0.5518669119624119,-1.2002772800730528
1.79653875382456,8.144499863796256,-0.0193261510922911,0.536783188232482,-1.2336605017570472
1.7924771935675197,8.03335246391753,-0.019355375165236752,0.521763477279191,-1.2663640628025208
1.7884086715969465,7.9253525373067575,-0.01939245312593651,0.5068072523472205,-1.2982782079357493
1.78433166587992,7.820486793769927,-0.01943617275050459,0.49191411467020985,-1.329289480108113
1.7802449113478858,7.718742012479144,-0.019485298983157262,0.47708380238486725,-1.3592802990639763
1.7761474049812438,7.620105012145995,-0.019538571175336486,0.4623162007879653,-1.3881285078176415
1.7720384115306351,7.524562618881831,-0.019594699782841306,0.4476113541088298,-1.4157068835898776
1.7679174699949667,7.432101631405878,-0.019652362461619537,0.43296947899549026,-1.4418826095063133
1.7637844009896853,7.342708783217489,-0.01971019949344046,0.41839097994156305,-1.4665167031321613
1.7596393151543697,7.256370701297719,-0.019766808461946422,0.40387646691337403,-1.4894633977333733
1.7554826227666958,7.173073860847165,-0.019820738087328673,0.38942677547286997,-1.5105694720476017
1.7513150447505788,7.092804535500726,-0.019870481113785147,0.37504298973132644,-1.5296735243694484
1.7471376252902342,7.015548742385267,-0.019914466127594045,0.36072646851114465,-1.546605186976528
1.742951746289561,6.941292181302227,-0.01995104816453223,0.34647887513686776,-1.5611842774518998
1.7387591439482994,6.870020167224297,-0.019978497942719844,0.33230221131960647,-1.5732198844477674
1.7345619277636968,6.801717555193818,-0.019994989529684815,0.3181988556373416,-1.5825093871065004
1.7303626023100964,6.736368656602146,-0.019998586218890193,0.3041716071404844,-1.5888374100276936
1.7261640922004997,6.673957145717601,-0.019987224348698627,0.290223734617074,-1.5919747198058847
1.7219697706959787,6.614465955220869,-0.01995869474197709,0.2763590320184797,-1.5916770754299558
1.7177834925040802,6.55787715941182,-0.019910621371342318,0.26258188044865016,-1.5876840541974666
1.7136096314009186,6.504171843688312,-0.0198404367540077,0.248897316918109,-1.5797178886526535
1.7094531234309431,6.453329958893683,-0.019745353436234393,0.23531110969741126,-1.567482370429337
1.7053195165949453,6.4053301592298695,-0.01962233071612462,0.22182983948177587,-1.5506619066976788
1.7012150281490557,6.360149622705375,-0.019468035435205172,0.2084609845610441,-1.5289208584024303
1.6971466109345759,6.317763853636436,-0.019278795178887236,0.19521300657169663,-1.5019033527044625
1.6931220305878625,6.278146467702992,-0.019050541456479712,0.1820954308896562,-1.469233853610137
1.6891499561182401,6.241268961712883,-0.01877873920659114,0.16911891187327474,-1.4305189067047808
1.6852400673162886,6.2071004728901755,-0.01845829700246997,0.15629526739059454,-1.3853506624089487
1.6814031839718582,6.175607536661765,-0.018083449134964385,0.1436374585942722,-1.333313047855128
1.67765142428058,6.146753858228102,-0.017647595543874406,0.13115947886919135,-1.273991823444153
1.6739984036550175,6.12050012248951,-0.01714307708053087,0.1188760995936083,-1.2069902445227898
1.670459491333632,6.0968038800134785,-0.016560849789806622,0.10680240017813349,-1.1319526438702479
1.6670521521433423,6.07561956412998,-0.015889999641522608,0.09495298918851942,-1.0485988739136276
1.6637964168022763,6.056898714890668,-0.015117003606724473,0.08334081309063496,-0.9567729338992985
1.6607155498121386,6.040590504516786,-0.01422458677553853,0.07197547618444108,-0.8565086070410429
1.6578370249650602,6.026642662259857,-0.01318993557759056,0.06086111673868916,-0.7481122011955504
1.6551939849754793,6.015002853505123,-0.011981873846989698,0.04999420473494677,-0.6322552344475196
1.6528274777713707,6.005620419841115,-0.010556290001663833,0.03936230635084399,-0.510055442815227
1.650790004899479,5.998448034649858,-0.008848213540162079,0.02894612404208332,-0.3831026903963063
1.6491515966417232,5.993442082933949,-0.006755674628940783,0.018729606585601702,-0.2533659105153955
1.6480122918131601,5.990558670879658,-0.004094847547850212,0.008731460598132153,-0.12291862689587627
