x,y,v_x,v_y,omega
2.375,32.48,0.0,2.717948717948718,-2.2448979591836737
2.374493108294019,31.91557248509618,-0.004827540056964858,2.657551423992396,-2.1107487147445814
2.373043534869541,31.363591255005257,-0.008977921128535099,2.599412672111634,-1.9885097250966224
2.3707839852740547,30.823596101774125,-0.01254159882848023,2.5433983110419947,-1.8768038042240491
2.367829542109888,30.295153869014143,-0.015595955115961638,2.489384858100713,-1.7744421680461064
2.3642801929213206,29.777856325382942,-0.01820737048944426,2.4372584145773644,-1.6803951632703995
2.360222960611821,29.271318251423352,-0.020432937220075068,2.3869137183711144,-1.5937680507354066
2.355733704677687,28.775175713165027,-0.02232188120024626,2.33825331266056,-1.513780886264834
2.350878648797741,28.289084499938355,-0.023916746227811203,2.291186813307761,-1.439751738886694
2.3457156801440884,27.812718707159682,-0.025254383806979374,2.245630260774833,-1.3710826394126112
2.3402954576174846,27.345769447577283,-0.026366783113057107,2.201505544771843,-1.30724777223983
2.3346623596341693,26.88794367673644,-0.027281769108990238,2.158739891807571,-1.2477835175877197
2.3288552967684373,26.43896312032065,-0.028023591517032393,2.1172654073904447,-1.192280026037345
2.3229084102299593,25.998563292624276,-0.028613423135138795,2.0770186659083563,-1.1403740666120044
2.3168516736264237,25.566492596765986,-0.029069782612818153,2.0379403422658493,-1.0917429370720249
2.310711412572971,25.14251149840466,-0.02940889408673217,1.999974880222982,-1.0460992631674275
2.3045107543360106,24.726391765705856,-0.029644993884316406,1.9630701930989543,-1.0031865442767234
2.298270017741843,24.317915769154567,-0.029790592726803806,1.927177393103778,-0.9627753276926293
2.2920070519617015,23.916875835541816,-0.029856700417403202,1.8922505460652899,-0.9246599139902878
2.2857375314417565,23.52307365108682,-0.02985301882016822,1.8582464487442307,-0.8886555123654115
2.2794752131289626,23.136319709208124,-0.029788107968344378,1.8251244262909492,-0.8545957782936975
2.273232161210898,22.756432798938576,-0.029669529346557134,1.7928461477047248,-0.82233067691944
2.26701894380719,22.38323953040051,-0.02950396973637391,1.76137545741974,-0.7917246246910192
2.260844805395163,22.01657389412783,-0.029297348473408518,1.7306782213676684,-0.7626548692906178
2.254717818201349,21.65627685134775,-0.02905491051529571,1.7007221860616446,-0.7350100741483491
2.248645015325839,21.302195952622718,-0.02878130734670607,1.6714768494148877,-0.7086890790223147
2.2426325079736014,20.954184982508032,-0.02848066743650701,1.6429133421535114,-0.6835998124554632
2.236685588834037,20.612103628106823,-0.028156657702202194,1.6150043188103829,-0.659658335540692
2.2308088233673145,20.27581716960494,-0.0278125372189644,1.5877238573980506,-0.6367879994616354
2.225006130515421,19.945196191047756,-0.027451204227637176,1.5610473669560823,-0.6149187018290532
2.2192808541506017,19.62011630978074,-0.02707523734207273,1.534951502253566,-0.5939862289841422
2.2136358263984306,19.300457923118838,-0.02668693172622599,1.5094140850026734,-0.5739316732579358
2.2080734238225155,18.986105970937984,-0.026288330901535657,1.4844140310054488,-0.5547009157156122
2.2026031863479667,18.676950385429613,-0.025809168856070874,1.4599248785981076,-0.5342239843905653
2.1972334952535926,18.37288516753815,-0.02533074632844606,1.435934339415827,-0.5147141630522581
2.191964087454349,18.07380752113106,-0.024854089854825175,1.4124241977945613,-0.49611408932906387
2.18679449879974,17.779618385619795,-0.02438008780811832,1.3893770927889026,-0.4783704473082715
2.181724091417445,17.49022226174273,-0.02390950630897397,1.3667764679450665,-0.46143363705248663
2.17675207790922,17.205527047527482,-0.02344300329317198,1.344606524581073,-0.44525747468535093
2.1718775427627643,16.925443883726,-0.02298114095878567,1.3228521782901932,-0.4297989198951054
2.167099461299367,16.649887008072497,-0.02252439678785652,1.3014990184098356,-0.4150178280620722
2.16241671643882,16.37877361776621,-0.02207317331259015,1.2805332702214647,-0.40087672452948625
2.157828113529657,16.112023739627798,-0.02162780677467669,1.2599417596681846,-0.38734059881217103
2.153332393463498,15.849560107421105,-0.021188574807788418,1.239711880395542,-0.37437671677938444
2.1489282442666733,15.591308045871067,-0.020755703257208623,1.2198315629381515,-0.36195444906109064
2.1446143113398284,15.337195360944097,-0.020329372236555777,1.2002892458901193,-0.3500451141146841
2.1403892064965038,15.087152235989965,-0.019909721509393363,1.181073848911129,-0.33862183455501044
2.1362515159343616,14.841111133373875,-0.019496855272909168,1.1621747474325996,-0.32765940549717143
2.132199807257489,14.599006701254783,-0.019090846411594635,1.143581748939698,-0.317134173791465
2.1282326356547903,14.360775685191012,-0.018691740280772917,1.1252850707152775,-0.3070239271449711
2.12434854932767,14.126356844277087,-0.018299558072756548,1.1072753189411664,-0.2973077922265518
2.1205460942497463,13.895690871536889,-0.017914299812227797,1.0895434690607082,-0.28796614094295125
2.116823818332151,13.668720318317526,-0.01753594702201126,1.0720808473141807,-0.27898050415461667
2.113180275059797,13.445389522446135,-0.017164465095649138,1.054879113365737,-0.270333492172005
2.109614026656808,13.225644539928307,-0.016799805409009265,1.0379302439469162,-0.2620087214375188
2.1061236468329163,13.009433079981882,-0.016441907199480053,1.0212265174476058,-0.2539907468557377
2.1027077231569735,12.796704443213862,-0.016090699238070768,1.0047604993906658,-0.2462649992860647
2.0993648590987033,12.587409462761055,-0.015746101316884586,0.988525028731297,-0.23881772775798724
2.096096308986499,12.381639272309087,-0.015382947370775385,0.971191070811271,-0.25790450893368483
2.0929012131605997,12.179497327033843,-0.01504653668540841,0.9539703127624772,-0.27883372253646277
2.0897739588047655,11.980960183617483,-0.014736838132059194,0.9368596245361971,-0.3014977798811135
2.0867089498588376,11.786005043421962,-0.014453723257730776,0.9198559963735147,-0.3257919128472297
2.0837006265716,11.594609727743894,-0.014196974715962811,0.9029565338938107,-0.3516139463076889
2.080743483353623,11.40675265406022,-0.01396629402667188,0.8861584535697361,-0.37886407718983134
2.0778320850659955,11.222412813185215,-0.013761308712637742,0.8694590785731664,-0.4074446593062038
2.074961081871262,11.041569747262248,-0.013581578856257654,0.8528558349788974,-0.43725999310993147
2.072125222764127,10.86420352851638,-0.013426603116454498,0.8363462483150674,-0.46821611954221143
2.069319367891477,10.69029473869589,-0.013295824242114972,0.8199279404515056,-0.5002206171460729
2.066538499763967,10.519824449132443,-0.013188634115123825,0.8035986268194316,-0.5331824016213309
2.063777733454822,10.35277420135079,-0.0131043783529227,0.7873561139581977,-0.5670115269904251
2.0610323258755243,10.189125988159535,-0.013042360497532072,0.7711982973870939,-0.6016189875333752
2.058297684212697,10.028862235154612,-0.013001845815107304,0.7551231598026619,-0.6369165196321054
2.055569373605741,9.871965782566857,-0.012982064727330492,0.7391287696045177,-0.6728164026395529
2.052843124140581,9.718419867384064,-0.01298221589324413,0.7232132797553984,-0.7092312578568329
2.0501148372312543,9.568208105676419,-0.013001468957486008,0.70737492698407,-0.7460738446617845
2.0473805914580008,9.421314475052085,-0.013038966978261788,0.6916120313429027,-0.7832568527838574
2.044636647927978,9.277723297166865,-0.013093828545766253,0.6759229961353908,-0.8206926896628336
2.041879455222766,9.137419220208212,-0.013165149599108635,0.660306308232724,-0.8582932617615149
2.039105653995416,9.000387201269486,-0.013252004947082481,0.644760538802776,-0.8959697486243599
2.036312081278964,8.866612488524833,-0.013353449495314846,0.6292843444796348,-0.9336323683841333
2.0334957745681193,8.736080603108721,-0.01346851917939915,0.6138764690071572,-0.9711901333158355
2.0306539757362274,8.608777320596381,-0.013596231600523702,0.5985357453960789,-1.0085505939203372
2.027784134850707,8.48468865197248,-0.013735586356812782,0.5832610986410801,-1.0456195698879884
2.024883913951936,8.363800823964702,-0.013885565060053994,0.5680515490520253,-1.0823008661436888
2.021951190863148,8.246100258606674,-0.014045131023643919,0.5529062162625267,-1.1184959720081935
2.0189840631023097,8.13157355188024,-0.01421322860338734,0.5378243239892058,-1.154103741324542
2.015980851971296,8.020207451270565,-0.014388782168170019,0.5228052056267537,-1.18902005119237
2.012940106903034,7.911988832048134,-0.014570694672419199,0.5078483107773628,-1.2231374367257903
2.009860610153788,7.8069046720695106,-0.014757845796588214,0.4929532128285835,-1.2563446990023714
2.006741381935513,7.704942024862806,-0.014949089615558782,0.4781196177114626,-1.2885264831023302
2.0035816860923665,7.606087990734018,-0.015143251747739986,0.46334737399127357,-1.3195628228506424
2.0003810364362424,7.510329685595938,-0.015339125929633423,0.44863648446662424,-1.349328648574868
1.9971392038687144,7.4176542071815845,-0.015535469951585792,0.43398711947959967,-1.3776932538857978
1.9938562244313773,7.3280485982583485,-0.015731000880194114,0.4193996321702541,-1.4045197171891546
1.990532408443435,7.241499806406399,-0.01592438948116201,0.40487457594354237,-1.429664273364089
1.9871683509048894,7.157994639864455,-0.016114253743081126,0.39041272445593134,-1.4529756308279427
1.9837649433661972,7.077519718876967,-0.016299151387321385,0.3760150944725171,-1.4742942290913503
1.9803233874912145,7.000061421898067,-0.016477571231561492,0.3616829719932151,-1.4934514319593581
1.9768452105702354,6.925605825918527,-0.016647923253953405,0.34741794209764776,-1.5102686518501276
1.973332283274589,6.854138640082127,-0.01680852718077452,0.33322192301094117,-1.5245564014253337
1.9697868399844827,6.785645131646913,-0.01695759939166604,0.31909720494348537,-1.5361132700634414
1.9662115020686786,6.720110043226224,-0.017093237901706877,0.305046494301165,-1.5447248249617704
1.9626093045496762,6.657517500116228,-0.017213405136411376,0.29107296388928255,-1.550162440267533
1.958983726653463,6.59785090638638,-0.017315908160856906,0.2771803097283011,-1.5521820632564691
1.9553387268215923,6.541092828285848,-0.017398375952197717,0.2633728150386923,-1.5505229351413958
1.9516787828598468,6.487224863417985,-0.017458233207283593,0.24965542179808423,-1.5449062969774123
1.9480089380188597,6.436227494082512,-0.017492670040212713,0.23603380996831827,-1.535034130347454
1.9443348539584138,6.388079923221799,-0.01749860672593984,0.22251448394324197,-1.520588011003937
1.940662871755594,6.34275989159924,-0.01747265234853228,0.20910486484303364,-1.501228195707429
1.9370000824047282,6.300243475284855,-0.017411055754953622,0.1958133857701607,-1.476593124396029
1.93335440866848,6.260504863381733,-0.017309646495029436,0.1826495847357753,-1.4462996105715176
1.9297347007477115,6.223516117432542,-0.017163762274192466,0.16962418620889283,-1.4099441252615437
1.9261508491640402,6.1892469164494734,-0.016968157570297147,0.15674915648698984,-1.3671057719692137
1.922613919695507,6.157664295525013,-0.01671688498716115,0.14403770946026165,-1.3173518253330623
1.9191363175097291,6.128732392221,-0.016403135829769655,0.1315042267684189,-1.2602470934575458
1.9157319913625501,6.102412224337748,-0.01601901795288845,0.11916403878634828,-1.1953688908503812
1.9124166948057393,6.0786615363084415,-0.015555234969119607,0.10703299006419434,-1.122330083971486
1.909208331305133,6.057434770187722,-0.015000607893798824,0.09512668727599793,-1.0408134353237524
1.9061274264885852,6.038683240560708,-0.014341342739988569,0.08345930917175581,-0.9506210877989449
1.9031977973826246,6.022355616439896,-0.013559886840588368,0.07204187293120412,-0.8517428600430391
1.900447531852322,6.00839882402321,-0.012633118209913386,0.060879959608667156,-0.7444446468331821
1.8979104628142611,5.996759450200962,-0.011529444057331464,0.049971219650841094,-0.6293710262802732
1.8956284465035758,5.987385583813481,-0.010204044615863972,0.039303698325171096,-0.5076406737556306
1.893655011281146,5.980228667082574,-0.008590576550131684,0.028857413397749228,-0.3808880141422806
1.8920616509469803,5.975244131131902,-0.0065842837752572835,0.01861435756103206,-0.2511780897866117
1.8909508117922407,5.972387556170464,-0.003995136746073404,0.008591118262203646,-0.1207179115050207
