x,y,v_x,v_y,omega
2.375,32.48,0.0,3.6923076923076925,-2.36734693877551
2.374321578174555,31.751499301810885,-0.006784218254448996,3.592699289583433,-2.188497592879753
2.3724045951583728,31.042440767893982,-0.012385611907373003,3.497886049585588,-2.0300893398709645
2.36946573708557,30.351900927621195,-0.01700296882065951,3.4075123531422964,-1.889128276873182
2.3656855374108567,29.679023936406168,-0.020799027926468115,3.3212575590079614,-1.763134437459193
2.3612148734253693,29.02301501260453,-0.02390761192840878,3.238831679008393,-1.650042298859476
2.3561801895809094,28.3831346741129,-0.026439226516187384,3.159971705907935,-1.5481225550713065
2.3506877187260526,27.758693655934074,-0.028485482032382194,3.0844384758803356,-1.4559202054141256
2.3448269100357058,27.149048411077867,-0.03012260487108825,3.012013972681724,-1.3722052511245355
2.3386732254676486,26.55359711384831,-0.031414240809483296,2.9424989996138553,-1.2959332013592375
2.3322904309562262,25.971776097900264,-0.03241370430473877,2.8757111598665808,-1.226213260216357
2.325732481339694,25.40305667220935,-0.03316579186058371,2.811483097042567,-1.1622825647562607
2.3190450770959794,24.846942266861102,-0.033708250576563396,2.7496609564399135,-1.103485217417484
2.312266954780454,24.302965867756804,-0.03407297257868962,2.690103034603045,-1.049255138028026
2.3054309604733856,23.77068770527788,-0.0342869704919918,2.632678590186236,-0.999101974726896
2.29856494570242,23.249693166896414,-0.034373177217665155,2.577266793628394,-0.9525994768406031
2.2916925175691256,22.739590907858474,-0.03435110411528015,2.5237557967509976,-0.9093758587243964
2.2848336686979303,22.240011137549068,-0.03423738459667439,2.4720419063430756,-0.8691057810512947
2.278005307776523,21.750604062092307,-0.034046224617396356,2.4220288482244885,-0.83150365187496
2.2712217075913945,21.27103846624119,-0.033789777233888096,2.3736271102866944,-0.7963180091169664
2.264494884367817,20.8010004197445,-0.033478455001884656,2.3267533546801977,-0.763326792767205
2.257834919736272,20.340192095205097,-0.033121191313567534,2.2813298907138515,-0.7323333519285463
2.2512502346401067,19.888330686013354,-0.032725659648088094,2.2372842012035505,-0.7031630610761955
2.2447478228732844,19.44514741429333,-0.03229845802013408,2.1945485159966682,-0.6756604432110814
2.2383334506152157,19.010386619970067,-0.031845264560552755,2.153059427235983,-0.6496867162477392
2.2320118272512213,18.583804923082603,-0.03137096907939105,2.112757541638651,-0.6251176939790734
2.225786751884377,18.165170452351436,-0.03087978458905336,2.07358716567302,-0.6018419850687108
2.21966123921947,17.754262133780557,-0.03037534206001565,2.0354960200357897,-0.5797594433321026
2.2136376279025094,17.35086903374915,-0.02986077110958925,1.9984349802782726,-0.5587798305457332
2.207717673905665,16.954789751639844,-0.029338768858853097,1.9623578408147786,-0.5388216595352229
2.2019026311384806,16.565831857570565,-0.028811658812991713,1.9272210998780028,-0.5198111906259055
2.19619332112626,16.1838113712554,-0.028281441309217142,1.8929837632736615,-0.501681558921631
2.19059019331324,15.808552278424425,-0.027749836820981755,1.8596071650360784,-0.484372013490278
2.185093377311466,15.439886081590465,-0.027218323196760118,1.8270548033035292,-0.46782725252225565
2.1797027282180035,15.077651382267959,-0.026688167737862506,1.7952921899215213,-0.4519968410067869
2.1744178659566393,14.721693492031033,-0.026160454875777676,1.7642867124477526,-0.43683469953291654
2.169238209460063,14.371864070048503,-0.02563611008998676,1.7340075073775512,-0.4222986545428568
2.1641630063902992,14.028020784957153,-0.025115920607650746,1.7044253435359513,-0.4083500418050454
2.159191358995185,13.690026999134098,-0.024600553343493932,1.6755125146946013,-0.3949533560822745
2.1543222466139658,13.357751473607593,-0.024090570468696774,1.6472427405704524,-0.3820759409864535
2.149554545273164,13.031068092005508,-0.023586442939320662,1.6195910754503813,-0.36968771386863675
2.1448870447526525,12.709855602084165,-0.023088562265793543,1.592533823763047,-0.3577609213176094
2.140318463449702,12.393997373509094,-0.022597250763715333,1.5660484619876496,-0.34626992145452895
2.1358474613241896,12.083381170675334,-0.022112770491404043,1.5401135663499437,-0.33519098973294476
2.131472651170036,11.777898939459359,-0.02163533105013411,1.5147087458098258,-0.3245021453978711
2.1271926084252186,11.477446606889089,-0.02116509639804015,1.4898145798928633,-0.3141829961368395
2.1230105380629616,11.181924181652779,-0.020655607224529905,1.4654096724702375,-0.30291431133426283
2.118929137653029,10.891235269500676,-0.02015839687479803,1.4414794490507756,-0.29215848561823143
2.1149459696362483,10.605286618910213,-0.019673283293008156,1.4180070568538539,-0.28188613201784396
2.11105863478892,10.323988272516782,-0.019200065180271956,1.3949764070804624,-0.2720698663122088
2.107264775699611,10.047253418660222,-0.018738525712819,1.372372131485132,-0.26268414889042285
2.103562079553107,9.77499825132416,-0.018288435752223747,1.3501795418754978,-0.2537051407606302
2.099948280316486,9.507141837905504,-0.017849556613983558,1.3283845923110649,-0.24511057229663902
2.0964211604098955,9.243605994295105,-0.017421642451922483,1.3069738437929215,-0.2368796234655869
2.0929785519338737,8.984315166790378,-0.017004442308297323,1.2859344312543504,-0.2289928144166138
2.089618337515751,8.729196320397072,-0.01659770187292787,1.265254032678705,-0.22143190543081262
2.0863384508295573,8.478178833110626,-0.016201164989012216,1.2449208401857654,-0.21417980533895967
2.0831368768368166,8.231194395797928,-0.015814574938393153,1.2249235329412065,-0.20722048760744996
2.080011651789497,7.988176917328211,-0.01543767553480437,1.2052512517559755,-0.20053891337602828
2.076960863031021,7.749062434627273,-0.015070212049953565,1.1858935752533974,-0.19412096080463687
2.073982648626614,7.51378902735275,-0.014711931994114311,1.1668404974918334,-0.1879533601521613
2.0710751968501895,7.282296736909586,-0.014362585770132958,1.1480824069398072,-0.18202363406804414
2.0682367455514408,7.0545274895447285,-0.01402192721735303,1.129610066708788,-0.17632004262952844
2.0654655814237186,6.830425023278217,-0.013689714059868446,1.1114145959563417,-0.17083153270344742
2.0627600391905623,6.6099348184446605,-0.013365708271696175,1.093487452379228,-0.16554769125266067
2.0601185007264053,6.393004031634511,-0.013049676369872256,1.075820415722278,-0.16045870224402428
2.057539394124909,6.179581432838823,-0.012741389645091371,1.0584055722346044,-0.15555530684768637
2.05502119272657,5.96961734561437,-0.012440624338302467,1.0412353000099166,-0.1508287666469583
2.0525624141156777,5.7630635900981275,-0.012147161770618035,1.0243022551524963,-0.1462708296044208
2.0501616190953187,5.559873428711402,-0.01186078843297283,1.0075993587147596,-0.14187369855362028
2.0478174106479052,5.360001514404292,-0.011581296041161447,0.9911197843563462,-0.13763000200699949
2.0455307506316087,5.1635743826137315,-0.011285304121801546,0.9731515335492698,-0.16727052846964716
2.043300096608611,4.9707300134766506,-0.01102123610818021,0.9552921578215268,-0.19845495357817386
2.0411191175635297,4.781446922109549,-0.010788554342629972,0.9375387558494971,-0.23108062631483578
2.038981596534952,4.595704192949206,-0.010586655943146162,0.9198885357539276,-0.2650470954507819
2.0368814430349094,4.413481458253965,-0.010414879057280163,0.9023388111984817,-0.300255891262008
2.0348127042709354,4.234758877349677,-0.010272508582461258,0.8848869978444213,-0.33661031138125014
2.032769575273774,4.059517116549994,-0.010158781389152355,0.8675306101524007,-0.3740152099174136
2.0307464080268742,3.887737329682288,-0.010072891079844312,0.8502672585246653,-0.4123767889735711
2.0287377196875234,3.71940113915149,-0.010013992313665614,0.8330946467833064,-0.4516023916875145
2.0267381999838268,3.554490617474894,-0.00998120472330222,0.8160105699826514,-0.49160029590504767
2.0247427178667,3.3929882692209894,-0.009973616447960163,0.7990129125564056,-0.5322795075753314
2.0227463274915807,3.2348770132850646,-0.00999028730323496,0.782099646802825,-0.5735495529292093
2.020744273600662,3.0801401654333773,-0.010030251605950965,0.7652688317140569,-0.6153202684650558
2.01873199637314,2.9287614210460866,-0.010092520669273554,0.7485186121588464,-0.6575015877216764
2.0167051358081474,2.780724837987087,-0.010176084980650153,0.7318472184311461,-0.7000033237634593
2.014659535702845,2.63601481952589,-0.010279916072373671,0.7152529661808325,-0.7427349462384901
2.0125912472864322,2.494616097233127,-0.010402968091753366,0.698734256746782,-0.7856053517947633
2.010496532569758,2.3565137137667413,-0.010544179074991078,0.6822895779170791,-0.8285226265518771
2.008371867469673,2.2216930054604127,-0.010702471925859762,0.6659175051461925,-0.8713937992244795
2.006213944767374,2.090139584619326,-0.010876755097127936,0.6496167032646726,-0.914124583377892
2.004019676960729,1.9618393214205199,-0.011065922969325848,0.633385928723396,-0.9566191071642911
2.00178619907201,1.8367783253060033,-0.01126885591785992,0.6172240324217579,-0.9987796287379519
1.999510871474664,1.7149429257460653,-0.011484420055599338,0.6011299631776345,-1.0405062353786398
1.997191282805722,1.5963196522376428,-0.011711466633824053,0.5851027719065929,-1.0816965241614371
1.9948252530343624,1.4808952133880915,-0.011948831079771193,0.5691416165889194,-1.1222452617973069
1.992410836761998,1.3686564749176178,-0.012195331643872803,0.5532457681158093,-1.162044021029754
1.989946326835205,1.2595904363939567,-0.012449767624057619,0.5374146171208046,-1.2009807907075027
1.9874302583599894,1.1536842064899169,-0.012710917128097547,0.5216476819195777,-1.2389395563600882
1.9848614132143991,1.0509249765278774,-0.012977534327806082,0.505944617700831,-1.275799847782321
1.9822388251665368,0.9512999920444116,-0.01324834615081579,0.4903052271338091,-1.311436249785677
1.9795617857168022,0.8547965220726148,-0.013522048346530239,0.4747294725841644,-1.3457178719027296
1.9768298507968995,0.7614018257981812,-0.013797300852494834,0.459217490160187,-1.378507772440719
1.9740428484740837,0.6711031161975427,-0.014072722375664285,0.44376960584621356,-1.409662331882829
1.9712008878275544,0.5838875202109293,-0.014346884089629502,0.42838635401990605,-1.4390305702480104
1.968304369185239,0.49974203493938774,-0.014618302333524099,0.41306849869549295,-1.466453402669693
1.9653539959338149,0.418653479281204,-0.014885430180717784,0.397817057886338,-1.4917628271825984
1.962350788143234,0.3406084403388334,-0.0151466477250903,0.3826333315373792,-1.5147810385789602
1.9592960982798142,0.26559321383103196,-0.015400250909107956,0.36751893354062004,-1.5353194623063073
1.9561916293198685,0.1935937376356094,-0.015644438690349743,0.35247582841361946,-1.553177702870621
1.9530394556197817,0.12459551746534459,-0.015877298310517228,0.3375063732890617,-1.5681424022912356
1.9498420469495472,0.05858354354364792,-0.016096788391826662,0.32261336592789164,-1.5799860061375373
1.946602296156583,-0.004457803001180594,-0.01630071953781637,0.3078000995203664,-1.5884654380196148
1.943323550997238,-0.06454485545961575,-0.016486732055633477,0.29307042506399966,-1.5933206887799682
1.9400096507577245,-0.12169478017410285,-0.016652270339500702,0.2784288220808401,-1.5942733350363496
1.9366649683885904,-0.17592571021423709,-0.016794553351840998,0.2638804783205018,-1.5910250146270102
1.933294459003838,-0.22725689592920872,-0.016910540495684554,0.2494313788291836,-1.583255906083444
1.9299037157575891,-0.27570887423746626,-0.01699689196680194,0.23508840425341032,-1.5706232887200176
1.92649903432404,-0.3213036583970492,-0.01704992236868964,0.2208594373423966,-1.5527603040450124
1.9230874874967154,-0.3640649496399462,-0.017065545904556507,0.20675347508659767,-1.5292751049897004
1.919677011834223,-0.40401837129204665,-0.01703921072036757,0.19278074143438514,-1.4997506772348856
1.9162765088842775,-0.44119172458970013,-0.01696581877908857,0.17895279154212626,-1.4637457616651561
1.912895964437685,-0.4756152629710897,-0.016839625686835637,0.16528259227180306,-1.4207975200206575
1.9095465907055726,-0.5073219776065798,-0.01665411163428669,0.15178455408311192,-1.3704268964070678
1.9062409986267603,-0.536347880532972,-0.016401809153836978,0.13847447518079842,-1.3121480728933392
1.9029934112927405,-0.5627322618753112,-0.01607406418636271,0.12536933824256086,-1.245484038869003
1.89981993573176,-0.5865178829336486,-0.015660691423440436,0.11248687234077936,-1.1699911171465804
1.8967389207096426,-0.6077510461254079,-0.01514945879773439,0.09984475957681203,-1.0852962740910725
1.8937714455796208,-0.6264814558034502,-0.01452529250248378,0.08745933720361093,-0.9911519516231346
1.890942014113274,-0.6427617545970961,-0.013769022160985113,0.07534365073285856,-0.8875132929916888
1.888279575144429,-0.6566466018705981,-0.012855367527463,0.0635048220021788,-0.7746403194392022
1.885819071886373,-0.6681911893565484,-0.011749665053099101,0.05194105285734758,-0.6532195718393226
1.8836038627686182,-0.6774492384805697,-0.010402426124446229,0.040639438382892495,-0.5244811726036157
1.8816896478191578,-0.6844709302780174,-0.008739723370159509,0.02957747959161112,-0.3902554388207241
1.880151342644568,-0.6893021400226047,-0.006643328375737277,0.018734617854264,-0.2528776155784751
1.8790976172767193,-0.6919887602052839,-0.003893925302750056,0.008131583972555709,-0.11484146927338493
