x,y,v_x,v_y,omega
2.375,32.48,0.0,3.5897435897435894,-7.26530612244898
2.3728219488416364,31.736590432906862,-0.0207433443653678,3.490347525429117,-6.704840947381991
2.366669002896741,31.01352155633277,-0.03785614082411405,3.396022727657483,-6.209931415941145
2.357238957864371,30.309772499991986,-0.051953811865121366,3.3063492374928494,-5.770726652100042
2.345112294288435,29.624405321045824,-0.0635382221914138,3.220957228661061,-5.37912347961008
2.330773588208585,28.95655533782841,-0.07302088333096263,3.1395188019810023,-5.028412492061011
2.3146286018636997,28.30542300526259,-0.080740891382235,3.061741508169632,-4.713004577558608
2.2970180210247597,27.670267014938517,-0.08697892613147673,2.987363161583471,-4.42821757454892
2.2782285656161756,27.050398381469492,-0.09196826823599448,2.9161476333596066,-4.170108397166243
2.258502026344229,26.445175333116836,-0.0959035343539722,2.8478813985704563,-3.935339903430001
2.2380426520676875,25.8539988657192,-0.09894764923213802,2.7823706718832266,-3.7210745597899786
2.2170232172518873,25.276308849284387,-0.10123744425167212,2.7194390084483206,-3.5248889489118658
2.195590026933431,24.711580599317497,-0.10288817782886253,2.658925276950619,-3.3447046158228564
2.173867061862549,24.159321842203536,-0.10399720379858901,2.6006819336585494,-3.1787318122390342
2.151959424418843,23.61907001721857,-0.10464696233194305,2.544573542388745,-3.0254234900627326
2.1299562133142267,23.09038986805534,-0.10490742914059031,2.4904754972610545,-2.883437488681051
2.1079329296815708,22.57287128486097,-0.10483812926565653,2.438272914113915,-2.7516053100913878
2.0859534971923894,22.066127364233104,-0.10448979920273932,2.3878596632943294,-2.628906218847517
2.0640719630847073,21.569792659798097,-0.10390576372756452,2.3391375218009727,-2.5144456675266658
2.042333934463181,21.083521600189744,-0.10312308028697607,2.292015426850003,-2.407437252587024
2.020777794239392,20.60698705467539,-0.10217349327291739,2.2464088161438482,-2.307187564576193
1.999435733063726,20.1398790295003,-0.10108423220961571,2.202239042666548,-2.2130834213617243
1.978334627141273,19.68190348036483,-0.09987868133755624,2.159432853861717,-2.124581071365375
1.9574967865983546,19.23278122840722,-0.09857694288071336,2.117921926686972,-2.0411970316919725
1.9369405948213312,18.792246968711368,-0.09719631213855692,2.077642451368741,-1.962500288094116
1.916681055728249,18.360048361751854,-0.09575167922413128,2.038534757769475,-1.8881056333672972
1.8967302631018244,17.935945199372625,-0.09425586959896043,2.0005429791755853,-1.8176679606817743
1.8770978037870218,17.519708637908153,-0.09271993339915939,1.9636147490574738,-1.7508773605761472
1.8577911046411648,17.11112049192498,-0.09115339179947828,1.9277009269727332,-1.687454896452151
1.8388157315419567,16.70997258281099,-0.08956444724059831,1.8927553503033363,-1.6271489546598474
1.8201756474472655,16.316066137088782,-0.0879601631850333,1.8587346089558159,-1.5697320826181718
1.8018734354105184,15.92921122989333,-0.08634661811731927,1.8255978405246747,-1.5149982426421742
1.7839104915471522,15.549226269546043,-0.08472903772426395,1.7933065437352127,-1.462760420849861
1.766287192188499,15.175937519587386,-0.08311190854862331,1.7618244082520063,-1.4128485401784157
1.7490030388236077,14.809178655007969,-0.08149907587891254,1.7311171591709988,-1.3651076345346558
1.7320567838954797,14.448790349750173,-0.07989382819849736,1.7011524147127661,-1.3193962477443442
1.7154465400686736,14.094619892845593,-0.07829897015203682,1.6718995558070346,-1.2755850264957083
1.699169875205957,13.746520830813001,-0.07671688568336081,1.6433296064081397,-1.2335554810928406
1.6832238949709675,13.404352634171463,-0.0751495927451107,1.6154151235112517,-1.1931988917052534
1.667605314702076,13.067980386127743,-0.07359879076814205,1.588130095952732,-1.1544153410512423
1.6523105219718572,12.737274491679091,-0.07206590190060512,1.5614498511773027,-1.117112857191154
1.6373356310502167,12.412110405535081,-0.0705521068769235,1.5353509692418257,-1.0812066524189958
1.6226765303218078,12.092368377407471,-0.06905837625078189,1.5098112034020845,-1.0466184461982366
1.6083289235654,11.777933213347122,-0.0675854976197703,1.4848094066964623,-1.0132758617486295
1.5943074452781745,11.468697201950722,-0.06595239082999355,1.4602954637454524,-0.9759105970583948
1.5806248425926408,11.16455654266376,-0.06435811093699557,1.436282243749432,-0.9403057405140072
1.567273006641495,10.865408014747814,-0.0628022314548687,1.4127513554500426,-0.9063570468679674
1.5542439270412909,10.571152168229165,-0.061284240928025584,1.389685278060911,-0.8739676184953642
1.5415297081615598,10.28169314653551,-0.059803557926557456,1.3670673094977088,-0.8430473053733291
1.5291225824579557,9.996938519618737,-0.05835954401252734,1.3448815182810845,-0.8135121605893195
1.5170149212676072,9.71679912682427,-0.05695151494317541,1.3231126988090687,-0.7852839456477154
1.5051992434127337,9.441188928828282,-0.05557875034133217,1.3017463297241503,-0.7582896804953535
1.4936682219134667,9.170024868019038,-0.0542405020326414,1.2807685351257914,-0.7324612337571301
1.4824146890716499,8.903226736748614,-0.05293600122275743,1.260166048402035,-0.7077349491734528
1.4714316401534475,8.64071705292659,-0.05166446466488212,1.239926178474392,-0.684051304671374
1.4607122358690612,8.382420942468574,-0.050425099948322095,1.2200367782686237,-0.6613546008886214
1.4502498038222056,8.128266028150104,-0.04921711002173046,1.2004862152406148,-0.6395926763112642
1.4400378390796769,7.8781823244506874,-0.04803969704997267,1.1812633438014681,-0.6187166464872969
1.4300700039918959,7.632102138004097,-0.04689206569079988,1.1623574794994076,-0.5986806650450417
1.4203401273783844,7.389959973299693,-0.04577342586645123,1.143758374828245,-0.5794417044813382
1.4108422031773582,7.151692443305695,-0.0446829950957045,1.1254561965431504,-0.5609593548937979
1.4015703886457362,6.917238184709351,-0.04362000044355148,1.1074415043744261,-0.5431956390172246
1.3925190021846294,6.6865377774909405,-0.042583680138418754,1.0897052310389943,-0.5261148420894984
1.3836825208555386,6.45953366856881,-0.04157328490053946,1.072238663457505,-0.5096833552192577
1.3750555776439262,6.236170099271071,-0.04058807901957949,1.0550334250923945,-0.4938695310587598
1.3666329585193135,6.016393036406825,-0.03962734121482554,1.0380814593289966,-0.4786435507022335
1.358409599334516,5.800150106725344,-0.038690365307056857,1.0213750138279556,-0.4639773008344984
1.3503805826008803,5.5873905345662145,-0.03777646072756875,1.0049066257828103,-0.4498442602480614
1.3425411341713902,5.378065082516738,-0.03688495288662316,0.9886691080217294,-0.4362193949305659
1.3348943596542306,5.172270330526867,-0.03594147108632413,0.9712809109294332,-0.45072274324218314
1.327441092253533,4.970114936024949,-0.035042027967941064,0.9540085605174169,-0.4672157668231377
1.320172163473575,4.771574912674531,-0.03418586517451402,0.9368488047246515,-0.48558259989634167
1.3130785711862918,4.576626943454574,-0.033372156609135194,0.91979852117971,-0.5057106219974049
1.3061514931173084,4.385248354001298,-0.03260001547642045,0.9028547117086181,-0.5274902005886429
1.2993822989165615,4.19741708705731,-0.03186850072116932,0.8860144972817543,-0.5508144423823003
1.2927625609354474,4.013111677937783,-0.031176622908489524,0.869275113380428,-0.575578952342677
1.2862840638235362,3.8323112309273633,-0.03052334958590213,0.8526339057664254,-0.6016815993701321
1.2799388130497515,3.6549953965246473,-0.029907610164427167,0.8360883266403972,-0.6290222876961883
1.27371904244549,3.4811443494537677,-0.02932830035234917,0.8196359311775092,-0.6575027330383238
1.2676172208604068,3.3107387673648425,-0.028784286172252677,0.8032743744313033,-0.6870262425755594
1.261626058015478,3.1437598101466335,-0.028274407588974676,0.7870014085992646,-0.7174974978116323
1.255738509632437,2.9801890997758633,-0.027797481773320795,0.7708148806461702,-0.7488223393913145
1.2499477819137486,2.8200087006282004,-0.027352306023712098,0.7547127302839625,-0.7809075529271214
1.2442473354428973,2.663201100175872,-0.02693766036534712,0.7386929883096531,-0.8136606548780545
1.2386308885709205,2.50974918999626,-0.02655230984395679,0.7227537753056859,-0.8469896774988184
1.2330924203517835,2.359636247014585,-0.026195006528776103,0.7068933007102823,-0.8808029518467808
1.227626173086384,2.2128459149017985,-0.02586449123693243,0.6911098622686355,-0.9150088877943426
1.2222266545326577,2.0693621855462503,-0.02555949498903302,0.6754018458794313,-0.9495157499458234
1.2168886398374628,1.9291693805141215,-0.025278740203298747,0.6597677258551412,-0.9842314282998317
1.2116071732446396,1.7922521324093488,-0.02502094163311167,0.6442060656188937,-1.0190632024296908
1.2063775696328822,1.6585953660384796,-0.02478480705029294,0.6287155188655852,-1.0539174978750627
1.201195415936855,1.5281842792794613,-0.024569037673775256,0.6132948312203027,-1.0886996333466383
1.196056572505351,1.4010043235458411,-0.024372328340548366,0.597942842433213,-1.123313557241772
1.190957174451249,1.2770411837288762,-0.024193367412801953,0.5826584891569241,-1.1576615718513454
1.185893633049642,1.15628075748959,-0.02403083641202884,0.5674408083600816,-1.19164404350611
1.1808626372427977,1.0387091337606051,-0.023883409367440038,0.5522889414397631,-1.2251590967634982
1.1758611553136715,0.9243125703033783,-0.023749751862334124,0.537202139105244,-1.2581022905728618
1.170886436793536,0.8130774701500307,-0.02362851975800313,0.5221797671171129,-1.290366274178033
1.1659360146740658,0.704990356739966,-0.023518357570285323,0.5072213129787272,-1.3218404203213212
1.1610077079999488,0.6000378475395571,-0.023417896468923522,0.49232639369183473,-1.3524104331036495
1.1560996249249522,0.49820662590787634,-0.023325751864377613,0.4774947647051179,-1.381957927633883
1.1512101663224314,0.39948341094245166,-0.023240520540581337,0.46272633020368653,-1.4103599783706455
1.1463380300507222,0.30385492500557376,-0.023160777285220906,0.4480211549094465,-1.437488632828949
1.1414822159848352,0.21130785859344314,-0.023085070961321782,0.4333794775870549,-1.463210387102404
1.13664203193861,0.12182883216660656,-0.023011919955110056,0.41880172647806907,-1.487385619455921
1.1318171006161897,0.035404354510120584,-0.02293980692508203,0.4042885369170481,-1.5098679780977273
1.1270073677486536,-0.04797922286503109,-0.022867172765737732,0.38984077141775925,-1.5305037191787614
1.1222131115911989,-0.12833575583216827,-0.02279240968621157,0.3754595425549961,-1.549130991143659
1.1174349539788366,-0.20567936289619126,-0.022713853288666108,0.3611462390071169,-1.5655790618454524
1.1126738731646348,-0.2800244862842476,-0.022629773513255447,0.34690255516484114,-1.5796674854435881
1.1079312186947745,-0.351385959675369,-0.02253836429493789,0.3327305247505786,-1.5912052071871305
1.1032087286099195,-0.41977908346134285,-0.02243773175130017,0.31863255892539427,-1.5999896059651335
1.0985085493037743,-0.48521970853349217,-0.022325880688178288,0.30461148938078575,-1.6058054773047512
1.0938332584188029,-0.5477243296939136,-0.022200699168692554,0.29067061690895224,-1.6084239637757582
1.0891858912181571,-0.6073101898889846,-0.02205994083745709,0.2768137659012779,-1.607601446181212
1.0845699709452208,-0.6639953965456229,-0.021901204619079902,0.26304534511433597,-1.6030784184336897
1.0799895437727722,-0.7177990513393695,-0.021721911309001876,0.249370414826106,-1.59457838301225
1.0754492190601925,-0.7687413947089254,-0.021519276429852286,0.23579476012205403,-1.581806824352318
1.070954215791183,-0.8168439663098539,-0.021290278513095357,0.22232496941062013,-1.5644503472971427
1.06651041627471,-0.8621297823026737,-0.021031621643791142,0.2089685162352671,-1.5421761109369523
1.062124428487986,-0.9046235297941081,-0.0207396906107244,0.19573384082603992,-1.514631750629296
1.0578036588698383,-0.944351777740259,-0.02041049622877763,0.18263042532775553,-1.4814460709764758
1.053556398012797,-0.9813432019482491,-0.020039607171614526,0.16966885284357802,-1.442230921425025
1.0493919226776782,-1.0156288191489153,-0.01962206268666115,0.15686083478179183,-1.3965848491383772
1.045320619068747,-1.0472422209927714,-0.01915225739839842,0.1442191827787234,-1.3440993798393028
1.0413541346913395,-1.0762197926253094,-0.01862378429119632,0.13175768991214695,-1.2843691269874569
1.03750556990212,-1.1026008914658902,-0.018029213701369527,0.1194908704743241,-1.2170073874250908
1.0337897263133282,-1.1264279491858389,-0.01735977285855341,0.10743348876329525,-1.1416694353786119
1.0302234388849025,-1.1477464433204219,-0.016604869316928433,0.09559978870891335,-1.0580862899290404
1.0268260339458446,-1.166604665613427,-0.015751368197909517,0.08400232836734632,-0.9661120423083767
1.0236199797770145,-1.1830531970652487,-0.014782481029044881,0.07265035212621587,-0.8657872658885089
1.0206318348676355,-1.1971439980316987,-0.013676041917421597,0.061547752316152046,-0.7574183335162903
1.0178936606411613,-1.2089290645706896,-0.012401807858523047,0.05069097662660174,-0.6416655387015799
1.0154451719177757,-1.2184587436653018,-0.010917132364196577,0.040067871893502985,-0.5196193822852776
1.0133371192658667,-1.2257801297381334,-0.009159559558747818,0.02965961451444912,-0.3928243318257658
1.0116370078886219,-1.230936651214627,-0.007031977367394044,0.01945011383310689,-0.2631908787355355
1.0104405975059145,-1.233971656216113,-0.004362407229818118,0.009454695704849797,-0.13273825227985533
1.0099073308968307,-1.2349475659015994,-0.0007163223805039059,-0.00016031774781604183,-0.0031952543466386985
