x,y,v_x,v_y,omega
2.375,32.48,0.0,3.333333333333333,-6.8979591836734695
2.373092725150158,31.789136817422044,-0.0181645223794494,3.2463160245519376,-6.4011466094000244
2.367683995911399,31.1161134046995,-0.03334718465634716,3.163430763281808,-5.9583911301931405
2.3593503261436766,30.460095749374055,-0.046021098845775016,3.084356430293842,-5.562101697273333
2.348577470672653,29.820313484117307,-0.056577524687778824,3.008808000722824,-5.205949629962989
2.335775963349932,29.19605289284695,-0.06534159267147076,2.936530963756756,-4.88462835245409
2.3212937066208545,28.58665097195007,-0.0725846618911718,2.8672968543087807,-4.593664600819319
2.3054262349709154,27.991490341069138,-0.07853411572729803,2.800899630271536,-4.329268812971159
2.2884251283853434,27.409994846226226,-0.08338118508767187,2.737152701565701,-4.088215658198655
2.2705049439199008,26.841625733413572,-0.08728723839273457,2.6758864680786174,-3.8677479668057377
2.2518489526003758,26.285878296993225,-0.0903888694122664,2.6169462597342035,-3.6654989807774347
2.2326139076045495,25.74227892693705,-0.09280203530988672,2.560190597943659,-3.4794290589254575
2.2129340227917647,25.210382493906636,-0.09462543909758644,2.5054897166317325,-3.3077738660260225
2.1929243044258917,24.689770022685636,-0.09594330724406074,2.452724294996816,-3.1490017448309637
2.1726833507278527,24.180046613430953,-0.09682768035631305,2.401784364571616,-3.001778474778102
2.1522957117589354,23.680839577246527,-0.0973403098238494,2.3525683609943533,-2.8649380055523066
2.1318338846507756,23.19179675817049,-0.09753423406338904,2.3049822968726494,-2.737458048567369
2.111360005300731,22.71258501814372,-0.09745509307989374,2.2589390367156605,-2.618439637455216
2.090927286544128,22.24288886514847,-0.09714222841155941,2.214357658477207,-2.5070899461656557
2.070581243891506,21.782409207658255,-0.09662960637531838,2.1711628890486225,-2.4027077923713147
2.050360742715849,21.330862220966793,-0.09594659529760831,2.129284603251016,-2.3046713635092178
2.030298894934351,20.887978312973253,-0.09511862166903919,2.0886573776398762,-2.2124277896935536
2.010423828473945,20.453501178676557,-0.09416772557292338,2.0492200918524475,-2.125484256978778
1.9907593489228972,20.027186934037502,-0.09311303205610019,2.010915571376645,-2.0434004098986778
1.9713255095819064,19.608803321054438,-0.09197115214381202,1.9736902665573173,-1.9657818368115783
1.952139103502813,19.198128976906233,-0.09075652479993518,1.937493963425556,-1.8922744676226746
1.9332140889344962,18.794952760876342,-0.08948170918403507,1.9022795225734068,-1.8225597426975575
1.9145619577986266,18.399073133509397,-0.0881576349671048,1.8680026428260685,-1.7563504356030024
1.8961920553245035,18.010297583087436,-0.08679381716739946,1.8346216469069203,-1.6933870317907185
1.8781118577273876,17.628442095062525,-0.08539854090037091,1.8020972866636744,-1.6334345813264326
1.8603272137742786,17.25333066056021,-0.08397902055781102,1.7703925657393098,-1.5762799569324317
1.8428425552091365,16.884794820484444,-0.08254153720544569,1.7394725778393985,-1.521729459490519
1.8256610802769293,16.522673242118813,-0.08109155738700477,1.709304358976122,-1.4696067221703724
1.8087849139688332,16.16681132543847,-0.07963383602343482,1.6798567522652734,-1.419750871846974
1.792215248089967,15.817060836628393,-0.07817250568005377,1.6511002840211766,-1.372014912724678
1.7759524638102033,15.473279566551959,-0.07671115412721866,1.6230070500401002,-1.3262643023162735
1.7599962389847543,15.135331012133406,-0.07525289182943785,1.5955506110889586,-1.2823756943126654
1.744345642213493,14.803084078812851,-0.07380041075400195,1.5687058967258358,-1.2402358265684525
1.7289992153373848,14.476412802405807,-0.07235603568512713,1.5424491166745777,-1.199740535539804
1.7139550458394879,14.155196088853739,-0.07092176905674741,1.5167576790594235,-1.1607938811409457
1.6992108304205662,13.839317470490197,-0.06949933017107798,1.4916101148790724,-1.123307368214188
1.6847840277051764,13.528668455985432,-0.06789879092787324,1.4669519280234675,-1.0817396439379925
1.6706899164688604,13.223144498966018,-0.06633083989418316,1.4428000435900101,-1.042139231976631
1.6569216343571949,12.92264123661418,-0.06479565640739454,1.4191357883322533,-1.0043891328858143
1.643472296299227,12.627058134195039,-0.06329327747801293,1.395941377564326,-0.96838062907632
1.6303350222215622,12.336298304041819,-0.06182361849974645,1.3731998619901535,-0.9340126056600985
1.6175029606904925,12.050268335307845,-0.06038649131996634,1.35089507833342,-0.9011909344113401
1.6049693090011958,11.768878133720442,-0.05898162000666608,1.329011603451385,-0.869827914301599
1.5927273301671065,11.492040770635228,-0.057608654603709224,1.307534711645895,-0.8398417628145334
1.580770367205282,11.219672340746662,-0.056267183127953244,1.2864503349118819,-0.8111561528994128
1.5690918550638153,10.9516918278627,-0.05495674202887192,1.2657450258877565,-0.7836997909957465
1.5576853304939882,10.688020978198647,-0.05367682530281584,1.245405923293682,-0.7574060320649147
1.5465444401321045,10.428584180688187,-0.05242689242940988,1.2254207196630689,-0.7322125280076786
1.535662947023011,10.173308353848611,-0.0512063752762434,1.2057776311900186,-0.7080609062367882
1.5250347357885579,9.922122838772896,-0.05001468409950005,1.1864653695310758,-0.6848964755183626
1.5146538166191394,9.67495929785369,-0.04885121275210504,1.1674731154137392,-0.6626679565001177
1.504514328244483,9.431751618873975,-0.04771534319700146,1.1487904939168763,-0.6413272346139066
1.4946105400206413,9.192435824126239,-0.046606449411014966,1.1304075512996687,-0.6208291332787694
1.4849368532532958,8.956949984246833,-0.04552390075418248,1.112314733266088,-0.6011312055425324
1.4754878018627364,8.72523413647496,-0.04446706487019218,1.0945028645612946,-0.58219354248824
1.4662580524829356,8.497230207066512,-0.04343531017552949,1.076963129804872,-0.563978596899177
1.4572424040757768,8.27288193761228,-0.04242800798788888,1.059687055473543,-0.5464510208254323
1.448435787131531,8.05213481502749,-0.04144453433826127,1.0426664929530292,-0.5295775158280247
1.4398332625179124,7.834936004995985,-0.040484271505724895,1.0258936025851186,-0.5133266947954407
1.4314300200323395,7.621234288667157,-0.039546609309254195,1.0093608386418138,-0.4976689543336754
1.423221376705261,7.410980002417574,-0.03863094618673011,0.9930609351637448,-0.4825763568259626
1.4152106649671634,7.204267564774437,-0.037661546557057515,0.975628947151855,-0.49532994367764416
1.4073989513895926,7.001203515801546,-0.036735725610283064,0.9583143763994967,-0.5101351794007835
1.399777157036418,6.801763546082125,-0.03585279203900184,0.9411139066425972,-0.5268739091004244
1.3923363558302806,6.605924028642754,-0.035011981352781434,0.9240243546847438,-0.5454313497578479
1.3850677891415772,6.413661991608425,-0.034212463301536454,0.9070426646898269,-0.5656958268941158
1.3779628788845595,6.224955092008674,-0.03345334867006174,0.890165902926835,-0.5875585204275465
1.3710132392477592,6.039781590642001,-0.032733695489940616,0.8733912529462519,-0.6109132186696792
1.364210687176644,5.85812032790977,-0.03205251471115614,0.8567160111702354,-0.6356560794407606
1.357547251717902,5.679950700534349,-0.03140877537210157,0.8401375828813994,-0.6616853973150901
1.3510151823269867,5.505252639079053,-0.030801409303281926,0.8236534785976153,-0.6889013760288525
1.3446069562334786,5.334006586189908,-0.030229315396796123,0.8072613108228147,-0.7172059050984594
1.3383152849523954,5.166193475481045,-0.029691363470663902,0.7909587911663469,-0.7465023397059198
1.3321331200237858,5.001794710986843,-0.029186397754188943,0.774743727826046,-0.7766952829093331
1.3260536580577262,4.840792147104661,-0.028713240017807153,0.7586140234328316,-0.8076903692311197
1.320070345157192,4.683168068952185,-0.02827069236823361,0.7425676732574316,-0.8393940486638838
1.3141768807871745,4.52890517306297,-0.027857539727171133,0.7266027637827119,-0.8717133701135787
1.3083672211548392,4.377986548342726,-0.02747255200935538,0.7107174716481739,-0.9045557632715793
1.3026355821624642,4.23039565720714,-0.02711448601326307,0.6949100629764674,-0.9378288178709381
1.2969764419923568,4.086116316819602,-0.026782087035378085,0.6791788930953292,-0.9714400592370315
1.2913845433809128,3.9451326803440097,-0.02647409021647061,0.6635224066722352,-1.00529671898841
1.285854895637467,3.8074292181236764,-0.02618922162587217,0.6479391382833247,-1.0393054996793254
1.2803827764625946,3.6729906986924235,-0.02592619908719699,0.6324277134428803,-1.073372332100396
1.2749637336200732,3.541802169517805,-0.025683732746339484,0.6169868501249101,-1.1074021238674423
1.2695935865168246,3.4138489373691883,-0.025460525379837326,0.6016153608142789,-1.141298497829844
1.2642684277458682,3.2891165481948867,-0.02525527243879614,0.5863121551314655,-1.174963518718057
1.2589846246486434,3.1675907663824177,-0.025066661820488084,0.5710762430825164,-1.2082974063243543
1.253738820955068,3.0492575532643578,-0.024893373356421652,0.5559067389942547,-1.2411982333707459
1.2485279385624244,2.934103044718494,-0.024734078002088676,0.5408028662044408,-1.2735616060628692
1.2433491795176892,2.822113527695336,-0.02458743670967549,0.5257639625875447,-1.3052803251582108
1.2382000282722974,2.7132754154876686,-0.024452098960721893,0.5107894870092778,-1.3362440251916436
1.233078254283671,2.607575221535882,-0.02432670093095856,0.49587902681726165,-1.3663387893020134
1.227981915044221,2.5049995315384734,-0.02420986325427725,0.4810323064914067,-1.3954467368926518
1.2229093596260971,2.4055349736092957,-0.024100188346903053,0.46624919759601335,-1.4234455811401905
1.2178592328388167,2.30916818619108,-0.02399625724624456,0.4515297301965133,-1.45020815314638
1.2128304801072558,2.2158857833980683,-0.02389662591147873,0.43687410592742026,-1.4756018893168537
1.2078223531894738,2.1256743174186,-0.02379982092454096,0.4222827129246458,-1.49948827836417
1.2028344168677274,2.038520237560686,-0.023704334520664085,0.4077561428650054,-1.5217222641926422
1.1978665567620517,1.954409845469069,-0.023608618866724797,0.39329521038847487,-1.542151600862608
1.1929189884342668,1.873329245980777,-0.023511079493130627,0.3789009752143096,-1.560616155900079
1.1879922679715917,1.7952642930167926,-0.02341006777044139,0.36457476729983995,-1.5769471584837458
1.1830873042636858,1.7202005298302332,-0.023303872304853677,0.3503182154293098,-1.5909663896051975
1.1782053732155078,1.6481231228461475,-0.02319070910636464,0.3361332796572101,-1.6024853123036849
1.1733481341716623,1.5790167882355988,-0.023068710358829785,0.3220222880623047,-1.611304141729833
1.168517648866962,1.5128657102687448,-0.022935911590696013,0.3079879782886861,-1.617210857388865
1.1637164032642462,1.4496534503918035,-0.022790237006597703,0.2940335443488417,-1.6199801638768083
1.1589473326961375,1.3893628458770024,-0.022629482689675913,0.2801626891254575,-1.6193724123610413
1.1542138507954516,1.3319758968132938,-0.02245129731685688,0.266379682909877,-1.6151325038431341
1.1495198827839381,1.2774736401551898,-0.022253159935651447,0.2526894281196924,-1.6069888081333457
1.1448699037978673,1.2258360095535323,-0.022032354217403242,0.23909752999131953,-1.5946521512682115
1.1402689830724044,1.1770416797957566,-0.021785938406054,0.2256103724636843,-1.5778149514088884
1.1357228350015773,1.1310678949459643,-0.02151070988753728,0.21223519753434378,-1.5561506227821909
1.1312378783636343,1.0878902797903862,-0.02120316285477779,0.19898018489974695,-1.5293134242555884
1.126821305395411,1.0474826351011828,-0.020859436842587214,0.18585452642599534,-1.496939011118324
1.1224811629827467,1.0098167187371168,-0.020475252801835188,0.1728684865650989,-1.458646065867675
1.1182264491181504,0.974862017001378,-0.02004583162289245,0.16003343472765985,-1.4140395500470686
1.1140672291419516,0.9425855143944055,-0.01956578719804818,0.1473618281958904,-1.3627163518131709
1.1100147784207437,0.9129514754976888,-0.019028981575358934,0.13486711367759563,-1.3042744222610643
1.1060817614975549,0.8859212609054481,-0.018428322455010523,0.12256350148659859,-1.2383269128409453
1.1022824631248198,0.8614532106216224,-0.01775547157103794,0.11046554883556634,-1.164523341043356
1.0986330951534795,0.8395026435914446,-0.017000413870298638,0.09858747049947336,-1.082580356871048
1.0951522168474765,0.8200220403033391,-0.016150808091635212,0.0869420846253358,-0.9923250508789427
1.0918613276521156,0.8029614928588664,-0.015190993768944394,0.0755393196077486,-0.893753428767019
1.0887857251501591,0.7882695129085704,-0.014100458630642104,0.06438429896650738,-0.7871046268696201
1.085955774390263,0.7758942585468631,-0.012851453368368439,0.053475266383087555,-0.672945838339328
1.0834088245094553,0.7657851310374824,-0.011405212163134254,0.04280213846816802,-0.5522514677367351
1.081192184717323,0.7578944245369676,-0.009705643000032219,0.03234744725102597,-0.42644197940400363
1.0793680234116358,0.7521781542093962,-0.007667321816035265,0.022093222535376458,-0.2973288079707511
1.0780226389162055,0.7485939228070038,-0.00514586385473032,0.01204231463027637,-0.1669071194267055
1.0772909386377252,0.747088609455151,-0.001822710226035368,0.00229400300641292,-0.036978244695397955
