x,y,v_x,v_y,omega
2.375,32.48,0.0,3.282051282051282,-5.795918367346939
2.373716223101198,31.863839180376594,-0.013513441040021777,3.203852082405607,-5.420527222300292
2.3700565794200688,31.262225366996685,-0.02500912402449764,3.1289249005407758,-5.081559687761889
2.3643769752009116,30.674558069100755,-0.034776183545573804,3.0570466562585024,-4.774428849187604
2.3569826631220323,30.100277131171463,-0.043058680442631884,2.9880158482603614,-4.495232724516578
2.348136067579516,29.538858902996733,-0.05006337789964331,2.92164971147364,-4.240637332569132
2.3380632738172595,28.98981290372307,-0.05596603012411093,2.8577818598280444,-4.007782179057887
2.326959433549544,28.45267889728037,-0.06091649900973969,2.7962603132530006,-3.794203384017252
2.3149932868331082,27.927024313475762,-0.06504294011063295,2.7369458320587055,-3.597770797191334
2.3023109593048994,27.41244196195575,-0.06845524439682964,2.6797104997308865,-3.4166362812835334
2.289039162378545,26.908547996183323,-0.07124788114374163,2.6244365083999357,-3.2491909682029068
2.2752878993351615,26.414980092326427,-0.0735022561550345,2.5710151111463113,-3.0940297671195354
2.2611527608104405,25.931395814052568,-0.07528867568413375,2.519345712789057,-2.9499217652101573
2.246716877758211,25.45747113906839,-0.0766679880235413,2.469335076518071,-2.8157854410006586
2.232052587656148,24.992899127126474,-0.07769296041922598,2.420896628133689,-2.690667826859281
2.2172228598298758,24.537388712361093,-0.07840943775206456,2.373949843080822,-2.5737269265765175
2.2022825177881815,24.090663605374125,-0.07885732058155698,2.3284197041504617,-2.4642168272472986
2.187279289985926,23.652461292594488,-0.07907139312639633,2.2842362198457065,-2.361475050169151
2.172254715154287,23.222532122174314,-0.07908202615401336,2.2413339951034854,-2.26491176944223
2.1572449240201936,22.800638467134156,-0.07891577525749613,2.199651847424475,-2.174000594143571
2.142281315689944,22.38655395768508,-0.07859589137671098,2.159132462565824,-2.0882706639666964
2.1273911440477207,21.98006277568059,-0.0781427574887968,2.119722084849859,-2.00729985184942
2.1125980271003177,21.580959005021302,-0.07757426301018322,2.0813702378794936,-1.930708902507779
2.097922390191122,21.189046032577018,-0.07690612550766708,2.0440294720603394,-1.858156364625616
2.0833818523341723,20.80413599482688,-0.07615216772338133,2.0076551358358814,-1.789334198026381
2.0689915635225504,20.42604926596576,-0.0753245566094834,1.9722051679653414,-1.7239639565056464
2.054764499695695,20.054613983698744,-0.07443400998899292,1.9376399085295828,-1.6617934629432631
2.0407117210679373,19.689665609356595,-0.07348997556635156,1.9039219266509066,-1.602593906489042
2.0268425986934355,19.331046519323827,-0.07250078627050813,1.8710158631676788,-1.546157302540584
2.013165013444524,18.978605625084285,-0.07147379529698432,1.838888286722245,-1.492294265319045
1.999685530989702,18.632198019464518,-0.07041549370114161,1.8075075619068783,-1.4408320504300318
1.986409555856447,18.29168464689746,-0.06933161296470002,1.7768437282726977,-1.391612831140294
1.9733414672381047,17.9569319957428,-0.0682272145967983,1.7468683891447594,-1.344492177423376
1.9604847388412874,17.62781181088995,-0.06710676852759397,1.7175546093063174,-1.2993377113052866
1.9478420447604676,17.30420082503751,-0.06597422179682365,1.6888768207193643,-1.2560279158183754
1.9354153531015006,16.985980507192927,-0.06483305882388313,1.6608107355393633,-1.2144510780656976
1.9232060088487213,16.673036827069346,-0.06368635436326765,1.6333332657614998,-1.1745043496057817
1.9112148072752602,16.36526003417599,-0.06253682009421863,1.6064224489054395,-1.1360929096684362
1.8994420590284502,16.06254445050532,-0.06138684566167397,1.580057379206853,-1.0991292186716934
1.8878876478776176,15.76478827581606,-0.06023853487340541,1.5542181438379912,-1.0635323511825179
1.8765510819867102,15.471893404597353,-0.05909373766246424,1.5288857637273487,-1.0292273988946576
1.8654315394662688,15.18376525387713,-0.057954078342180984,1.5040421385907703,-0.9961449354234961
1.8545279088657325,14.900312601107736,-0.056820980610832135,1.479669995823906,-0.9642205357713168
1.8438473308486492,14.621449675434384,-0.05560615641109789,1.455729221790327,-0.930823740341053
1.8333955848732746,14.34709363723725,-0.054412222277055736,1.4322290750215874,-0.8988853649749042
1.823168673825316,14.077162207030018,-0.0532394729646139,1.4091544008440184,-0.8683249651302435
1.8131625543191792,13.811575921680923,-0.05208810078419687,1.3864907080938182,-0.8390673729725593
1.803373154909733,13.550258011830454,-0.05095820878892008,1.3642241324374502,-0.8110422960001885
1.7937963919443556,13.293134286048677,-0.04984982242557918,1.3423414021075606,-0.7841839502841226
1.7844281833301514,13.040133021290902,-0.0487628998292,1.320829805869026,-0.7584307249918879
1.7752644604589982,12.791184859243977,-0.047697340919781006,1.299677163045982,-0.7337248752176725
1.7663011785047629,12.546222708186352,-0.04665299544059004,1.2788717954553297,-0.7100122404531963
1.7575343252821534,12.305181650013079,-0.045629670060565224,1.2584025011054267,-0.6872419863104143
1.7489599288347744,12.067998852102654,-0.04462713464868618,1.2382585295306159,-0.6653663673524285
1.7405740639006917,11.834613483726155,-0.04364512781534188,1.2184295586430458,-0.6443405091067912
1.7323728573868085,11.604966636720729,-0.04268336180448265,1.1989056729930339,-0.6241222075290478
1.7243524929683853,11.37900125016927,-0.041741526810495,1.1796773433380994,-0.6046717443567835
1.716509214916804,11.15666203884641,-0.040819294785099665,1.1607354074288625,-0.5859517169481274
1.7088393312469807,10.937895425207572,-0.03991632279198766,1.1420710519273392,-0.5679268813358336
1.7013392162655188,10.72264947471339,-0.039032255960242984,1.1236757953798369,-0.5505640073506229
1.6940053125915309,10.510873834295893,-0.03816673008173595,1.1055414721727386,-0.5338317447771126
1.6868341327139778,10.302519673786005,-0.03731937389250728,1.0876602174050118,-0.5177004996038589
1.6798222601421964,10.097539630133976,-0.03648981107361236,1.070024452616347,-0.5021423195170872
1.6729663501999297,9.895887754265551,-0.03567766200288093,1.052626872314457,-0.48713078786671077
1.666263130507533,9.697519460426992,-0.034882545285503976,1.035460431249311,-0.4726409254042574
1.6597094011920284,9.502391477881641,-0.034104079088229065,1.0185183323859517,-0.45864909915619895
1.6533020348602248,9.310461804829522,-0.03334188229917706,1.0017940155311034,-0.4451329378536984
1.6470379763661827,9.121689664429724,-0.03259557553284394,0.9852811465720409,-0.43207125339163377
1.6409207333010656,8.936243945830384,-0.03179645673154671,0.9667790492104659,-0.463231535901773
1.6349507694074141,8.754303447227798,-0.031045268464787015,0.9483840939746538,-0.49581104971829754
1.629119115339007,8.575848074925272,-0.03034056383423262,0.9300935092098294,-0.5297023726266746
1.623417078739526,8.40085825141507,-0.029680874055043528,0.9119046330028221,-0.5648000256058954
1.6178362480572717,8.229314894843963,-0.02906471207394864,0.8938149098509341,-0.601000235394132
1.6123684957087425,8.061199399075193,-0.02849057580530666,0.875821887715082,-0.6382007001810404
1.6070059806612953,7.896493614274245,-0.027956951009924447,0.8579232154527802,-0.6763003574104334
1.6017411505006847,7.735179827946439,-0.02746231383860966,0.8401166406293734,-0.7151991526676853
1.5965667430453419,7.577240746354306,-0.02700513305973504,0.822400007708879,-0.7547978086087602
1.5914757875658578,7.422659476242217,-0.026583871987464886,0.8047712566289106,-0.7949975928618604
1.5864616056652008,7.271419506794562,-0.026196990124715717,0.7872284217674654,-0.8357000837978869
1.5815178118727777,7.123504691751926,-0.025842944532368097,0.7697696313129156,-0.8768069330216758
1.5766383140035023,6.978899231607219,-0.025520190933688968,0.7523931070524075,-0.9182196233816681
1.5718173133315698,6.837587655800419,-0.025227184560336603,0.7350971645981066,-0.9598392212305439
1.5670493046276888,6.6995548048264375,-0.024962380743674805,0.7178802140753974,-1.0015661215925693
1.562329076108063,6.564785812165553,-0.02472423525238816,0.7007407613023394,-1.0432997848040053
1.5576517093435054,6.43326608593976,-0.024511204374533104,0.6836774094954907,-1.0849384630898726
1.553012579177706,6.304981290191034,-0.024321744739143916,0.666688861543742,-1.126378915422525
1.5484073537049041,6.179917325668956,-0.024154312869298648,0.6497739228991828,-1.1675161088736423
1.5438319943590866,6.058060310005008,-0.02400736445509384,0.6329315051423897,-1.2082429045201977
1.5392827561693858,5.93939655713902,-0.023879353331229612,0.6161606302890472,-1.248449725795445
1.5347561882396368,5.823912555849571,-0.02376873013981402,0.5994604359156723,-1.2880242069869114
1.5302491345141773,5.711594947224093,-0.023673940654496337,0.5828301811946307,-1.3268508193738577
1.525758734896979,5.602430500886033,-0.023593423737064002,0.5662692539428432,-1.364810472266199
1.5212824267972076,5.496406089775,-0.023525608892109418,0.5497771788048661,-1.4017800859556122
1.516817947181433,5.393508663251119,-0.023468913379201345,0.5333536267096892,-1.4376321333187088
1.5123633352210764,5.29372521826631,-0.02342173883507904,0.5169984257619685,-1.4722341465244757
1.5079169356334363,5.197042768312404,-0.023382467350607263,0.500711573752854,-1.5054481849988681
1.5034774028259759,5.103448309818052,-0.023349456938448428,0.48449325250346226,-1.5371302604970383
1.4990437059666646,5.012928785623078,-0.023321036317460724,0.4683438442857327,-1.567129714841948
1.4946151351182961,4.925471045108818,-0.023295498928520265,0.45226395060122465,-1.59528854562806
1.4901913085921497,4.84106180050604,-0.023271096083548604,0.43625441363855,-1.6214406749921473
1.4857721816964162,4.75968757883679,-0.02324602913469771,0.4203163407746143,-1.645411156467031
1.4813580570779368,4.681334668872541,-0.0232184405335054,0.4044511325332813,-1.6670153150273932
1.4769495968824178,4.605989062407559,-0.023186403629853254,0.38866051446653704,-1.686057815810673
1.4725478369890665,4.53363638905304,-0.023147911037001805,0.3729465734757725,-1.7023316577973413
1.4681542036112756,4.464261843654452,-0.02310086136079774,0.3573117991409523,-1.7156170901766918
1.4637705325966026,4.397850105322668,-0.023043044056811804,0.3417591306673147,-1.7256804515157365
1.4593990918082504,4.334385246951367,-0.022972122136370433,0.32629201008321534,-1.7322729356378495
1.455042607028468,4.273850633973687,-0.02288561238765391,0.31091444231340304,-1.735129293954273
1.450704291894597,4.216228810998821,-0.02278086270572842,0.2956310626851875,-1.7339664928188705
1.4463878824650054,4.161501374878746,-0.02265502602681318,0.2804472122629748,-1.7284823576655277
1.4420976771212506,4.1096488327100715,-0.022505030223238374,0.2653690210914817,-1.7183542552318785
1.4378385826542375,4.060650443313648,-0.02232754311374185,0.2504034988708579,-1.7032378939711859
1.4336161675714427,4.01448404091385,-0.022118931441990106,0.23555863165331764,-1.6827663650145455
1.4294367239241441,3.9711258401511422,-0.021875212213785716,0.2208434816383427,-1.6565496078546198
1.4253073393281128,3.9305502223440953,-0.021591994060227434,0.20626828475163836,-1.6241745750162795
1.4212359814036666,3.892729504279224,-0.02126440514446946,0.19184453698384762,-1.5852065007267604
1.4172315976984216,3.857633693058027,-0.02088700227916129,0.1775850548182222,-1.5391918670838847
1.413304235454921,3.8252302341180595,-0.020453652915582085,0.1635039866551065,-1.4856639300265955
1.409465187636278,3.7954837650938877,-0.01995737675434285,0.1496167399151068,-1.4241520439123463
1.405727174904462,3.7683558965143504,-0.019390125685827236,0.13593977144845193,-1.3541965347666645
1.4021045785402584,3.743805052397022,-0.018742467621578572,0.12249016662867701,-1.275371528816641
1.3986137478671203,3.721786420397663,-0.018003118411454373,0.10928490704879663,-1.1873188969782953
1.395273419609127,3.7022520821292773,-0.017158231672683603,0.09633970630262337,-1.0897971262342163
1.392105308933544,3.6851514164853434,-0.016190301754507808,0.08366730047564244,-0.982748926527314
1.3891349676424865,3.670431882158624,-0.015076448677676692,0.07127516612141412,-0.8663894954328195
1.3863930623588736,3.6580402654240025,-0.013785712202458127,0.059162904769331025,-0.7413112774631195
1.3839173218431675,3.6479243754975954,-0.012274714278659048,0.0473201470875791,-0.6085874586150288
1.3817555880335408,3.6400348941467264,-0.010480378454252563,0.03572702502684587,-0.4698332224662385
1.3799708704671523,3.6343264870617347,-0.008306122244573121,0.024361470604634373,-0.3271564680041433
1.3786509283632016,3.630755924500523,-0.005588005165435122,0.013223398460765383,-0.18291833423048098
1.3779335941763082,3.629269643283507,-0.0019628810123884,0.0024216669814992875,-0.039267968459469504
