x,y,v_x,v_y,omega
2.375,32.48,0.0,3.0256410256410255,-5.673469387755102
2.373584627019302,31.85229841732513,-0.013479742673313795,2.952469285548177,-5.2996535876692885
2.369552959547294,31.239634085875213,-0.024917090393427058,2.882429109212935,-4.962797310626402
2.3633026675697977,30.64137238420117,-0.034609499868446296,2.8153013829208384,-4.658161072261553
2.355173909005906,30.056922404445203,-0.042807248359092026,2.7508889004692882,-4.381726242793653
2.345458366495223,29.485732666449945,-0.0497217279331295,2.689013366152247,-4.13006958043502
2.334406712529415,28.927287405471347,-0.055532119360276994,2.629512928882008,-3.900262321879355
2.322234806258041,28.381103333969126,-0.06039079750995086,2.5722401330439117,-3.6897884798848373
2.309128860316281,27.846726798998656,-0.06442773526871444,2.517060200008171,-3.4964782859013783
2.2952497664802824,27.323731272644554,-0.06775411078841699,2.4638495747927887,-3.3184536632821335
2.2807367307970807,26.811715125106126,-0.07046527667064711,2.4124946874779702,-3.154083321887553
2.265710339175034,26.31029963945125,-0.07264321496789182,2.362890890187484,-3.0019455953315557
2.2502751511751202,25.819127234400685,-0.07435857550747996,2.314941538865553,-2.860797544898139
2.2345219013905977,25.337859867297272,-0.07567237482130573,2.268557195452673,-2.7295491626779045
2.2185293732153313,24.86617759402595,-0.07663741732408666,2.223654930940882,-2.6072417446936615
2.2023659981360875,24.403777266353856,-0.07729948819252301,2.1801577135552286,-2.4930296900804207
2.186091224303844,23.95037135016007,-0.07769835782884014,2.1379938692427234,-2.386165127497952
2.169756690557407,23.505686850474163,-0.07786863023246782,2.0970966039564147,-2.2859848843154413
2.15340723591544,23.069464331258487,-0.07784046159578738,2.057403579050012,-2.191899404763442
2.137081769530752,22.641457019539587,-0.0776401706393396,2.0188565325585563,-2.10338329550582
2.1208140219872185,22.221429984887763,-0.07729075834669366,1.98140094031598,-2.0199672349728983
2.1046331954377036,21.809159386414173,-0.07681235164868414,1.944985711813415,-1.9412310293973396
2.0885645272905484,21.404431780443332,-0.0762225830861278,1.9095629164803298,-1.8667976361779075
2.072629779841437,21.00704348285832,-0.07553691642922006,1.875087536710228,-1.796328005800102
2.05684766632792,20.616799980833164,-0.07476892655665678,1.8415172444817778,-1.7295166184978863
2.041234222284416,20.233515389281585,-0.0739305405243314,1.808812198866554,-1.666087612268617
2.0258031297388484,19.857011947881876,-0.07303224562393239,1.7769348620830712,-1.6057914156367283
2.010566000671872,19.487119554996134,-0.07208326929964853,1.7458498320668328,-1.5484018123994108
1.9955326252183516,19.123675335201348,-0.07109173501959734,1.7155236897883095,-1.4937133770348658
1.9807111892977052,18.766523237497353,-0.07006479755798843,1.6859248597735461,-1.4415392289541749
1.966108465689995,18.41551366156154,-0.06900876061067943,1.6570234824722527,-1.3917090616869323
1.9517299820076146,18.07050310968743,-0.06792917922151442,1.6287912972812262,-1.3440674096947374
1.937580168531321,17.73135386227992,-0.06683094912413881,1.6012015351712265,-1.2984721210366261
1.9236624884702054,17.397933674988348,-0.0657183847912481,1.574228819986606,-1.254793008754041
1.9099795528565062,17.07011549574259,-0.06459528772017217,1.5478490775920404,-1.2129106577525064
1.8965332219883875,16.747777200121554,-0.06346500626191168,1.5220394521320895,-1.1727153672573407
1.8833246950789868,16.430801343629035,-0.06233048811333378,1.4967782287490443,-1.1341062117134515
1.8703730654793416,16.119078163139935,-0.06101836521661997,1.4720139663852498,-1.0920207387435397
1.8576951120275704,15.81250191408618,-0.059724048609771076,1.4477598341266995,-1.0519346069895459
1.8452869782603014,15.510967448445882,-0.058448653935647896,1.423996981495174,-1.0137285067544097
1.8331445957026333,15.21437348241146,-0.05719308470881044,1.400707456927877,-0.9772916008581637
1.8212637256135924,14.922622413277491,-0.055958058996342465,1.3778741538718215,-0.942520827747115
1.8096399954660773,14.635620147243081,-0.054744132884752696,1.3554807607416002,-0.9093202695551162
1.798268930794496,14.353275937351395,-0.05355172113030947,1.3335117144173108,-0.8776005783661001
1.7871459829652527,14.075502230853587,-0.052381115338673304,1.3119521569903891,-0.8472784546997788
1.7762665533572919,13.802214525342862,-0.05123249997523962,1.2907878954927015,-0.8182761729186872
1.7656260143806284,13.533331233057392,-0.05010596646917514,1.2700053643689262,-0.7905211488475927
1.7552197277090742,13.268773552798852,-0.049001525640863706,1.2495915904743216,-0.7639455454168567
1.7450430600581515,13.008465348957074,-0.047919118653639375,1.2295341603997587,-0.7384859125991241
1.7350913967996258,12.752333037171017,-0.04685862666565374,1.2098211899436566,-0.7140828583119513
1.7253601536694552,12.500305476192459,-0.04581987933597112,1.1904412955664156,-0.6906807473146742
1.7158447867955722,12.252313865551866,-0.04480266232005669,1.171383567677323,-0.6682274254420388
1.7065408012452663,12.008291648655977,-0.04380672387333301,1.1526375456168512,-0.6466739667950995
1.6974437582685211,11.768174420974265,-0.042831780667098196,1.1341931942089776,-0.6259744417561527
1.6885492813930787,11.531899842996609,-0.04187752290854163,1.1160408817687162,-0.606085703912933
1.6798530615088922,11.299407557667632,-0.040943618845616286,1.0981713594596307,-0.5869671941713521
1.6713508610636707,11.07063911202437,-0.04002971872792205,1.080575741904768,-0.568580760508659
1.663038517477173,10.845537882783326,-0.03913545828634136,1.0632454889623195,-0.5508904919726085
1.654911945869494,10.624049005640913,-0.03826046178679187,1.046172388584469,-0.5338625656692797
1.6469671411876474,10.406119308067684,-0.03740434470698695,1.029348540684382,-0.5174651056045448
1.639200179805076,10.19169724539189,-0.03656671607940764,1.0127663419422177,-0.5016680523535508
1.6316072206601757,9.980732839981883,-0.03574718053868922,0.9964184714864287,-0.4864430426304392
1.6241914015619705,9.773317989599537,-0.034879668015645814,0.9789610559644949,-0.49859837417687713
1.6169536258020658,9.569556785755228,-0.03405152969773322,0.961621837790812,-0.5128266952542399
1.6098856746009935,9.369424758182753,-0.033262291264859266,0.9443974724232435,-0.5290096498318999
1.602979437647289,9.172898124906698,-0.03251139400851812,0.9272847492534478,-0.5470322659089691
1.5962269299733771,8.979953764720985,-0.031798202885880714,0.9102805858485861,-0.5667826937107935
1.5896203072100277,8.790569190829189,-0.031122013907924035,0.8933820226447038,-0.5881519530078212
1.5831518793541262,8.604722525554024,-0.030482060910184284,0.8765862180711639,-0.6110336885184255
1.5768141231747363,8.42239247602729,-0.029877521750670256,0.8598904440881979,-0.6353239323928209
1.570599693373468,8.243558310775192,-0.029307523975694444,0.8432920821222588,-0.6609208728037789
1.564501432606982,8.068199837116783,-0.028771149990840884,0.8267886193864177,-0.687724627691591
1.5585123804719925,7.896297379295774,-0.028267441770963207,0.8103776455755802,-0.7156370227257225
1.5526257815463447,7.727831757267811,-0.027795405139968234,0.7940568499288337,-0.7445613725538698
1.5468350925735908,7.562784266066636,-0.02735401364816469,0.7778240186537995,-0.774402264410636
1.541133988872961,7.401136655673387,-0.02694221207211955,0.7616770327104906,-0.8050653431526313
1.5355163700516679,7.242871111313523,-0.026558919559243065,0.7456138659548951,-0.836457096774321
1.5299763650920943,7.087970234105498,-0.026203032436694335,0.7296325836453483,-0.8684846414390971
1.5245083368825694,6.936417021984369,-0.025873426701640157,0.7137313413177784,-0.9010555050325197
1.5191068862571215,6.788194850821892,-0.025568960207387064,0.6979083840391297,-0.93407740820904
1.5137668556068171,6.64328745566235,-0.025288474557416906,0.6821620460517595,-0.9674580418592904
1.5084833321230176,6.501678911990247,-0.025030796716865433,0.6664907508253982,-1.0011048398716538
1.5032516507311575,6.363353616942149,-0.024794740348465613,0.6508930115374405,-1.034924745998648
1.4980673967724412,6.228296270369988,-0.02457910687740603,0.6353674320069514,-1.0688239735649991
1.492926408490189,6.096491855657401,-0.024382686286900806,0.6199127081129161,-1.102707756669334
1.487824779377497,5.967925620183578,-0.024204257643500166,0.6045276297330164,-1.1364800914344055
1.4827588604433624,5.842583055320812,-0.02404258934825622,0.5892110832456949,-1.1700434657508352
1.4777252624555857,5.7204498758422275,-0.023896439106759947,0.5739620546455759,-1.2032985758356862
1.472720858220563,5.601511998604728,-0.023764553607742166,0.558779633330592,-1.2361440277890448
1.4677427849626348,5.485755520359017,-0.023645667896337926,0.5436630166285692,-1.2684760221785938
1.462788446868978,5.373166694523139,-0.023538504424200343,0.5286115151417178,-1.3001880195136108
1.4578555178702293,5.263731906738293,-0.023441771754359332,0.5136245589996599,-1.3311703842860763
1.4529419447321528,5.15743764900515,-0.02335416289398888,0.4987017051255106,-1.3613100050585056
1.4480459505398688,5.0542704921752595,-0.023274353223000685,0.4838426456353507,-1.3904898878676712
1.4431660386634975,4.954217056545058,-0.02320099798053757,0.46904721750943473,-1.4185887199940914
1.4383009973027265,4.857263980268705,-0.023132729264899985,0.4543154136939348,-1.445480400924878
1.4334499047179277,4.763397885270248,-0.023068152495087778,0.4396473958151722,-1.4710335371214696
1.42861213526719,4.672605340294645,-0.023005842273839873,0.4250435087143713,-1.4951108970079046
1.42378736638226,4.584872820690421,-0.02294433758263897,0.41050429704013613,-1.5175688224405368
1.4189755866320999,4.500186664463552,-0.022882136228407138,0.3960305241681335,-1.538256592837115
1.4141771050409426,4.418533024081867,-0.022817688449283217,0.381623193752682,-1.5570157381766807
1.4093925618486458,4.339897813441318,-0.022749389572590317,0.36728357425253355,-1.5736792972964115
1.4046229409253779,4.264266649329546,-0.022675571601390648,0.3530132268119571,-1.5880710184004856
1.3998695840806792,4.191624786638087,-0.02259449358621391,0.33881403691622436,-1.6000044995930438
1.3951342075395865,4.121957046483086,-0.02250433061466864,0.3246882502742621,-1.6092822687443349
1.3904189208967068,4.055247736296774,-0.022403161222282503,0.31063851340488197,-1.6156948043714294
1.3857262489043194,3.991480560851464,-0.022288952990931032,0.2966679194075868,-1.6190195028574705
1.3810591565046713,3.9306385230797787,-0.022159546053335928,0.28278005937038,-1.61901960281335
1.3764210775824528,3.872703813468622,-0.02201263415826891,0.268979079783507,-1.615443085517873
1.371815947995187,3.81765768674493,-0.02184574286331058,0.25526974615641024,-1.6080215823287864
1.3672482435432882,3.7654803245623825,-0.021656204297630478,0.2416575127249994,-1.596469337423135
1.362723023677654,3.716150682977016,-0.021441127756028196,0.22814859761183084,-1.5804822996241994
1.3582459819262174,3.6696463237230468,-0.021197365114796928,0.21475006194979523,-1.5597374538777848
1.3538235042762243,3.625943228754334,-0.020921469647040503,0.20146989013319253,-1.5338925561088026
1.3494627371150092,3.5850155983314913,-0.02060964617405637,0.18831706627481817,-1.502586511723137
1.3451716668712919,3.546835634301182,-0.020257689480395368,0.17530163877574034,-1.465440747653251
1.3409592143127664,3.5113733124113864,-0.019860906315085355,0.1624347601747006,-1.4220620837215268
1.3368353477081478,3.478596150929679,-0.01941401372890241,0.14972868250823074,-1.372047828053982
1.332811221019216,3.4484689880190302,-0.01891100235616238,0.13719667854558107,-1.314994122756159
1.328899346381438,3.4209537879613094,-0.018344946575056215,0.12485284581365491,-1.2505089672417344
1.3251138150522055,3.3960095071560303,-0.017707732750967993,0.11271173328423974,-1.1782318486034682
1.321470588851929,3.37359206540739,-0.016989659632617504,0.10078771194091855,-1.0978624629279332
1.3179878966115448,3.353654485955019,-0.016178837894849436,0.08909399712928999,-1.0092014481986384
1.314686789911392,3.336147286009396,-0.015260273535177027,0.07764124044808665,-0.9122059349265415
1.311591943529243,3.3210192092721087,-0.014214453913862678,0.06643568085939622,-0.8070611263322488
1.3087328352997731,3.308218372271771,-0.013015148271564452,0.055477052477139126,-0.6942643681196093
1.3061455216319968,3.2976938063176924,-0.011625934278685919,0.044756908990288946,-0.5747079505982226
1.3038753790628386,3.289397145967669,-0.009994471141868232,0.034258903867088096,-0.44972983243008774
1.3019815558836658,3.2832837249646083,-0.008041940088349254,0.023964153304919886,-0.32108147415945176
1.300545111203077,3.2793112743858295,-0.005638485441068056,0.013868709350113265,-0.19075287916846212
1.2996887480017527,3.277430741277854,-0.0025173545715447923,0.004041129773457686,-0.060620360763020825
