x,y,v_x,v_y,omega
2.375,32.48,0.0,3.282051282051282,-4.448979591836735
2.3737748368479004,31.799598722298672,-0.011668220496185471,3.1979608865327607,-4.133503218855348
2.3702989436012345,31.136453534635354,-0.021435524710159307,3.1177075674036066,-3.8517475259586162
2.3649402139745574,30.489787792150292,-0.02959999554390427,3.041013789596974,-3.5990708853529463
2.3580092590798656,29.85888022075084,-0.03640909869125994,2.967629747540663,-3.371584357715985
2.3497690459807736,29.243059480060985,-0.042069121300090016,2.8973296876008074,-3.1660131290145626
2.3404427568838617,28.641699432901888,-0.04675267962288291,2.829908856771544,-2.9795863554167923
2.3302202290898406,28.054215003577067,-0.050604727939219295,2.7651809463220163,-2.8099490043105986
2.3192632561423348,27.4800585314139,-0.05374739537035999,2.7029759314224178,-2.6550908606012404
2.307709970160854,26.918716544346122,-0.05628389969136441,2.6431382311278586,-2.5132890250681523
2.295678479071946,26.369706891405365,-0.05830172972680585,2.5855251302126883,-2.383061088253928
2.2832698967469502,25.832576183942756,-0.05987524479696161,2.5300054170502264,-2.2631268035825682
2.2705708763019175,25.3068975040183,-0.061067807060493716,2.476458201277964,-2.1523765661393197
2.2576557351002937,24.792268345248278,-0.06193353771687612,2.4247718822460196,-2.049845370516165
2.244588242904562,24.288308756905565,-0.06251876890914057,2.3748432448274333,-1.9546912022032368
2.231423131090166,23.794659666530528,-0.06286324837081926,2.326576663506251,-1.8661770337971302
2.2182073700655778,23.3109813599606,-0.0630011423395479,2.2798833990644924,-1.7836557655921643
2.2049812534300948,22.836952100695587,-0.06296187323647807,2.2346809748880214,-1.7065575815615621
2.191779320482179,22.372266873015025,-0.06277082150558115,2.1908926220697147,-1.6343792949773865
2.178631143108767,21.916636235353657,-0.062449915384056726,2.1484467842290362,-1.5666753394452286
2.165561998563511,21.46978527219949,-0.06201812790409375,2.107276674382066,-1.5030501258352829
2.1525934459637734,21.031452634267133,-0.06149189685531263,2.0673198773546577,-1.4431515371926738
2.1397438213337896,20.601389657965292,-0.06088548057310446,2.0285179921866874,-1.3866653750482631
2.1270286635618887,20.179359556260053,-0.060211260111665575,1.990816309768007,-1.333310603811613
2.1144610816180713,19.76513667396553,-0.05947999649611827,1.9541635216083937,-1.2828352667997893
2.1020520717112503,19.35850580129574,-0.05870105023551213,1.918511456199135,-1.2350129692524354
2.089810791686581,18.95926154020612,-0.057882569047051996,1.8838148398924617,-1.1896398414308411
2.0777447988193614,18.567207718657073,-0.057031648735991,1.8500310796222628,-1.1465319094016722
2.065860256210194,18.18215684845832,-0.05615447135131595,1.8171200651277746,-1.1055228129993497
2.05416211219203,17.80392962281363,-0.055256424059770326,1.7850439886311875,-1.0664618202473493
2.0426542564954304,17.43235445008967,-0.054342201622132866,1.753767180168423,-1.029212095597493
2.031339656361258,17.067267020688426,-0.05341589489379439,1.7232559569862755,-0.9936491860365787
2.020220475321592,16.70850990421644,-0.05248106738873803,1.693478485604081,-0.959659694666934
2.009298176974867,16.35593217442167,-0.051540821627688645,1.66440465529849,-0.9271401159972278
1.9985736157477432,16.009389059614833,-0.05059785672587411,1.6360059619094944,-0.8959958110478766
1.9880471163538405,15.668741616510637,-0.0496545184541515,1.608255400987608,-0.8661401036159679
1.9777185434198896,15.333856425619032,-0.04871284282157037,1.5811273694086128,-0.8374934817668129
1.967587362546111,15.00460530649018,-0.04777459407155823,1.5545975746757001,-0.8099828909119371
1.9576526938940597,14.680865051272082,-0.04684129785274202,1.52864295121095,-0.7835411067691638
1.9479133592469677,14.362517175178834,-0.04591427021479993,1.5032415830104555,-0.7581061781390119
1.9383679233608575,14.049447682592099,-0.044994642986251006,1.4783726321012969,-0.7336209308218758
1.9290272512406095,13.741548372920594,-0.04396413911134817,1.4540017457225645,-0.7066407682992862
1.9199008098539379,13.438715008615777,-0.04295435028552424,1.430125533370924,-0.6809279485014478
1.910984235064447,13.140845603904953,-0.041965409614389354,1.4067259400655001,-0.6564076645581155
1.9022731445095387,12.847841875628934,-0.04099735757521414,1.383785757801345,-0.6330103631711088
1.8937631556471815,12.559609070608435,-0.04005015539961596,1.361288575727216,-0.6106713172860048
1.8854499011709742,12.276055803107031,-0.039123696754737286,1.339218733809961,-0.5893302381435233
1.877329042128088,11.997093901688249,-0.038217817939418974,1.3175612797022473,-0.5689309226649403
1.8693962790322014,11.722638264821075,-0.03733230678331072,1.2963019285565403,-0.5494209325833734
1.8616473612266673,11.452606724639708,-0.03646691041225126,1.2754270255517064,-0.530751302133914
1.854078094721069,11.186919918310213,-0.035621342022018346,1.2549235109196741,-0.5128762714678465
1.8466843486964155,10.925501166499402,-0.0347952867842041,1.2347788872785215,-0.4957530432660239
1.8394620608499033,10.668276358480139,-0.03398840699210356,1.2149811890954043,-0.4793415602993865
1.8324072417289525,10.41517384344272,-0.03320034654076073,1.1955189541181013,-0.46360430192538177
1.8255159781857158,10.166124327614398,-0.032430734823399046,1.1763811966278193,-0.44850609772173794
1.8187844360670664,9.921060776818742,-0.03167919011611733,1.1575573823784342,-0.4340139566472297
1.8122088622409316,9.679918324133645,-0.03094532251374078,1.1390374050986773,-0.420096910285782
1.8057855860474399,9.442634182331659,-0.03022873647189307,1.1208115644440497,-0.40672586887814904
1.799511020252519,9.209147560809104,-0.029529033003541972,1.1028705452945595,-0.39387348897677665
1.7933816615720526,8.979399586731379,-0.028845811572330474,1.085205398302834,-0.3815140516762994
1.7873940908263766,8.753333230141074,-0.028178671719820744,1.067807521604843,-0.36962335047617745
1.7815449727775743,8.530893232793257,-0.027527214459249803,1.050668643612464,-0.35817858792475976
1.7758310556955874,8.312026040498534,-0.026891043464436035,1.0337808068134877,-0.3471582802768871
1.7702491706935253,8.096679738769517,-0.02626976607901061,1.017136352510473,-0.33654216947117727
1.7647962308675775,7.8848039915802275,-0.02566299416811312,1.0007279064351533,-0.3263111417993772
1.7594692302725623,7.676349983060643,-0.025070344832030366,0.9845483651799464,-0.31644715269950924
1.754270194842371,7.471414217577088,-0.024444278312649198,0.9672208299015381,-0.33432278624706563
1.749198936474131,7.270105326828293,-0.023853420432493763,0.9500067010393615,-0.3540707637614833
1.7442481055135424,7.072399825768223,-0.023297350620731083,0.9329028328660781,-0.3755809113719648
1.7394104489956805,6.878274877072219,-0.02277556859699921,0.9159062023339759,-0.39874599281580564
1.7346788265954154,6.687708265903879,-0.02228750188171884,0.8990139040311591,-0.4234614712623768
1.7300462250658173,6.500678375698772,-0.021832512685880563,0.8822231455412949,-0.44962527842109945
1.7255057712901833,6.3171641648819445,-0.021409904224919854,0.8655312431904109,-0.4771375900058097
1.7210507440643288,6.1371451444394545,-0.02101892649750456,0.8489356181666445,-0.5059006066509714
1.716674584717607,5.960601356266828,-0.020658781566512466,0.832433793001216,-0.53581833939197
1.7123709066736281,5.78751335221957,-0.02032862837614226,0.8160233884012414,-0.5667963988322424
1.708133504044858,5.617862173792567,-0.020027587135953193,0.7997021204273635,-0.5987417871242274
1.7039563593491205,5.451629332356479,-0.019754743299642573,0.7834677980115642,-0.6315626918889478
1.6998336504304883,5.288796789879903,-0.019509151163521258,0.7673183208129802,-0.6651682811902914
1.6957597566620928,5.12934694006627,-0.01928983710691219,0.7512516774120919,-0.6994684986644948
1.6917292645039916,4.973262589834135,-0.01909580249405232,0.7352659438463293,-0.7343738578826284
1.6877369724853934,4.820526941068508,-0.01892602625450052,0.7193592824929875,-0.7697952349936505
1.6837778956772365,4.671123572569364,-0.018779467156519923,0.7035299413083895,-0.8056436586573505
1.6798472697183362,4.52503642212125,-0.01865506578538762,0.6877762534355397,-0.841830096229687
1.6759405544560837,4.382249768604925,-0.018551746236063437,0.6720966371961261,-0.8782652351069904
1.672053437260952,4.242748214068229,-0.018468417527095327,0.656489596486705,-0.914859258069508
1.6681818360729044,4.106516665668774,-0.018403974740024098,0.6409537216033206,-0.9515216113879817
1.6643219022371882,3.9735403173954325,-0.018357299885844322,0.62548769052374,-0.9881607643684661
1.6604700231869636,3.843804631468828,-0.018327262497248902,0.6100902706820229,-1.0246839589093868
1.6566228250308008,3.7172953193131946,-0.018312719942396038,0.5947603212763922,-1.0609969475298697
1.6527771751043105,3.5939983219825358,-0.018312517452750157,0.5794967961584431,-1.0970037181984977
1.6489301845470892,3.4738997899131228,-0.01832548785411942,0.5642987473597769,-1.1326062041457667
1.645079210968846,3.3569860618616083,-0.018350450986293267,0.5491653293213096,-1.1677039766805493
1.6412218612720597,3.243243642873267,-0.01838621279262036,0.5340958039009808,-1.2021939188498951
1.6373559947029128,3.1326591811076696,-0.018431564056399136,0.5190895462475745,-1.235969877581876
1.6334797262076097,3.025219443329256,-0.01848527875601177,0.504146051642094,-1.2689222917327194
1.6295914301776784,2.9209112888473285,-0.018546112005239396,0.4892649434238702,-1.3009377932227977
1.6256897446755265,2.8197216416634774,-0.018612797539062895,0.4744459821366184,-1.3318987781928693
1.6217735762405954,2.7216374605538505,-0.018684044698377075,0.4596890760502987,-1.3616829448458765
1.6178421053870387,2.6266457067785574,-0.01875853485930716,0.4449942932382215,-1.3901627943667159
1.6138947929161835,2.534733309069896,-0.018834917244075544,0.4303618754156958,-1.4172050910427103
1.6099313871813075,2.445887125504669,-0.018911804040456715,0.41579225377695656,-1.442670277456588
1.605951932458774,2.3600939018124443,-0.018987764745576702,0.40128606710136994,-1.466411840415248
1.601956778598613,2.2773402256108,-0.019061319636908852,0.38684418243810226,-1.4882756231467413
1.5979465921495983,2.197612475989157,-0.01913093225846983,0.3724677187203995,-1.5080990792967808
1.593922369179193,2.1208967677844086,-0.019195000793007726,0.3581580737057869,-1.5257104644609143
1.5898854500379904,2.047178889803316,-0.019251848170828187,0.343916954685581,-1.540927961510293
1.5858375363521406,1.9764442361486907,-0.01929971074202732,0.32974641345372024,-1.5535587369689696
1.5817807105666628,1.9086777296990256,-0.019336725310143063,0.31564888606690356,-1.5633979274126637
1.5777174584086584,1.8438637366763615,-0.019360914289897623,0.30162723795848445,-1.570227557621812
1.5736506946939632,1.7819859711181998,-0.019370168707200503,0.2876848149763728,-1.5738153965266783
1.5695837929660055,1.723027387952996,-0.0193622287019196,0.27382550088271823,-1.5739137635420815
1.5655206195350377,1.6669700632762599,-0.01933466111682157,0.26005378175284777,-1.570258307738954
1.5614655725845727,1.6137950603546898,-0.01928483364951324,0.24637481750019574,-1.5625667969439319
1.55742362713771,1.563482279878592,-0.019209884892035914,0.23279452036739962,-1.5505379754839825
1.5534003868413806,1.5160102930860262,-0.019106689358718645,0.21931963956178238,-1.5338505810789305
1.5494021437509968,1.4713561566688327,-0.018971816263985253,0.20595785012575893,-1.5121626579364693
1.545435947613122,1.429495208954183,-0.018801480287201452,0.1927178423947184,-1.4851113710595505
1.541509686600879,1.39040084790674,-0.01859148173416216,0.179609405676183,-1.4523136256011697
1.5376321821398844,1.3540442932717625,-0.018337132180073278,0.1666434956093236,-1.4133679380472206
1.5338133015098827,1.3203943380534007,-0.018033159534227832,0.15383226837508246,-1.367858211016339
1.5300640935471939,1.2894170990284906,-0.01767358296757001,0.14118905567168996,-1.3153603533717237
1.5263969553824626,1.261075782858402,-0.01725154241082314,0.1287282411863002,-1.2554530876466277
1.5228258423468006,1.2353304944807064,-0.01675905792881548,0.11646498145842188,-1.187734816904069
1.5193665399788383,1.2121381287624189,-0.016186678908921424,0.10441469204906483,-1.111849072004346
1.5160370280958944,1.1914524053148625,-0.015522958071498024,0.0925921979276687,-1.0275217276295556
1.51285798474127,1.1732241285492009,-0.014753645305876095,0.08101043793576754,-0.9346135456640786
1.5098535065505259,1.1574017744185525,-0.01386043270121041,0.06967864902280277,-0.8331909078693905
1.507052168254766,1.1439325053383094,-0.012818979639359638,0.05860010412236551,-0.7236142554683307
1.50448861980663,1.1327636590886563,-0.011595767485744318,0.04776986016004762,-0.6066351270038061
1.5022060550618037,1.1238445774816164,-0.010142944369745626,0.03717377419271902,-0.483475903482042
1.5002601826406865,1.1171282201120114,-0.008389173926607795,0.026791534089230663,-0.35584213729692127
1.4987262119288325,1.1125711062250083,-0.006220070948192331,0.016609550548887866,-0.22579711131548497
1.4977141272532348,1.1101275911212376,-0.0034188307241677855,0.006662021867963865,-0.09543637216647308
