x,y,v_x,v_y,omega
2.375,32.48,0.0,3.0256410256410255,-7.26530612244898
2.3737037653409265,31.941298960496937,-0.01440260732303795,2.9599260799485343,-6.8481314190967035
2.3699877910236853,31.414204933611366,-0.026885996201866012,2.8966742187800167,-6.466524019855362
2.364175526725528,30.898288724821512,-0.037694718222103844,2.835728101107262,-6.116498970112149
2.356549482527947,30.393148129961773,-0.04703910619545808,2.7769451751120746,-5.794606618641565
2.3473569041598266,29.898405447259265,-0.05510065345032974,2.720195743804672,-5.497849401140933
2.336814565980135,29.413705308214617,-0.062036437435131576,2.6653613566914216,-5.223613352526937
2.3251128364313907,28.938712774556585,-0.06798277977313968,2.6123334617311516,-4.969611409443749
2.312419140030645,28.473111658983147,-0.07305829134625291,2.561012266862593,-4.733836219673539
2.2988809161481414,28.016603035517022,-0.07736641845934478,2.5113057716499116,-4.514520668599066
2.284628156145969,27.568903911639325,-0.08099758156478948,2.4631289381022827,-4.310104708314741
2.2697755856716495,27.129746039351684,-0.08403097926098865,2.4164029762048176,-4.11920736335206
2.2544245471158724,26.69887484627256,-0.0865361158032006,2.3710547246743374,-3.94060301041516
2.2386646277749938,26.27604847103457,-0.08857409909545165,2.327016111303319,-3.7732012040392746
2.222575071600843,25.86103688979427,-0.09019874728399771,2.2842236802555775,-3.6160294574191174
2.2062260061888836,25.453621122728393,-0.09145753507110843,2.2426181760319706,-3.4682184964788467
2.1896795115566,25.053592511073848,-0.09239240528759851,2.202144175685164,-3.3289895920448025
2.1729905530700164,24.660752056651347,-0.09304046678555083,2.1627497623426226,-3.1976436446134566
2.1562077974104055,24.274909816955137,-0.09343459609901447,2.124386234281946,-3.073551752384236
2.1393743275966415,23.895884349841616,-0.09360395738725517,2.087007844757196,-2.956147038785964
2.122528270681417,23.523502202644107,-0.09357445278190925,2.050571568548446,-2.8449175528538238
2.1057033497342816,23.157597441209383,-0.09336911329736736,2.015036891837395,-2.73940008620953
2.088929370041195,22.798011214916418,-0.09300843884804233,1.9803656225288677,-2.639174775388529
2.072232648032652,22.44459135421804,-0.09251069458020852,1.9465217185641919,-2.543860378888705
2.0556363902548895,22.09719199765596,-0.09189216961715478,1.9134711321256326,-2.453110135411136
2.0391610286840143,21.755673245651376,-0.09116740339257107,1.8811816679252737,-2.3666081239817283
2.0228245178209434,21.419900838676476,-0.09034938397488354,1.8496228540180428,-2.2840660585079853
2.0066425982708083,21.089745857674135,-0.08944972213772924,1.8187658237857733,-2.205220459259383
1.9906290308835681,20.765084444821127,-0.08847880438715998,1.7885832079143045,-2.129830152102907
1.9747958049960093,20.44579754292876,-0.08744592769682837,1.7590490353342643,-2.057674053352869
1.9591533238550394,20.131770651948614,-0.08635941831394685,1.7301386422229046,-1.9885492040303359
1.9437105699065338,19.822893601203994,-0.08522673666944841,1.7018285882728468,-1.9222690223554022
1.9284752522931574,19.519060336102022,-0.08405457014584516,1.6740965795268248,-1.8586617475652192
1.9134539386104288,19.220168718200394,-0.08284891521780682,1.6469213971579524,-1.797569051785517
1.8986521727159074,18.926120337608157,-0.081615150276875,1.6202828316446778,-1.738844799785161
1.8840745801660117,18.636820336793626,-0.08035810027752158,1.5941616218500985,-1.6823539390963684
1.8697249626637187,18.352177244955996,-0.07908209419240136,1.5685393985680478,-1.627971505257558
1.8556063827341316,18.072102822191866,-0.07779101613634433,1.5433986321444932,-1.5755817288896823
1.8417212397001224,17.79651191275477,-0.07648835090820322,1.5187225838232354,-1.525077232998969
1.828071337903983,17.525322306765638,-0.07517722460445554,1.4944952605004824,-1.4763583103500157
1.8146652005931325,17.258458805511555,-0.0737798566272157,1.4706547534337557,-1.426668986241432
1.8015095263884953,16.995848673038232,-0.07239430120208912,1.4472356073809547,-1.3790801435191036
1.7886020643902998,16.73741733801102,-0.07102194322230565,1.4242236706991878,-1.3334793604302895
1.7759403322817404,16.48309272193374,-0.06966396909501997,1.4016053968261226,-1.28976137058185
1.763521650129289,16.23280513319578,-0.06832138815444179,1.3793678113734382,-1.2478275343681895
1.7513431705323903,15.986487166849216,-0.0669950518110961,1.3574984813661612,-1.2075853547025963
1.7394019055077443,15.74407360974456,-0.06568567068497264,1.335985486463351,-1.1689480329039619
1.727694750451338,15.505501350681946,-0.06439382994176412,1.3148173920101434,-1.1318340610193738
1.7162185054842103,15.270709295260453,-0.06312000302632072,1.293983223784246,-1.0961668472432249
1.7049698944549545,15.039638285131812,-0.0618645639654097,1.2734724443117584,-1.0618743714311683
1.6939455818427445,14.81223102138635,-0.06062779839247809,1.2532749306378284,-1.0288888680076191
1.6831421877787185,14.588431991818691,-0.05940991343003285,1.2333809534472535,-0.9971465338330383
1.6725563013804985,14.368187401838945,-0.05821104655018884,1.213781157438832,-0.9665872588358121
1.6621844925741245,14.151445108811586,-0.05703127352063574,1.194466542865136,-0.9371543774265753
1.65202332255943,13.938154559619637,-0.0558706155315233,1.1754284481565258,-0.9087944389032638
1.6420693530586399,13.728266731265627,-0.05472904558836904,1.1566585335547068,-0.8814569952256415
1.6323191544734668,13.521734074333871,-0.05360649424688844,1.1381487656870353,-0.8550944046907769
1.6227693130630725,13.318510459150406,-0.05250285475749092,1.119891403018146,-0.8296616501779714
1.613416437243703,13.11855112448794,-0.05141798767994912,1.1018789821203767,-0.8051161707546849
1.604257163100498,12.921812628673301,-0.05035172502232534,1.08410430470893,-0.7814177055456389
1.5952881591927612,12.728252802964235,-0.049303873952530414,1.0665604253917969,-0.7585281488668406
1.5865061307257102,12.537830707071034,-0.0482742201258138,1.049240640088202,-0.7364114157159714
1.57790782315436,12.350506586706548,-0.04726253066696491,1.032138475072749,-0.7150333167914814
1.5694900252785549,12.166241833055498,-0.046268556841980356,1.0152476766055756,-0.6943614422857587
1.561249571882244,11.984998944060944,-0.04529203645036367,0.9985622011117048,-0.6743650537637308
1.5531916421126362,11.8069665106168,-0.044240516545278795,0.9795759482676731,-0.7048475079580007
1.5453182006877255,11.632341950793972,-0.04324216595372698,0.9606969386526203,-0.7367070273264892
1.5376198344808298,11.461106203956625,-0.04229523634511463,0.9419224706512301,-0.7698326877172441
1.5300874458788258,11.293240685796832,-0.04139797034381698,0.9232499533464582,-0.8041153545060241
1.5227122541631788,11.128727268675505,-0.040548604274486005,0.9046769035571678,-0.8394474375361064
1.5154857964263293,10.967548262460728,-0.03974537057939686,0.8862009432736958,-0.8757226484902294
1.5083999280806695,10.809686395792,-0.038986499927933294,0.8678197974899551,-0.9128357596335136
1.5014468230139335,10.655124797698868,-0.03827022303580058,0.8495312924337486,-0.9506823628522618
1.4946189734418915,10.503846979501812,-0.03759477220910817,0.8313333542001942,-0.9891586278912253
1.4879091895067265,10.355836816922103,-0.036958382626061784,0.8132240077965818,-1.0281610586608743
1.4813105986673847,10.211078532325452,-0.03635929336662332,0.7952013766106554,-1.067586246445998
1.4748166449265585,10.069556677021847,-0.03579574819811336,0.7772636823182846,-1.1073306187970597
1.4684210879377193,9.931256113540627,-0.03526599612232123,0.7594092452508315,-1.1472901828255437
1.46211800203486,9.796161997795796,-0.03476829168722507,0.7416364852472891,-1.187360261553387
1.4559017752272605,9.6642597610516,-0.034300895063882515,0.7239439230215537,-1.2274352218837423
1.4497671082017347,9.535535091592362,-0.03386207188640114,0.7063301820810861,-1.2674081926649727
1.4437090133754493,9.409973915993483,-0.03345009285010535,0.6887939912398056,-1.307170771211106
1.4377228140435354,9.287562379882107,-0.033063233060047395,0.6713341877754819,-1.3466127165191553
1.4318041436674367,9.16828682806619,-0.032699771118826625,0.6539497212902563,-1.385621627285949
1.4259489453522107,9.05213378389925,-0.03235798793923978,0.6366396583423958,-1.4240826026737783
1.4201534715639608,8.939089927734905,-0.03203616526353928,0.6194031879281321,-1.461877883604821
1.4144142841422147,8.829142074309956,-0.03173258386697219,0.6022396279046434,-1.4988864721789246
1.4087282546664996,8.722277148877218,-0.03144552141875038,0.58514843245912,-1.534983726608493
1.4030925652416386,8.618482161888878,-0.031173249968593855,0.5681292007446476,-1.5700409288494208
1.3975047097725377,8.517744182007917,-0.03091403302141654,0.5511816868215867,-1.6039248218811268
1.3919624958065255,8.42005030719826,-0.030666122156496594,0.5343058110635023,-1.6364971133566073
1.386464047029797,8.325387633613666,-0.03042775314048599,0.5175016732097542,-1.6676139421128018
1.3810078065143365,8.23374322197023,-0.0301971414757412,0.5007695672728609,-1.6971253038143064
1.3755925408230307,8.145104061047263,-0.029972477316546477,0.48410999853788356,-1.724874431817341
1.3702173450937316,8.059457027915741,-0.029751919675665612,0.4675237029234647,-1.7506971292120133
1.3648816492380365,7.976788844441753,-0.02953358983205932,0.45101166900972295,-1.7744210479673717
1.3595852254078,7.897086029553986,-0.029315563837233542,0.4345751630765963,-1.7958649112204332
1.3543281969022578,7.820334846698795,-0.029095864002123824,0.41821575753662427,-1.814837675096244
1.3491110487115376,7.746521245833669,-0.02887244922810006,0.4019353631870018,-1.831137627134098
1.343934639918868,7.67563079922985,-0.028643204023783862,0.38573626574431547,-1.8445514195868402
1.3388002182146816,7.607648630268713,-0.028405926022731055,0.3696211671572265,-1.8548530377864034
1.3337094368120848,7.542559334325631,-0.028158311783900453,0.35359323221035033,-1.861802706758793
1.328664374096222,7.480346890743402,-0.027897940614573714,0.3376561409255192,-1.8651457437963341
1.323667556391913,7.420994564810556,-0.02762225609997316,0.32181414721722534,-1.8646113714271126
1.318721984297507,7.364484798588322,-0.027328544948979322,0.30607214414094913,-1.8599115151243095
1.3138311631125863,7.310799089389469,-0.02701391266125062,0.2904357358462991,-1.8507396245505787
1.3089991379895802,7.259917854727686,-0.02667525537215073,0.2749113159513165,-1.836769578109137
1.3042305345748775,7.211820282666054,-0.026309227013434928,0.25950615140016187,-1.8176547608970046
1.2995306060896712,7.166484166756167,-0.025912200599968446,0.24422846982080287,-1.7930274498507401
1.2949052880599932,7.123885725263214,-0.025480221952009878,0.22908754676755938,-1.762498702640499
1.2903612622795968,7.083999405248022,-0.025008953385728276,0.2140937867345628,-1.7256590366867968
1.2859060321432338,7.046797673516114,-0.02449360368497155,0.19925878806441413,-1.6820803125114492
1.281548012325394,7.012250798722057,-0.023928838735472045,0.18459537631400585,-1.6313194160524074
1.2772966370679892,6.9803266324204,-0.02330866412458039,0.1701175825932766,-1.572924585749298
1.273162493348622,6.9509904020977515,-0.022626266090611327,0.1558405321028302,-1.5064455720906094
1.2691574883591885,6.924204536839671,-0.02187378934753954,0.14178019298694625,-1.431449265027045
1.2652950657151938,6.899928556940743,-0.02104201780795687,0.12795291700112368,-1.347542970974028
1.2615904927075152,6.878119072830977,-0.020119904499581835,0.11437468421851527,-1.2544080957939914
1.2580612533426543,6.858729955484566,-0.019093866221094186,0.10105995296383108,-1.151847374420514
1.254727601378847,6.84171275656632,-0.017946711154540967,0.08802003501669009,-1.039848454404808
1.2516133578449622,6.8270174624862285,-0.01665599477751403,0.07526101031767768,-0.9186645064918282
1.2487470849941407,6.814593641247171,-0.015191481342724994,0.06278144789406323,-0.7889067333704393
1.2461638470558554,6.804391944495851,-0.0135111624159998,0.05057073823172527,-0.6516318073316856
1.243907918450784,6.796365692956588,-0.01155471097368355,0.038609834426743164,-0.5083884880828835
1.2420371736675986,6.790471790072711,-0.009231342172821047,0.026877975394092764,-0.36116728603964054
1.2406311513409847,6.7866691551161935,-0.006391128122889579,0.01537352412275338,-0.21219067324630203
1.2398109546678724,6.784909076459684,-0.0027221682450239634,0.004182905394007185,-0.06351434332997874
