x,y,v_x,v_y,omega
2.375,32.48,0.0,2.3076923076923075,-3.836734693877551
2.374498538252308,32.06842802977206,-0.005571797196578116,2.265329583729229,-3.6616000442283867
2.3730495006151746,31.664375448137335,-0.010528620993794986,2.2241435455454597,-3.4978877463927436
2.370757943902766,31.26763549376608,-0.014933120255186443,2.1840781696907454,-3.3446014537526487
2.367718271664085,30.878011155061344,-0.018841015730161156,2.145081149250757,-3.200849496292295
2.364015404674196,30.49531453123611,-0.02230195082415591,2.107103559918468,-3.0658322108370637
2.3597258087421418,30.119366249985607,-0.025360226198672935,2.0700995650871703,-2.9388310027963906
2.354918399159671,29.749994935239236,-0.028055435828775937,2.0340261543169302,-2.8191988752979245
2.3496553382092977,29.387036719406808,-0.030423019175372577,1.9988429104878151,-2.706352206230906
2.3439927397292344,29.030334795307194,-0.032494741714220024,1.9645118017301364,-2.5997635900408103
2.337981292706981,28.679739003614703,-0.03429911408859821,1.9309969948531067,-2.498955590827934
2.3316668141713577,28.335105452202136,-0.03586175852943771,1.8982646875087523,-2.4034952777173206
2.3250907402175387,27.996296164218755,-0.03720572984633046,1.866282956751009,-2.3129894336181276
2.3182905627850694,27.66317875213126,-0.03835179718110288,1.8350216219989506,-2.2270803451906898
2.311300218777699,27.335626115288136,-0.03931869178967668,1.8044521207024056,-2.145442095733808
2.3041504372356916,27.013516158852497,-0.04012332534374243,1.774547395249162,-2.067777294307208
2.2968690495212853,26.696731532193162,-0.040780982594103364,1.7452817898545407,-1.9938141841263801
2.2894812668356694,26.385159385035337,-0.04130549169052176,1.7166309563435203,-1.923304081440727
2.282009928834348,26.07869113985535,-0.04170937499082533,1.6885717678785697,-1.8560191029992534
2.2744757266331255,25.777222279163603,-0.042003982800535127,1.6610822398075258,-1.791750146038888
2.2668974030874303,25.480652146459118,-0.04219961215163296,1.6341414569089647,-1.7303050896766403
2.259291932873672,25.188883759761254,-0.042305612445686154,1.6077295064006232,-1.6715071907938288
2.2516746845945566,24.90182363673152,-0.04233047954448233,1.5818274161519705,-1.6151936510882696
2.2440595668639873,24.619381630493205,-0.04228193968406572,1.556417097607074,-1.5612143350373655
2.236459160095504,24.341470775340362,-0.04216702441019422,1.531481292980068,-1.5094306211432826
2.228884835516364,24.068007141602074,-0.04199213758024868,1.5070035263342427,-1.4597143710887712
2.221346862753113,23.798909698994166,-0.04176311534476311,1.482968058198099,-1.411947003375268
2.213855006236761,23.534102438407984,-0.041479734836924645,1.4593348372038855,-1.3646061124194473
2.206417262993342,23.27351190006773,-0.041161856756623434,1.4361155887989638,-1.3192616343586117
2.199039502589153,23.01706481244825,-0.04081325884547333,1.4132964958619274,-1.2758069736341224
2.191726945517785,22.764690338345005,-0.04043737528083887,1.3908643275074346,-1.234142299321186
2.184484222204627,22.51631997220321,-0.04003732819869342,1.368806407401433,-1.1941740468592315
2.177315426612511,22.271887442964974,-0.039615956158146566,1.347110584134515,-1.1558144614379575
2.170224164970418,22.031328622078266,-0.03917583986511541,1.3257652034955698,-1.1189811791457538
2.1632136000932043,21.79458143633849,-0.03871932543725791,1.3047590825019206,-1.083596842389232
2.1562864917123474,21.561585785258394,-0.03824854546115252,1.2840814850547422,-1.0495887464491764
2.1494452331949705,21.332283462684476,-0.03776543806525721,1.263722099099886,-1.0168885143549335
2.142691884990382,21.106618082398885,-0.03727176420794598,1.2436710151844663,-0.9854317975409485
2.136028205109402,20.884535007464493,-0.03676912335849922,1.223918706308777,-0.9551580000000357
2.12945567691144,20.66598128308837,-0.03625896772996625,1.2044560089814533,-0.9260100238716933
2.1229755344472014,20.45090557279464,-0.03574261520602171,1.1852741053933378,-0.897934034603535
2.116588785580646,20.23925809771233,-0.03522126108903838,1.166364506632354,-0.8708792440025067
2.110296233092129,20.030990578797304,-0.034695988783369165,1.1477190368679056,-0.8447977096524086
2.1040984939451794,19.826056181819688,-0.034167779516070404,1.129329818438962,-0.8196441493174976
2.0979960168819183,19.62440946495952,-0.033637521186833275,1.111189257785135,-0.795375769080465
2.091989098496442,19.42600632886403,-0.03310601642956831,1.093290032164731,-0.7719521040785228
2.086077897921401,19.23080396902948,-0.03257398995977578,1.0756250771080378,-0.7493348708051248
2.080262450250324,19.038760830379537,-0.03204209527441645,1.0581875745580092,-0.7274878300382802
2.074542678806833,18.849836563920448,-0.03151092076436975,1.0409709416540718,-0.7063766595406006
2.068918406361612,18.66399198536096,-0.03098099529364063,1.0239688201180561,-0.6859688357521596
2.063389365388709,18.48118903559195,-0.030452793294172463,1.0071750662042362,-0.6662335237658049
2.0579552074444,18.30139074292753,-0.029926739420373005,0.9905837411782134,-0.6471414749365269
2.0526185220174042,18.124789854854065,-0.029369765324021482,0.9716483485269658,-0.6787439816892854
2.0473787680120656,17.951587810368682,-0.028849723624188982,0.9528188124217166,-0.7116482165321871
2.0422293926197774,17.781765793547713,-0.028365558512346106,0.9340924855890711,-0.7457469271449891
2.037164036538523,17.615305455344156,-0.027916175723811918,0.9154668277837784,-0.7809343920248459
2.032176540526168,17.452188894562518,-0.027500446635690016,0.8969394031233014,-0.8171061892046381
2.027260951252052,17.29239863927937,-0.027117211965597205,0.8785078778005421,-0.8541589660673273
2.022411526516688,17.1359176286415,-0.026765285094005286,0.8601700181757879,-0.8919902092588662
2.0176227399055047,16.982729194973007,-0.02644345503025398,0.8419236892519235,-0.930498013677689
2.012889284939218,16.832817046121725,-0.02615048903959537,0.8237668535401172,-0.9695808494861666
2.0082060787805167,16.68616524797372,-0.025885134945972544,0.8056975703265865,-1.009137326048163
2.003568265554346,16.542758207062402,-0.025646123122592967,0.7877139953547272,-1.0490659516464056
1.9989712193371392,16.402580653195795,-0.02543216817970408,0.769814380940909,-1.08926488777313
1.9944105468689,16.265617622021914,-0.02524197035628764,0.7519970765466617,-1.129631696716651
1.9898820900410672,16.131854437447576,-0.02507421661963151,0.7342605298348811,-1.1700630810843233
1.985381928212651,16.001276693820554,-0.024927581473881744,0.7166032882431492,-1.2104546138078949
1.9809063804071896,15.873870237778466,-0.02480072747569063,0.6990240011133875,-1.2507004570695843
1.9764520074437046,15.749621149660104,-0.024692305451921016,0.6815214224239623,-1.2906930684653042
1.9720156140560414,15.628515724365915,-0.02460095441100386,0.6640944141781527,-1.3303228925843316
1.9675942510568172,15.510540451543825,-0.02452530113593012,0.6467419505117289,-1.3694780360314163
1.9631852176047189,15.395681994964452,-0.024463959442940487,0.629463122592431,-1.408043923746983
1.958786063637141,15.28392717093553,-0.024415529085702343,0.6122571443955754,-1.4459029342931278
1.9543945925342214,15.175262925589156,-0.024378594280070456,0.5951233594530545,-1.482934011567329
1.950008864085274,15.069676310856472,-0.024351721819346937,0.5780612486878791,-1.5190122501826446
1.945627197834554,14.967154458922856,-0.024333458744207226,0.5610704394633947,-1.5540084515140626
1.9412481768903207,14.86768455493154,-0.024322329525051537,0.5441507159956709,-1.587788647158543
1.9368706522894028,14.771253807674963,-0.024316832707370454,0.5273020312996177,-1.620213586296187
1.9324937480191005,14.677849417980198,-0.024315436962656548,0.5105245208644279,-1.6511381831801404
1.9281168668094137,14.587458544456997,-0.02431657647830603,0.4938185182822674,-1.6804109207360431
1.9237396968214966,14.500068266233853,-0.02431864560966092,0.47718457308599194,-1.7078732060374033
1.9193622193731206,14.415665542258267,-0.02431999270562842,0.4606234710871762,-1.7333586732698316
1.9149847178590822,14.334237166681383,-0.024318913005909874,0.4441362575448752,-1.7566924297466286
1.9106077880442318,14.255769719783931,-0.02431364049242728,0.427724263537911,-1.7776902406518076
1.9062323499295508,14.180249513829281,-0.024302338559584687,0.41138913595821086,-1.7961576485524686
1.9018596614179668,14.107662533150116,-0.024283089346904995,0.3951328715880822,-1.8118890244675891
1.897491334037026,14.037994367688135,-0.02425388155243485,0.3789578557672686,-1.8246665485873719
1.8931293510109752,13.971230139111878,-0.024212596514797343,0.36286690619114187,-1.8342591208685686
1.8887760880163889,13.907354418538556,-0.024156992313940542,0.3468633224013058,-1.8404212050632869
1.8844343370048078,13.846351134785515,-0.024084685592515018,0.33095094152138393,-1.8428916148128036
1.8801073335351657,13.788203471982541,-0.023993130736842425,0.3151342007338617,-1.8413922580319482
1.8757987881314189,13.732893755299287,-0.023879595971455364,0.29941820685786,-1.8356268670435825
1.8715129222717288,13.680403323500755,-0.023741135802877095,0.2838088131258178,-1.8252797584093083
1.8672545097323967,13.630712387067572,-0.023574559078592468,0.26831270279843045,-1.8100146904640166
1.8630289241643978,13.583799870751122,-0.023376391676952074,0.25293747849544546,-1.789473921537574
1.858842193991536,13.539643239745832,-0.023142832465955016,0.23769175489667504,-1.7632776225220745
1.854701066016784,13.498218309255659,-0.022869700586844482,0.22258525054970388,-1.7310238706285694
1.8506130795553282,13.459499038264827,-0.02255237120711105,0.20762887157066984,-1.6922895564491818
1.8465866535568924,13.423457310022563,-0.022185695442173945,0.19283477556559642,-1.6466326869791443
1.8426311901623058,13.390062704447853,-0.021763897831009772,0.17821639748674173,-1.5935967805283144
1.8387571996654763,13.359282271813562,-0.021280441022652426,0.1637884095609342,-1.5327183470378114
1.8349764542560558,13.331080323291403,-0.02072784130424238,0.1495665740186231,-1.463538852059393
1.8313021817409636,13.305418262968232,-0.020097408863447335,0.13556742957215673,-1.3856230891112875
1.8277493165526066,13.2822544984957,-0.019378871007187895,0.12180773123374987,-1.2985865145847573
1.8243348351228557,13.261544483850003,-0.01855981154560071,0.10830354260734965,-1.2021347223301315
1.8210782182773746,13.243240966414533,-0.017624820070853815,0.09506887334230352,-1.0961185317010607
1.8180021079939428,13.227294526442432,-0.016554183078389,0.08211379301437036,-0.9806073852359085
1.81513326493483,13.213654496085208,-0.015321850911753091,0.06944209984365711,-0.8559804121081149
1.8125039962187528,13.202270297942977,-0.013892245933546927,0.05704899062556464,-0.7230261938447482
1.8101543332762164,13.193093094803697,-0.012215120094635682,0.044919933144217605,-0.5830263768572259
1.8081354735646078,13.186077302322602,-0.010216654478793281,0.0330333166457068,-0.43777538310150454
1.8065156611202746,13.181180807927678,-0.007781261569351657,0.02137217663123119,-0.2894685952903756
1.8053922793019974,13.17836091733513,-0.004700758633730179,0.009959941063749918,-0.14039595938667512
1.8049312405955047,13.17755279268182,-0.00042189366063351795,-0.0009807782491747137,0.007493402505377361
