x,y,v_x,v_y,omega
2.375,32.48,0.0,2.3076923076923075,-5.551020408163265
2.3740969529229106,32.023003407129664,-0.009030470770896332,2.262273621011021,-5.273759373682913
2.3714947452889716,31.574946471426983,-0.016991605568489887,2.218295736015798,-5.016611610777101
2.36739535649234,31.135549005283334,-0.024002282397830973,2.1756789254206916,-4.777633461543516
2.3619784399623707,30.704546121640014,-0.03016688290185928,2.134349911012497,-4.555108034898259
2.3554040235028726,30.281687016829743,-0.0355772816931192,2.0942411370902367,-4.347514482567538
2.3478148426701977,29.86673388813582,-0.0403145266336318,2.0552901498489984,-4.153502027097207
2.339338363556948,29.45946096674019,-0.0444502644988692,2.017439064107298,-3.971867911416377
2.330088541544611,29.059653650079227,-0.04804795562449679,1.9806341025023255,-3.8015386020954356
2.3201673547106827,28.66710772031103,-0.05116391271478425,1.9448251951796107,-3.641553705694271
2.3096661441999093,28.28162863776511,-0.0538481923929526,1.9099656302796184,-3.4910521579483538
2.2986667886745997,27.903030900005156,-0.05614536286014404,1.8760117473199278,-3.349260325239951
2.2872427357006755,27.531137458573387,-0.05809516687909767,1.8429226669977492,-3.215481721520502
2.2754599094156838,27.16577918666597,-0.05973309597081607,1.8106600520764282,-3.0890880951089787
2.263377510915925,26.8067943919649,-0.061090889026773176,1.7791878949342559,-2.96951168126615
2.2510487253774145,26.454028369662225,-0.062196966358330594,1.748472328092507,-2.856238450186072
2.2385213478991854,26.107332991389054,-0.06307680842396027,1.71848145463921,-2.7488022076359497
2.2258383383555325,25.766566326329695,-0.06375328701256983,1.6891851959543773,-2.6467794281432697
2.213038314108807,25.431592291279895,-0.064246955454686,1.6605551545436112,-2.5497847193366865
2.200155988220025,25.102280326813776,-0.06457630343313592,1.6325644901175718,-2.4574668315517743
2.187222559763483,24.77850509706917,-0.0647579811322848,1.6051878073284847,-2.3695051397140907
2.1742660619733556,24.460146210956076,-0.06480699676898746,1.5784010538024942,-2.2856065352875787
2.1613116732000006,24.14708796284614,-0.06473689096456094,1.5521814272968395,-2.2055026751084776
2.148381995010993,23.839219091019416,-0.064559890925518,1.5265072909704032,-2.128947541521238
2.135497301219885,23.53643255233331,-0.06428704698556034,1.5013580958906405,-2.0557152746421354
2.122675761150382,23.23862531174288,-0.06392835370947231,1.4767143100136673,-1.9855982430003147
2.109945962250719,22.9457036898295,-0.0633696352871569,1.4525019091201352,-1.914476568147006
2.09733278045804,22.65757735115816,-0.06276218263962875,1.4287614775932767,-1.8465997450936216
2.0848453505935733,22.374153601993935,-0.06211211600503915,1.4054760140489557,-1.781781197733561
2.0724916439137866,22.095343069538785,-0.061424950792831286,1.3826293105025542,-1.7198471205645531
2.060278583106392,21.821059547986227,-0.06070565728111537,1.3602059050230317,-1.660635464186833
2.0482121459677107,21.551219853701475,-0.059958714105695386,1.3381910378244757,-1.603995012365095
2.0362974589340137,21.28574368886928,-0.05918815623127354,1.3165706104974564,-1.5497845414017206
2.024538881509606,21.02455351300827,-0.058397618012805776,1.2953311481126553,-1.4978720536040286
2.0129400825200197,20.767574421801417,-0.057590371883056435,1.2744597639558763,-1.4481340775363551
2.0015041090177514,20.514734032738115,-0.056769363139627535,1.2539441266771434,-1.400455028545692
1.990233448578802,20.26596237710465,-0.05593724124986408,1.2337724296575194,-1.3547266237519542
1.9791300856494165,20.02119179789731,-0.055096388043992924,1.2139333624159072,-1.3108473463131929
1.9681955525325447,19.780356853266248,-0.05424894312472503,1.1944160838946754,-1.2687219543229324
1.9574309755416164,19.543394225129003,-0.0533968267845583,1.1752101974777733,-1.2282610301805004
1.9468371167942116,19.3102426326204,-0.052541760689488806,1.1563057276082445,-1.1893805667036907
1.9364144120693432,19.080842750071184,-0.0516852865591959,1.1376930978839273,-1.1520015866332018
1.926163005108572,18.855137129230712,-0.05082878304851377,1.1193631105207893,-1.1160497925159751
1.91608277870245,18.63307012547034,-0.049973481012709854,1.1013069270829299,-1.0814552442549732
1.90617338286924,18.414587827723352,-0.049120477319388116,1.0835160503869226,-1.0481520618805458
1.896434260402061,18.199637991935067,-0.04827074735240127,1.0659823074959542,-1.016078151337239
1.8868646700330498,17.988169977812845,-0.047425156337711764,1.0486978337262627,-0.9851749512931017
1.877463707438534,17.780134688680747,-0.04658446960744494,1.0316550575947392,-0.9553871991691874
1.8682303242871678,17.575484514257038,-0.045749361906217895,1.0148466866423336,-0.9266627147576397
1.859163345513244,17.37417327618549,-0.044920425833021256,0.9982656940731415,-0.8989521999497561
1.8502681293570005,17.176342085054102,-0.04403173572941188,0.9800462172407486,-0.9090313640545109
1.8415471404789376,16.982142701951762,-0.04317815305121833,0.9619476137826485,-0.9211832669314588
1.8329933960911315,16.79155128982347,-0.04235929082684049,0.9439665075002791,-0.93528153164957
1.824600000056782,16.60454467285564,-0.04157466951665606,0.926099662178062,-0.9512030252412326
1.8163601605763162,16.421100309029548,-0.04082372528800349,0.9083439760828167,-0.9688275792699402
1.8082672062860667,16.241196263726742,-0.040105817614489225,0.8906964769452392,-0.9880377185418041
1.8003146008999282,16.0648111842916,-0.03942023624689845,0.8731543174061958,-1.008718396834009
1.7924959565153449,15.891924275459619,-0.03876620759893558,0.8557147709136212,-1.0307567385398246
1.7848050456967297,15.722515275562372,-0.03814290058721557,0.8383752280588321,-1.0540417851485007
1.7772358124418743,15.556564433422082,-0.03754943196133927,0.8211331933440814,-1.0784642454893798
1.7697823821300915,15.39405248585005,-0.03698487115648753,0.8039862823762459,-1.103916248672847
1.7624390705446695,15.23496063566396,-0.03644824469773214,0.7869322194846725,-1.1302910986562191
1.7552003920566803,15.079270530139045,-0.03593854018216111,0.7699688357644632,-1.1574830293502083
1.7480610670522716,14.92696423980761,-0.035454709861924734,0.7530940675498863,-1.185386959160957
1.7410160286812388,14.77802423752,-0.03499567384840301,0.7363059553262165,-1.2138982438335242
1.7340604290009138,14.632433377678161,-0.03456032295484776,0.7196026430921704,-1.242912426424784
1.727189644586225,14.490174875550018,-0.03414752119203886,0.7029823781892821,-1.2723249831865304
1.7203992816741525,14.351232286569179,-0.03375610792868677,0.68644351161911,-1.302031064082727
1.7136851809087352,14.215589485519853,-0.03338489972548519,0.66998449887416,-1.3319252265977757
1.7070434217513029,14.083230645501047,-0.033032691848839425,0.653603901313922,-1.3619011614148961
1.7004703266196852,13.954140216557299,-0.03269825946733702,0.6373003881235407,-1.3918514084546851
1.693962464819856,13.828302903854997,-0.03238035853095448,0.6210727388994792,-1.421667061663186
1.6875166563337833,13.70570364527363,-0.032077726329771586,0.6049198469141895,-1.4512374608260112
1.681129975528251,13.58632758827017,-0.03178908172555394,0.5888407231204157,-1.4804498685600187
1.6747997548511033,13.470160065861581,-0.03151312504592213,0.5728345009654513,-1.5091891304969025
1.6685235885838208,13.357186571555374,-0.031248537626903928,0.5569004420966178,-1.5373373165244306
1.6622993367225893,13.247392733040552,-0.030993980985410972,0.5410379430515856,-1.5647733407922357
1.656125129064195,13.140764284431281,-0.030748095598532234,0.5252465430411096,-1.5913725580223972
1.6499993695781994,13.03728703683242,-0.03050949926142323,0.5095259329474827,-1.6170063334943565
1.6439207411530659,12.9369468469697,-0.03027678498991141,0.49387596567970965,-1.641541583904913
1.6378882108113109,12.839729583597105,-0.030048518427637855,0.478296668046242,-1.664840286146079
1.6319010354974974,12.74562109135966,-0.029823234710498296,0.46278825432823195,-1.6867589509096053
1.6259587685531285,12.654607151750763,-0.029599434733190114,0.44735114176071855,-1.707148057936109
1.6200612670044456,12.5666734407591,-0.02937558075363782,0.4319859681559025,-1.7258514497064517
1.6142086998030092,12.481805482750367,-0.029150091260726887,0.4166936119314325,-1.7427056804625474
1.6084015571750547,12.399988600073542,-0.028921335018818797,0.4014752148368339,-1.7575393176999077
1.6026406612543194,12.32120785781968,-0.028687624188532636,0.386332207701777,-1.7701721937739325
1.5969271781947982,12.245448003093607,-0.028447206406679387,0.3712663395589503,-1.7804146061179633
1.591262631985311,12.172693398085826,-0.028198255688194184,0.3562797105188545,-1.788066465941252
1.5856489202176696,12.102927946155031,-0.027938861988219547,0.34137480878909376,-1.7929163973822764
1.5800883320957122,12.03613501005319,-0.027667019231353708,0.3265545522293157,-1.7947407922524092
1.5745835690150978,11.972297321349902,-0.02738061157479015,0.31182233480356125,-1.7933028301625824
1.569137768095767,11.911396880047807,-0.02707739761851687,0.2971820782173765,-1.7883514806121568
1.5637545291136583,11.853414843337863,-0.02675499220257098,0.28263828888206616,-1.7796205134281606
1.5584379453605317,11.798331402440162,-0.0264108453286963,0.2681961200949316,-1.7668275580396395
1.5531926390680417,11.746125646540062,-0.026042217596202538,0.25386143890607,-1.7496732722462784
1.548023802175912,11.69677541300176,-0.025646151325092605,0.23964089647694628,-1.7278407099193605
1.542937243421882,11.650257123383685,-0.025219436215209744,0.22554199970378616,-1.7009950180050628
1.5379394430106297,11.606545605382493,-0.024758567897311925,0.211573180308122,-1.6687836512251886
1.533037616523532,11.565613901827113,-0.024259696973667113,0.1977438552456634,-1.6308373747637184
1.5282397903293945,11.52743306942034,-0.023718564967707745,0.18406446882208408,-1.5867724400470304
1.5235548916566835,11.49197197234826,-0.023130421759402435,0.1705465018987166,-1.5361944780536994
1.518992857861966,11.459197079507646,-0.02248991618777016,0.15720242650743071,-1.4787048720353306
1.514564771548495,11.429072279400014,-0.02179094694694091,0.14404557456890466,-1.4139106602674978
1.5102830314789557,11.401558734241966,-0.02102645374845143,0.13108987701157374,-1.341439385166467
1.5061615743493058,11.376614805022168,-0.02018811754804794,0.11834941518641262,-1.26096072904695
1.5022161704603456,11.354196092172828,-0.019265921341554793,0.10583771330698487,-1.1722171790329996
1.4984648286668767,11.334255651099696,-0.018247496593134356,0.0935666974243266,-1.0750661306726093
1.4949283649752343,11.31674445408552,-0.017117140323288375,0.08154527271742065,-0.9695352986024831
1.491631218276905,11.301612170297652,-0.015854326660005427,0.0697775651612591,-0.855891147093102
1.4886026420023495,11.288808303564213,-0.01443143608554922,0.058261102173118196,-0.734714839691663
1.485878475766068,11.278283626746024,-0.01281022627726651,0.0469856660087671,-0.606970330127494
1.4835038483100236,11.269991623251524,-0.010936048283176415,0.03593436893623529,-0.4740346056112828
1.4815375349596724,11.263889190070724,-0.008727085220336453,0.025089962871759092,-0.33764566801853735
1.4800599419190856,11.259934859031997,-0.006048845185532036,0.014453347515512315,-0.19972155684617554
1.479192711510275,11.25807913450556,-0.0026234589025722318,0.00410389774885273,-0.0620328533261881
