x,y,v_x,v_y,omega
2.375,32.48,0.0,3.6923076923076925,-2.979591836734694
2.3740582122492184,31.715496488421504,-0.008969407150302382,3.58867813224937,-2.7440338616283078
2.3714037400402903,30.97220406141911,-0.016311280553772033,3.490297363011553,-2.5367148661138312
2.3673484325178973,30.249063467330235,-0.022310695849972202,3.3967559140253414,-2.3533088220857197
2.3621499275902593,29.545096962858914,-0.02719887488943786,3.3076869857015274,-2.190265434571447
2.3560217961176746,28.859399945629413,-0.031164281992320846,3.2227607974365555,-2.0446533460792713
2.3491416167732355,28.19113367640111,-0.034361235573763485,3.141679861880637,-1.9140383348922532
2.3416574402310215,27.539518915762248,-0.03691663625684658,3.0641750013466207,-1.7963879965027585
2.333692991514344,26.90383033423109,-0.038935256282942046,2.990001965616806,-1.6899966324704787
2.3253518777713253,26.28339158093066,-0.04050392222199443,2.918938542006311,-1.5934256764916754
2.316721007657824,25.677570916465704,-0.04169484076373286,2.850782071945636,-1.5054561526313524
2.3078733824031685,25.08577733178737,-0.04256825689965386,2.7853473059432834,-1.4250505142849563
2.298870383587737,24.50745708773151,-0.043174588961596774,2.7224645422077645,-1.3513218432919218
2.289763655842211,23.942090620319753,-0.04355615147198528,2.661978004570892,-1.2835088586554546
2.280596662025942,23.38918976537751,-0.04374855154010079,2.603744423450479,-1.220955537201565
2.271405972444052,22.84829526296697,-0.043781825430280245,2.5476317899832024,-1.1630944153329867
2.262222337201143,22.318974507870493,-0.04368136735932853,2.4935182585546967,-1.1094328441486028
2.2530715810306634,21.80081951713175,-0.043468691407145335,2.4412911770523666,-1.0595416258045443
2.2439753522581696,21.29344508965494,-0.04316205880708099,2.390846227488657,-1.0130455789236876
2.2349517514823516,20.796487136221344,-0.04277699620071112,2.3420866623551366,-0.9696156738271359
2.226015860731666,20.30960116112284,-0.04232672523439234,2.294922624297281,-0.9289624508220699
2.2171801900033663,19.83246087902456,-0.04182251979702847,2.2492705385434606,-0.8908304915541854
2.2084550550057127,19.36475695272676,-0.04127400399014884,2.205052569054623,-0.854993758138883
2.199848897441217,18.906195839258572,-0.04068940138600185,2.162196130642402,-0.8212516501577429
2.1913685571633805,18.456498733251294,-0.04007574411720036,2.120633450379305,-0.7894256577232824
2.1830195039135853,18.015400597845595,-0.039439048737993095,2.080301172532121,-0.7593565112629782
2.1748060350220815,17.58264927451781,-0.03878446451442745,2.0411400020182247,-0.7309017466722375
2.1667314443771644,17.15800466419192,-0.03811639877049683,2.0030943820378444,-0.7039336189765389
2.1587981670821215,16.741237972858205,-0.03743862308705417,1.966112202092804,-0.6783373093552943
2.1510079034927183,16.332131015665116,-0.036754363478690474,1.9301445330794784,-0.6540093798829199
2.1433617257289383,15.93047557410365,-0.036066377128734395,1.8951453865535337,-0.6308564380813687
2.1358601692594545,15.53607280147574,-0.03537701781873307,1.8610714956170358,-0.6087939797029559
2.1285033117467287,15.148732672341687,-0.034688291826273476,1.8278821151834679,-0.5877453833489533
2.12129084099933,14.768273472085188,-0.03400190576799988,1.7955388396403218,-0.5676410347970992
2.1142221135935246,14.39452132312633,-0.033319307620622816,1.7640054361583068,-0.5484175624340345
2.1072962054884425,14.02730974465964,-0.032641721951586496,1.733247692095896,-0.5300171681058523
2.1005119557599166,13.666479243101744,-0.03197018022485418,1.7032332751221655,-0.5123870401229114
2.093868004410804,13.311876930706426,-0.03130554690955351,1.6739316048332633,-0.49547883717349006
2.087362825074795,12.963356170047938,-0.03064854200481627,1.6453137347713904,-0.47924823358709684
2.0809947533119084,12.620776242290333,-0.029999760498865345,1.6173522438724794,-0.4636545178009086
2.0747620110934375,12.284002037354167,-0.029359689200855316,1.5900211364719716,-0.4486602370694674
2.06866272798902,11.952903764265255,-0.028728721317406215,1.56329575008911,-0.43423088245720187
2.062694959496249,11.627356680125388,-0.028107169089937923,1.5371526702905671,-0.42033460899725933
2.0568567028917975,11.307240836284315,-0.02749527476197967,1.511569652005371,-0.40694198661449804
2.05114591093065,10.992440840417501,-0.02689322010609235,1.4865255467261724,-0.3940257780166678
2.0455681006935964,10.682846121203863,-0.026228782151561762,1.4619955886418143,-0.37949725276245905
2.040128064431063,10.378350197895468,-0.02558108701542372,1.4379655857238411,-0.36565278607624585
2.0348223144413047,10.07884999809783,-0.024949865267986815,1.4144172694917534,-0.35245191786125013
2.029647422329779,9.784246195812432,-0.02433482150845056,1.3913332284644149,-0.33985703515090454
2.024600023903227,9.494443036749,-0.023735639696805123,1.3686968578539669,-0.3278331400840408
2.0196768230234006,9.209348173834076,-0.02315198773011443,1.346492312764359,-0.3163476393002494
2.014874594568409,8.928872512209566,-0.02258352136504401,1.3247044646119301,-0.30537015255119215
2.010190186629754,8.65293006307163,-0.022029887574524648,1.3033188605112827,-0.29487233857326983
2.0056205220559105,8.381437805751691,-0.02149072741446401,1.2823216853928776,-0.2848277364858795
2.0011625994384477,8.114315557488279,-0.020965678466134077,1.2616997266396162,-0.2752116211716342
1.9968134936238462,7.851485850381032,-0.020454376911021102,1.2414403410484496,-0.2660008712638843
1.992570355823021,7.592873815057246,-0.019956459287315695,1.221531423939974,-0.2571738485156906
1.988430413380933,7.338407070616853,-0.01947156397066387,1.2019613802542457,-0.24871028745565693
1.984390969260318,7.088015620454247,-0.018999332416143763,1.1827190974848518,-0.24059119435196533
1.9804494012863005,6.841631753585183,-0.01853941019354821,1.1637939203157606,-0.2327987546085109
1.9766031611923758,6.599189951134164,-0.018091447843830905,1.1451756268367912,-0.22531624780786932
1.972849773502777,6.360626797662803,-0.01765510158091998,1.126854406223796,-0.2181279696963978
1.9691868342814867,6.125880897042514,-0.017230033859938293,1.1088208377789626,-0.21121916047832626
1.9656120097740302,5.8948927925960355,-0.016815913830125883,1.0910658712351062,-0.20457593884932593
1.9621230349645868,5.667604891251621,-0.01641241768837987,1.0735808082355183,-0.19818524125670015
1.9587177120678447,5.443961391471557,-0.01601922894725967,1.0563572849079488,-0.192034765923852
1.955393908972284,5.223908214733164,-0.01563603862950913,1.0393872554576884,-0.18611292122176612
1.9521495576492292,5.007392940355501,-0.015262545399584788,1.0226629767105457,-0.18040877801053015
1.9489826525399343,4.794364743479001,-0.014898455641319855,1.0061769935418399,-0.17491202560996458
1.9458912489311804,4.5847743360182065,-0.014543483489669575,0.9899221251323921,-0.1696129310907144
1.942876355493753,4.3787096999562785,-0.014169787342973516,0.9725982183145544,-0.19019357636554385
1.9399369284702275,4.176271271586586,-0.013824755738220729,0.9553868137777585,-0.21258513329851325
1.9370669626589845,3.977435751103936,-0.0135082519879033,0.9382848098665281,-0.23668144099090788
1.934260491112772,3.782180477616116,-0.01322004845221341,0.9212892233507942,-0.26237911563339356
1.9315116033911908,3.5904834047821126,-0.01295983461046553,0.9043971845921086,-0.2895773257648867
1.9288144621863403,3.402323077425528,-0.012727224483349156,0.8876059330896429,-0.3181775740571506
1.9261633184530986,3.217678609045091,-0.012521763452286302,0.8709128133907239,-0.34808348477150636
1.9235525251661905,3.036529660147014,-0.012342934518268341,0.8543152713528808,-0.37920059605178735
1.9209765498176883,2.858856417326571,-0.012190164038895878,0.8378108507465631,-0.4114361562296832
1.918429985760818,2.684639573028246,-0.01206282697891445,0.8213971901898737,-0.4446989233248952
1.9159075624988704,2.5138603059153795,-0.011960251706301068,0.8050720204088421,-0.47889896692295725
1.9134041550116059,2.346500261781454,-0.011881724362885916,0.7888331618190025,-0.51394747160802
1.9109147922057685,2.1825415349356945,-0.011826492835565104,0.7726785224263255,-0.5497565411161218
1.9084346645711423,2.021966649995896,-0.011793770351349651,0.7566060960479474,-0.5862390023561984
1.905959131118989,1.8647585440210186,-0.011782738716778778,0.7406139608556535,-0.6233082084209423
1.9034837256756714,1.7109005489151627,-0.011792551219577974,0.7247002782477483,-0.6608778396771734
1.9010041626007925,1.5603763740330763,-0.01182233520783954,0.7088632920578269,-0.6988617019851027
1.8985163419962303,1.413170088915237,-0.011871194359420325,0.6931013281120868,-0.7371735210471337
1.8960163544700666,1.2692661060776906,-0.011938210651661868,0.6774127941502458,-0.7757267318289548
1.8935004855175561,1.1286491637783804,-0.012022446038914667,0.6617961801289142,-0.8144342619277986
1.8909652195799906,0.9913043086771438,-0.012122943842661322,0.6462500589304752,-0.8532083076839783
1.8884072438416049,0.8572168783013936,-0.012238729856251417,0.6307730875052361,-0.8919601017411134
1.8858234518245467,0.7263724832229528,-0.012368813163349882,0.6153640084799128,-0.9305996706566928
1.883210946842452,0.5987569888440554,-0.012512186666122594,0.6000216522715006,-0.969035581046548
1.88056704537434,0.4743564966815441,-0.012667827315896997,0.5847449397523942,-1.007174672613083
1.8778892804224439,0.353157325027901,-0.012834696035495322,0.5695328855203733,-1.0449217762563203
1.8751754049202645,0.23514598885548565,-0.013011737318592627,0.5543846018359435,-1.0821794152975355
1.8724233952606517,0.12030917881624248,-0.01319787848724361,0.5392993032996845,-1.1188474876560648
1.8696314550181623,0.008633739172616117,-0.013392028584086462,0.5242763123539331,-1.1548229266095027
1.8667980189454205,-0.09989335552373291,-0.01359307687059554,0.5093150657065569,-1.1899993375349707
1.8639217573298195,-0.20528502521087688,-0.013799890897034308,0.49441512179002767,-1.2242666077739648
1.861001580804778,-0.3075541107844444,-0.01401131410336096,0.47957616938681097,-1.2575104864858175
1.858036645719094,-0.4067134025151802,-0.014226162903152574,0.4647980375725819,-1.2896121310567197
1.8550263601788388,-0.5027756707113014,-0.014443223194514467,0.45008070715235254,-1.3204476163162409
1.8519703908889726,-0.5957536989604222,-0.014661246232783542,0.4354243237916583,-1.3498874024880492
1.8488686709366384,-0.6856603203315146,-0.014878943789446986,0.42082921307591736,-1.3777957574772977
1.8457214086752094,-0.7725084569699519,-0.015094982509876927,0.40629589776634045,-1.4040301287916708
1.8425290978879292,-0.856311163579285,-0.015307977368980914,0.39182511756065597,-1.428440460133823
1.8392925294328062,-0.9370816753528715,-0.015516484108382191,0.3774178517115845,-1.4508684475313296
1.836012804596733,-1.014833460997643,-0.015718990520884782,0.3630753449053175,-1.471146729848179
1.8326913504171802,-1.0895802815825348,-0.015913906427238257,0.3487991368555765,-1.4890980087407835
1.8293299372649,-1.161336256045459,-0.01609955216590775,0.33459109612464605,-1.5045340937161094
1.8259306990217699,-1.2301159343060561,-0.016274145387711998,0.3204534587381958,-1.5172548691172711
1.822496156235256,-1.29593437905568,-0.01643578591242011,0.3063888722106216,-1.5270471818917664
1.8190292426864825,-1.358807257429305,-0.01658243836161279,0.2924004456334543,-1.5336836523122774
1.81553333587456,-1.418750943901962,-0.016711912228125143,0.2784918064870729,-1.5369214150383879
1.812012291998526,-1.4757826358863753,-0.01682183897219999,0.2646671647930344,-1.5365008059360399
1.8084704861142313,-1.5299204836246503,-0.016909645640130165,0.2509313850952944,-1.5321440222391343
1.8049128582631908,-1.5811837360408845,-0.016972524369778537,0.23729006648791234,-1.5235538018950048
1.801344966523788,-1.6295929042150021,-0.017007396957867578,0.22374963040845905,-1.5104121951464995
1.7977730481381515,-1.6751699439889691,-0.017010873381528235,0.21031741505790752,-1.4923795417691192
1.7942040901460867,-1.7179384588282502,-0.01697920273337498,0.19700177388762172,-1.4690938270462504
1.790645911352505,-1.7579239232838333,-0.016908214348352553,0.183812173308416,-1.4401706774571268
1.7871072580360186,-1.79515392600468,-0.016793245808664436,0.17075928117585068,-1.4052043859870886
1.7835979166889186,-1.8296584288925288,-0.016629052735142754,0.15785503204173937,-1.3637705449442723
1.7801288484554743,-1.8614700351647215,-0.016409692345281546,0.1451126467410704,-1.3154311354561117
1.7767123521298607,-1.8906242530773696,-0.016128367898657542,0.13254657147459753,-1.2597433077119682
1.773362266129863,-1.917159732898476,-0.01577721305370142,0.12017228396449295,-1.1962736161291774
1.7700942256839947,-1.9411184412619207,-0.015346981668853074,0.10800589092547398,-1.124620165464087
1.7669260010579604,-1.962545718262561,-0.014826586198140184,0.09606341384249646,-1.0444459345458321
1.763877958451343,-1.981490138646663,-0.0142023910077374,0.08435963743467688,-0.9555272666884052
1.7609737111639272,-1.9980030727529865,-0.01345710696765304,0.07290640167315643,-0.8578215588253782
1.758241071143114,-2.012137827607553,-0.012568036087710583,0.06171031122749662,-0.7515561792801659
1.755713481157081,-2.023948274065077,-0.011504249493556867,0.050770131225135004,-0.6373339776905892
1.753432229547363,-2.033486995058979,-0.010221956313279181,0.04007483062156431,-0.5162356532696277
1.7514499950313764,-2.0408033360320132,-0.008656467648500029,0.029604607216856423,-0.3898735136255578
1.7498369241341787,-2.0459425089819376,-0.006706112324809576,0.01933989706812319,-0.2603218978468228
1.7486929391298567,-2.0489488074072852,-0.00418898295444857,0.009291516506625068,-0.12984083478433509
1.7481859846427694,-2.049885530133686,-0.0006391550178112639,-0.00037034768378655346,-0.0004007708611053207
