x,y,v_x,v_y,omega
2.375,32.48,0.0,3.3846153846153846,-6.040816326530612
2.373763777662799,31.87788507104574,-0.013735803746681206,3.3055504926541586,-5.658083363120925
2.3702358727913913,31.289710692826535,-0.02546313926895869,3.2297203764481126,-5.311650595788627
2.3647524546392638,30.714914059554122,-0.035463729088012486,3.1569088821342475,-4.997044503051157
2.357602853507017,30.152969426147084,-0.0439762834925054,3.086920377943945,-4.710445803855604
2.3490366483741187,29.603384653399985,-0.0512037735396992,3.0195770970238045,-4.448579981632075
2.339269568227638,29.065698191278507,-0.05731933919897263,2.954716926548184,-4.208628397328589
2.3284884271793707,28.539476428245457,-0.06247111689288926,2.892191551596825,-3.9881556844401933
2.316855268205049,28.024311349045664,-0.06678620504401667,2.831864883956419,-3.785050114018268
2.3045108553892875,27.519818454510826,-0.07037393735333711,2.773611721986249,-3.5974743603813857
2.2915776273234227,27.02563490556899,-0.07332859671182618,2.717316599589706,-3.423824658453475
2.278162202904116,26.541417860390123,-0.07573167461380126,2.6628727912866053,-3.2626967701915772
2.264357513843136,26.066842978927966,-0.07765375939709035,2.610181447181812,-3.112857505143732
2.250244624703139,25.60160307336602,-0.07915611993620984,2.5591508368397866,-2.9732207937570982
2.2358942904555694,25.145406886390678,-0.08029203837011514,2.5096956851084755,-2.842827509789952
2.2213682928357223,24.697977981983357,-0.08110793518374504,2.4617365860839913,-2.7208283934096498
2.2067205897038717,24.25905373568615,-0.08164432183681598,2.4151994838849413,-2.606469549181794
2.191998305869055,23.828384413158144,-0.08193660966114774,2.3700152108707053,-2.4990800905861135
2.1772425891287392,23.40573232738393,-0.08201579856458288,2.326119075509453,-2.398061580528053
2.162489351416236,22.990871066185,-0.08190906490767641,2.2834504933675643,-2.3028789798093157
2.147769911765428,22.583584782767197,-0.08164026454574745,2.2419526557191416,-2.213052865938011
2.133111555170304,22.18366754295228,-0.08123036428896016,2.201572231113287,-2.1281527255162174
2.1185380192324104,21.790922723518683,-0.08069781279874844,2.1622590959266343,-2.047791156693042
2.1040699186706355,21.405162456740342,-0.08005886010985806,2.1239660904993993,-1.9716188453397363
2.089725116248932,21.026207116781855,-0.07932783346462953,2.0866487979282278,-1.8993202008873105
2.075519047405446,20.653884844099508,-0.07851737590743173,2.050265342986724,-1.8306095561110214
2.0614650047981327,20.288031104422586,-0.07763865306271941,2.014776208979092,-1.7652278502991423
2.047574388082156,19.928488279259092,-0.076701532670354,1.9801440706152502,-1.7029397278021126
2.033856923474795,19.575105285192464,-0.07571474074477018,1.9463336412362011,-1.643530994399805
2.020320857020647,19.227737219518076,-0.07468599763465365,1.9133115329236638,-1.5868063826326222
2.006973124924562,18.886245030016596,-0.07362213676628795,1.8810461282038822,-1.5325875845255763
1.9938195038560131,18.550495206879624,-0.07252920843981067,1.8495074622069356,-1.4807115162437166
1.9808647437334668,18.220359494996366,-0.07141257069959324,1.8186671142736848,-1.4310287843554768
1.9681126851599062,17.895714624981302,-0.07027696900663653,1.7884981081158924,-1.383402327713472
1.955566363391931,17.576442061474836,-0.06912660619308748,1.758974819733731,-1.3377062126254395
1.9432281004773255,17.262427767384512,-0.06796520396919532,1.7300728923809916,-1.2938245620925855
1.9310995869833452,16.95356198285529,-0.06679605707502952,1.7017691579436895,-1.251650602530005
1.9191819545549778,16.649739017865606,-0.06562208101794333,1.6740415641639301,-1.2110858136295861
1.9074758403846577,16.35085705744293,-0.06444585420783383,1.6468691071991493,-1.1720391689423382
1.8959814445386556,16.056817978579765,-0.06326965519219008,1.62023176905824,-1.1344264563962305
1.8846985809674672,15.767527178009384,-0.06209549559879352,1.5941104595015496,-1.0981696693705183
1.8736267229253802,15.482893410071359,-0.06092514931328428,1.5684869620320512,-1.0631964601541166
1.8627650434357224,15.202828633960802,-0.059760178349579945,1.5433438836408142,-1.0294396486539554
1.8521124513612155,14.927247869712968,-0.05860195581160812,1.5186646080018065,-0.9968367801145817
1.8416676235717517,14.656069062327248,-0.05745168629354358,1.4944332518395158,-0.9653297263837709
1.8314352880079658,14.38921505262266,-0.056240931081857,1.4706113004336638,-0.9328708051853856
1.821419007351067,14.126611237911298,-0.05505107621701934,1.4472088630259319,-0.9017805358404782
1.811615002248627,13.868183365768544,-0.05388231381008967,1.4242119385602274,-0.8719858670043054
1.8020194664350913,13.613859650670168,-0.05273475078475297,1.4016071180883862,-0.8434183828606796
1.7926285810880105,13.36357067026444,-0.05160841973836689,1.3793815530863682,-0.816013961842334
1.7834385273406004,13.117249267165658,-0.05050328856618959,1.357522925788994,-0.789712463846113
1.7744454971605133,12.874830455919252,-0.04941926899033514,1.3360194213932988,-0.7644574432874596
1.7656457027807475,12.63625133481446,-0.0483562241181714,1.3148597019932915,-0.7401958856114149
1.7570353848474989,12.401451002244226,-0.04731397514014542,1.2940328821204075,-0.7168779651195342
1.7486108194311152,12.170370477333698,-0.046292307264118086,1.27352850577435,-0.6944568221874452
1.740368324029867,11.942952624578545,-0.04529097497197322,1.2533365248384654,-0.6728883581394728
1.7323042626816996,11.71914208225267,-0.04430970667433189,1.2334472787823607,-0.6521310462176135
1.7244150502862672,11.498885194361652,-0.043348208830472655,1.21385147556227,-0.6321457572346355
1.7166971562281654,11.28212994593374,-0.04240616959287876,1.1945401736367602,-0.612895598637327
1.70914710738219,11.068825901454467,-0.04148326202907197,1.1755047650218295,-0.594345765827799
1.7017614905725045,10.858924146264123,-0.04057914696743347,1.1567369593153363,-0.5764634046999036
1.6945369545496745,10.652377230749394,-0.0396934755084561,1.138228768626076,-0.5592174844457
1.6874702115424727,10.44913911717175,-0.03882589123823127,1.1199724933477335,-0.542578679774738
1.680558038435113,10.249165128985435,-0.03797603217687344,1.1019607087224337,-0.5265192617678665
1.6737972776150083,10.052411902507572,-0.03714353249095861,1.084186252142723,-0.511012996658265
1.667184837531196,9.858837340811714,-0.036328023995843624,1.0666422111445906,-0.49603505189632885
1.66071769299919,9.668400569724419,-0.035529137470890294,1.0493219120475905,-0.48156190891265244
1.6543928852840808,9.481061895812019,-0.03474650380809826,1.0322189092013032,-0.4675712820453476
1.6482075219902348,9.296782766251876,-0.03397975501241517,1.0153269748002924,-0.4540420431448759
1.6421587767828165,9.115525730488933,-0.03322852507000837,0.9986400892323933,-0.4409541514120199
1.6362503008826894,8.937474458001166,-0.03242120715362489,0.9797073828539147,-0.4770367154990836
1.6304826186533352,8.762821687227301,-0.031664150950311984,0.9608789590779236,-0.5143656614697285
1.6248468340291056,8.591548881508505,-0.030955678207793852,0.942152215575364,-0.5528364698442784
1.6193343536277114,8.42363796332813,-0.030294104029920454,0.9235246530954617,-0.5923461638182587
1.6139368877232811,8.259071295995795,-0.02967773935263775,0.9049938728193743,-0.632793079702879
1.6086464508014167,8.097831665774823,-0.029104893112523168,0.8865575740803073,-0.6740766388418721
1.6034553617499534,7.939902264387076,-0.028573874125955707,0.8682135524502311,-0.7160971199994915
1.5983562437361085,7.785266671828893,-0.02808299269454596,0.8499596981962294,-0.7587554311931725
1.5933420238180942,7.6339088394311005,-0.027630561950055865,0.8317939951125844,-0.801952879914729
1.588405932337119,7.485813073094548,-0.02721489894966852,0.8137145197379863,-0.8455909406455195
1.5835415021339396,7.340964016630757,-0.026834325530101157,0.795719440970805,-0.8895710185231818
1.5787425676328308,7.199346635134454,-0.026487168926664806,0.7778070200992356,-0.9337942079596592
1.5740032638349466,7.060946198311459,-0.026171762160936134,0.7599756112673771,-0.9781610449415422
1.569318025262625,6.925748263681122,-0.02588644419819267,0.7422236624030224,-1.022571251663354
1.564681584896205,6.793738659567413,-0.025629559873141916,0.7245497166381838,-1.0669234720513585
1.5600889731454477,6.664903467786644,-0.025399459579715337,0.7069524142592641,-1.1111149966286895
1.5555355168986746,6.539229005932572,-0.025194498717763893,0.6894304952304146,-1.155041475050948
1.5510168386943048,6.416701809151135,-0.025013036886343615,0.6719828023411171,-1.1985966145036644
1.5465288560616455,6.2973086112870575,-0.02485343680987384,0.6546082850375421,-1.2416718619979605
1.5420677810805803,6.181036325273055,-0.024714062979738535,0.6373060040069242,-1.2841560684271274
1.5376301202133194,6.067872022618857,-0.024593279989828458,0.6200751365952587,-1.325935132053587
1.5332126744656323,5.957802911841668,-0.024489450540027182,0.6029149831512708,-1.3668916188819515
1.5288125399401307,5.850816315661685,-0.02440093307665842,0.5858249744040849,-1.4069043571391853
1.524427108850229,5.746899646765442,-0.024326079033357043,0.5688046799986136,-1.4458480028274807
1.520054071070562,5.646040381915714,-0.024263229629612155,0.5518538183316868,-1.4835925730406876
1.515691416307944,5.548226034159029,-0.02421071217725486,0.5349722678537012,-1.520002943443962
1.5113374369866333,5.4534441228499055,-0.02416683583730694,0.5181600800254462,-1.5549383060141309
1.50699073195281,5.361682141174285,-0.024129886760730135,0.501417494148118,-1.5882515828340773
1.5026502111160545,5.272927520812448,-0.024098122536554245,0.4847449543167437,-1.6197887914424385
1.4983151011604172,5.187167593333417,-0.02406976585941663,0.46814312878359554,-1.6493883569818386
1.493984952474677,5.104389547857593,-0.02404299731547077,0.4516129320588891,-1.6768803661973692
1.4896596474709303,5.0245803844613945,-0.024015947170607885,0.4351555501211054,-1.702085758260424
1.485339410483093,4.9477268627262525,-0.023986686027581278,0.41877246915826705,-1.7248154475021635
1.4810248194627558,4.873815444753799,-0.023953214198389326,0.40246550831342515,-1.7448693735391507
1.4767168197196034,4.802832231879147,-0.023913449614415667,0.3862368569604758,-1.762035475111115
1.4724167399881605,4.7347628942149065,-0.0238652140682826,0.37008911708664133,-1.7760885854447634
1.468126311142822,4.669592592051156,-0.023806217546590513,0.35402535139948826,-1.7867892494228108
1.4638476879303868,4.607305888023259,-0.02373404036935492,0.3380491377993681,-1.7938824667294915
1.4595834741454663,4.54788664884509,-0.023646112796428115,0.3221646308469648,-1.7970963711225942
1.455336751741876,4.491317935298159,-0.02353969168790858,0.3063766307855952,-1.7961408650040607
1.4511111144564566,4.437581879081481,-0.023411833705641347,0.2906906605108197,-1.7907062419143962
1.4469107066267495,4.386659545085379,-0.02325936440221631,0.2751130505569921,-1.78046184947587
1.4427402680199983,4.33853077769108,-0.023078842339462804,0.2596510316019038,-1.765054874581458
1.4386051856728765,4.293174029873239,-0.022866517073001413,0.24431283304079007,-1.7441093755116268
1.434511553992844,4.250566174281442,-0.022618279371803905,0.22910778464582932,-1.7172257482828672
1.4304662447313676,4.210682296231884,-0.022329601311267246,0.21404641590483284,-1.683980905664766
1.4264769889686653,4.1734954698509235,-0.021995462718756516,0.19914054388360988,-1.643929579345852
1.422552474051159,4.138976520773074,-0.021610258586868967,0.1844033347591635,-1.5966073457803538
1.4187024596640887,4.10709378223277,-0.021167679047244863,0.16984931568866488,-1.5415362468641383
1.4149379191786795,4.077812856696259,-0.02066054856841332,0.15549430138367826,-1.4782342550661922
1.4112712155389673,4.051096403135151,-0.0200806029839464,0.14135518262861668,-1.4062303459455028
1.4077163259876815,4.026903981550522,-0.01941816980811899,0.1274495016450285,-1.3250875996865683
1.4042891380682865,4.005192002177964,-0.018661695962935095,0.11379471360563362,-1.234437510427106
1.4010078524814127,3.985913846797846,-0.017797032780107188,0.10040701284010527,-1.1340293396497783
1.3978935494894476,3.96902025087676,-0.01680633379728502,0.08729960850529135,-1.0237983682893987
1.3949710092916645,3.954460048471997,-0.01566633506696984,0.07448041821431041,-0.903955071379123
1.392269930855152,3.942181364053944,-0.014345647560946048,0.06194940865293255,-0.7750912801551489
1.389826783978116,3.9321332399556717,-0.012800428850564862,0.049696414661187,-0.6382860215498809
1.3876877014772844,3.9242674328387075,-0.01096715449201085,0.037701442193952606,-0.4951707225807568
1.3859132427609677,3.9185395575795354,-0.008749053467061781,0.02594161624127387,-0.34788591658965673
1.3845873106235957,3.9149075166104517,-0.0059835258370710565,0.014414394526338815,-0.19884898236380932
1.3838399762334501,3.9133205521785612,-0.0023201896089930386,0.0032185436057828535,-0.05029108595730608
