x,y,v_x,v_y,omega
2.375,32.48,0.0,2.3076923076923075,-2.7346938775510203
2.374544811902797,32.022959412180946,-0.0045518809720272325,2.2627135704982115,-2.5984178524258805
2.3732335734316528,31.574777485593177,-0.008560503739417396,2.219105695379471,-2.471975938367261
2.371168884177549,31.13518696996619,-0.012086388801619889,2.1767994608903996,-2.3544279459182733
2.368441969775573,30.703933984101898,-0.015182755218141872,2.135730397752507,-2.2449411352709805
2.3651340450618705,30.28077710829624,-0.01789649191888118,2.095838360304094,-2.1427761663097966
2.3613174971934017,29.865486557534897,-0.020268986765807004,2.0570671473093167,-2.047275106036248
2.357056914895092,29.45784342629667,-0.02233683621728868,2.0193641650729717,-1.9578511603090003
2.352409985830237,29.057638997088226,-0.024132454431263158,1.9826801270114522,-1.8739798559484604
2.3474282806472635,28.66467410590724,-0.025684597398473227,1.9469687847984098,-1.795191446934422
2.342157939401296,28.27875855872869,-0.027018815061197608,1.9121866869870832,-1.7210643570684443
2.336640273672994,27.899710593865052,-0.028157842221825928,1.8782929616492978,-1.6512195029360959
2.3309122957225625,27.527356385690723,-0.029121937282488436,1.845249120094003,-1.5853153667322994
2.325007184353726,27.1615295857654,-0.02992917640587971,1.8130188791592334,-1.523043709636887
2.3189546957642757,26.802070897856602,-0.03059570948862094,1.7815679999287342,-1.4641258338377716
2.312781526480956,26.44882768376149,-0.031135983344574635,1.7508641410223964,-1.4083093157010504
2.3065116344796324,26.101653597173318,-0.03156293666866468,1.7208767248593073,-1.3553651445419415
2.300166523746597,25.76040824313714,-0.031888170661684,1.6915768155025102,-1.3050852114063358
2.293765496818537,25.424956860899634,-0.03212209861891947,1.6629370068725504,-1.2572801005901524
2.2873258792265965,25.095170028185557,-0.0322740773004849,1.6349313202682212,-1.2117771435931604
2.280863219247245,24.770923385132516,-0.032352522493032776,1.607535110262165,-1.1684187010607556
2.274391465915144,24.452097376291317,-0.03236501082797817,1.5807249781498354,-1.1270606432025527
2.2679231278693606,24.13857700925376,-0.032318369629851566,1.554478692225767,-1.0875710033466075
2.2614694152742603,23.83025162860682,-0.03221875632115105,1.5287751142435888,-1.0498287828203239
2.2550403667721572,23.527014704033682,-0.03207172869988146,1.5035941314877876,-1.013722888348497
2.2486449631794794,23.228763631490153,-0.031882307226897194,1.4789165939475062,-0.97915118571196
2.242297184451633,22.935400911509625,-0.031595480051568405,1.4547106058577677,-0.9440840191594514
2.2360091853233874,22.646832538607946,-0.031284511230885895,1.4309731231590628,-0.9106155479882998
2.2297854843008937,22.36296647484931,-0.03095249899405067,1.407687514427312,-0.8786540068965772
2.2236300113544774,22.08371393298483,-0.030602230470114598,1.3848379042174725,-0.848113893253151
2.217546167021305,21.808989229588263,-0.030236212861610583,1.3624091297481897,-0.8189154718940188
2.211536875602019,21.538709646558367,-0.029856701331246446,1.340386700550783,-0.7909843242966272
2.205604633071768,21.272795300418743,-0.02946572397126223,1.3187567608454396,-0.7642509376949425
2.1997515502565808,21.011169018891273,-0.02906510418060879,1.2975060544292458,-0.7386503301870142
2.193979391764883,20.753756224260332,-0.02865648073637253,1.2766218918801862,-0.7141217083169302
2.188289611110039,20.500484823082438,-0.028241325812064955,1.2560921198987363,-0.6906081539920609
2.1826833824122476,20.251285101830128,-0.027820961165848805,1.2359050926244046,-0.6680563379309318
2.1771616290260716,20.00608962808981,-0.027396572695913196,1.2160496447787434,-0.6464162571326092
2.1717250494027254,19.764833156962027,-0.026969223537548197,1.1965150664991113,-0.6256409941200394
2.1663741404633123,19.527452542338214,-0.026539865856584,1.1772910797390042,-0.6056864959415806
2.1611092187300147,19.293886652752192,-0.026109351476389007,1.1583678161211888,-0.5865113711206695
2.1559304394363505,19.064076291526142,-0.025678441460252995,1.1397357961393124,-0.5680767029263591
2.1508378138145807,18.837964120950993,-0.02524781475744671,1.1213859096122123,-0.5503458775001093
2.1458312247379046,18.61549459025948,-0.02481807600931546,1.103309397302912,-0.5332844255191116
2.14091044087685,18.396613867167055,-0.024389762601229905,1.0854978336213479,-0.5168598762056835
2.1360751295130362,18.18126977277129,-0.023963351036908106,1.0679431103362804,-0.5010416226077055
2.1313248681390067,17.969411719614893,-0.023539262703387524,1.050637421227694,-0.4858007971782864
2.1266591549599045,17.76099065273049,-0.023117869087632414,1.0335732476163155,-0.47111015677524887
2.1220774184012114,17.555958993497686,-0.022699496499296628,1.0167433447117429,-0.45694397628382877
2.1175790257164397,17.354270586154,-0.022284430348424342,1.0001407287251227,-0.443277950140285
2.11316329077942,17.155880646811852,-0.02187291902177481,0.9837586646963757,-0.4300891011008454
2.108832265284466,16.960928720931385,-0.021437335927763847,0.9657605941082847,-0.45361597639570717
2.1045852920351673,16.76956526538634,-0.02103239656521962,0.9478739613421319,-0.47880920300809604
2.100416284984755,16.58176829252424,-0.020657673938903897,0.9300957672788767,-0.505559565338839
2.0963192510832265,16.39751640278879,-0.020312665076381305,0.9124231300756651,-0.533760248080895
2.09228830478297,16.216788761684096,-0.019996797926185365,0.8948532809712577,-0.5633066021249642
2.0883176812223847,16.039565077538867,-0.019709437679667523,0.877383560481036,-0.5940959152520772
2.084401748198858,15.865825579993608,-0.019449892555597485,0.8600114149715574,-0.6260271866781534
2.0805350170349977,15.695550999135737,-0.01921741908300691,0.8427343936071682,-0.6590009045188159
2.0767121524352588,15.528722545208645,-0.019011226914379637,0.8255501456637666,-0.6929188252392159
2.072927981424015,15.365321888821523,-0.01883048319806273,0.8084564182074588,-0.7276837541430584
2.069177501450641,15.205331141586917,-0.018674316535676836,0.791451054138606,-0.763199325937139
2.0654558877423415,15.048732837112592,-0.01854182054731521,0.7745319906046606,-0.7993697843821581
2.0617584999811687,14.895509912273297,-0.01843205706441201,0.7576972577882708,-0.8360997600069181
2.0580808883779973,14.745645688686427,-0.018344058967305083,0.7409449780804371,-0.8732940448207128
2.0544187992130976,14.599123854313174,-0.01827683268168987,0.7242733656520977,-0.9108573629071621
2.0507681799103956,14.455928445103819,-0.018229360345330244,0.7076807264414394,-0.9486941357212195
2.0471251837105093,14.31604382660182,-0.018200601653530154,0.6911654585785625,-0.9867082408387716
2.043486174006262,14.179454675416572,-0.01818949538894515,0.6747260532739281,-1.0248027628242466
2.0398477284035383,14.046145960468941,-0.018194960638291614,0.6583610962023937,-1.0628797347849634
2.0362066425701735,13.916102923906635,-0.018215897695357933,0.6420692694206704,-1.1008398690704704
2.032559933935998,13.789311061578282,-0.01825118864639568,0.6258493538628508,-1.1385822754497132
2.0289048453083156,13.665756102945359,-0.018299697630427315,0.6097002324663736,-1.1760041649573008
2.0252388484689527,13.545423990299764,-0.018360270763201268,0.5936208939895772,-1.2130005374412243
2.021559647821692,13.428300857141608,-0.018431735709402552,0.5776104375919998,-1.2494638506669848
2.0178651841624293,13.314373005556405,-0.018512900883226865,0.5616680782600368,-1.285283668636235
2.0141536386488585,13.203626882413037,-0.018602554252481526,0.5457931531736617,-1.3203462865611135
2.0104234370520193,13.096049054183176,-0.018699461715911213,0.5299851291249322,-1.3545343296983563
2.0066732543786907,12.99162618015906,-0.01880236501737389,0.5142436111162164,-1.387726322990804
2.002902019961582,12.89034498381886,-0.01890997915371333,0.49856835228579294,-1.4197962281902372
1.9991089231236532,12.792192222057174,-0.01902098922557568,0.4829592653310606,-1.4506129448487293
1.9952934195339092,12.69715465196153,-0.019134046671865232,0.4674164356253774,-1.4800397712730757
1.9914552383848352,12.605218994773601,-0.019247764818873546,0.45194013625390395,-1.5079338212499172
1.987594390536532,12.516371896625504,-0.019360713664159222,0.4365308452270687,-1.534145392085832
1.9837111777898384,12.430599885586034,-0.019471413802776106,0.42118926516764404,-1.558517279294134
1.9798062034706447,12.34788932448837,-0.019578329389162593,0.4059163458090001,-1.580884033138849
1.9758803845305732,12.268226358938705,-0.019679860011551687,0.390713309687658,-1.6010711522760765
1.9719349653957516,12.191596859823733,-0.01977433133666343,0.3755816814620798,-1.61889421000106
1.9679715338260806,12.117986359543508,-0.019859984360047857,0.3605233213401617,-1.6341579092430731
1.9639920390829912,12.047379981094764,-0.019934963070844705,0.34554046314729503,-1.6466550636346537
1.9599988127451478,11.979762359019013,-0.019997300307592603,0.33063575761023434,-1.656165503985039
1.9559945925601796,11.915117551111862,-0.02004490154208767,0.31581232146126964,-1.662454912699034
1.9519825497781547,11.853428939668802,-0.020075526278161913,0.3010737929693442,-1.6652735936664786
1.9479663204816413,11.794679120925945,-0.020086766686971,0.28642439445922574,-1.664355192723755
1.943950041511684,11.738849781254569,-0.020076023012603358,0.27186900225454624,-1.6594153951489115
1.9399383916944433,11.685921558606527,-0.020040475159803756,0.2574132242258745,-1.6501506435292341
1.935936639208426,11.635873887717448,-0.01997704970036645,0.24306348466491656,-1.6362369442562466
1.9319506961108535,11.588684827708484,-0.019882381275360735,0.22882711542472978,-1.6173288675234683
1.927987181285715,11.544330871067118,-0.019752766976024655,0.21471245098893416,-1.5930588993380181
1.9240534934208051,11.502786733658223,-0.01958411167307414,0.2007289231000254,-1.5630373823559351
1.9201578961241599,11.464025126607602,-0.01937186129337873,0.18688714740616494,-1.52685339619606
1.9163096180464634,11.428016512893887,-0.019110919483585273,0.1731989897310005,-1.484077092445717
1.9125189720412417,11.394728854692502,-0.0187955405686323,0.15967759228284378,-1.4342642352042876
1.9087974992270618,11.364127362519657,-0.018419187573166407,0.14633732944561337,-1.376964030176485
1.9051581467419236,11.33617426480426,-0.01797433727821318,0.1331936477083391,-1.3117317812505411
1.9016154927011837,11.310828627616832,-0.01745220312918785,0.12026272416593228,-1.2381485103598573
1.8981860395313825,11.288046269807982,-0.01684232856882226,0.10756085392255914,-1.155850389609011
1.8948886092963384,11.26777983896974,-0.016131973781620068,0.09510345445985696,-1.0645715230071744
1.8917448947813582,11.249979136354987,-0.015305171368181464,0.08290357168767491,-0.9642038636210822
1.888780252566984,11.234591796317616,-0.014341250775561806,0.07096982868604355,-0.8548768841294624
1.886024876706259,11.221564417692164,-0.01321250783168512,0.05930395756847505,-0.7370551009800665
1.8835155787750502,11.210844167587258,-0.01188047148040574,0.047898543480594406,-0.6116406504889347
1.8812985616212794,11.202380653137638,-0.01028970005730048,0.0367366010156026,-0.48004806495301544
1.8794339513813756,11.196127349107975,-0.008356402341737738,0.025796439281039432,-0.34419176781082395
1.8780040643204932,11.192040754659967,-0.005942468267086748,0.015069505199027576,-0.20630918125092704
1.8771331230122912,11.190071814021863,-0.002766944814934257,0.004619901182005179,-0.068563812317148
