x,y,v_x,v_y,omega
2.375,32.48,0.0,4.0,-5.428571428571429
2.3736553744355926,31.769527154642958,-0.014940284048972515,3.894142726189337,-5.028085960115964
2.3698486142125677,31.077654597281633,-0.02735705176241395,3.7933301333809175,-4.672279260279644
2.3639969502410314,30.403508431064743,-0.03766143681021163,3.697182824584544,-4.354751336263707
2.35645013434214,29.746279503031133,-0.04619207317747305,3.6053608202333596,-4.07018048078244
2.347502226703122,29.10521679799476,-0.05322912281161154,3.5175581246152205,-3.814117262964202
2.3374011261264265,28.479621723984977,-0.059005328040563354,3.433498253271271,-3.5828223090280766
2.326356316525371,27.86884313507561,-0.06371477863783338,3.3529305123883364,-3.373137634896499
2.3145451946452087,27.272272970257127,-0.06751990891952385,3.275626874483706,-3.182383905484283
2.3021182625987997,26.68934241161223,-0.07055711381835361,3.2013793326817885,-3.0082778844428404
2.28920340714442,26.1195184837659,-0.07294128011919447,3.129997643388559,-2.8488657200154663
2.275909440512185,25.562301030998547,-0.07476946023897388,3.0613073873598267,-2.702468734227131
2.2623290412945587,25.01722001966012,-0.07612386440131871,2.9951482941782452,-2.567639145090629
2.2485412057678227,24.48383312240187,-0.0770743081179712,2.931372786468981,-2.443123725572355
2.23461329803631,23.961723547826573,-0.07768022223217126,2.8698447088121224,-2.3278338387592523
2.220602770132949,23.45049808486664,-0.07799231002739557,2.810438212964869,-2.2208206218129387
2.2065586095804135,22.949785335842222,-0.07805391833410952,2.7530367761953243,-2.121254347785527
2.1925225610980577,22.459234115959156,-0.07790217591428808,2.69753233361656,-2.0284071931141
2.1785301605096845,21.97851200015432,-0.07756894173429975,2.6438245086593635,-1.9416387935367851
2.16461161199166,21.507304000816344,-0.07708159735486624,2.591819928429281,-1.860384092627763
2.1507925342353134,21.045311362105465,-0.0764637110489834,2.5414316128026817,-1.7841430828722293
2.1370945966000874,20.592250458447985,-0.0757355960090835,2.492578427835984,-1.712472115028613
2.123536062685295,20.14785178635009,-0.07491478082194632,2.445184595474022,-1.6449765118789876
2.110132255777444,19.71185904001348,-0.07401640704306545,2.3991792527105225,-1.581304270726824
2.0968959582023508,19.284028262380346,-0.07305356601352071,2.3544960543242905,-1.521140677756603
2.0838377546206557,18.864127064219762,-0.07203758489420321,2.3110728141266303,-1.464203688623673
2.0709663276678167,18.451933904717915,-0.07097827013733785,2.268851180338331,-1.4102399549479703
2.058288712988367,18.047237427771222,-0.06988411518988073,2.2277763412916203,-1.3590213969528158
2.0458105195957197,17.649835848822157,-0.0687624780617574,2.1877967581424316,-1.3103422392686461
2.0335361205603655,17.259536387636686,-0.06761973344217871,2.148863921696118,-1.2640164406579584
2.0214688182564173,16.87615474291137,-0.06646140326835646,2.110932130807377,-1.2198754597020793
2.0096109877513477,16.499514605027684,-0.06529226901019802,2.0739582901224956,-1.1777663077910216
1.9979642013838943,16.129447203648926,-0.06411646840594903,2.0379017251970275,-1.137549848447877
1.98652933712218,15.76579088718858,-0.06293757894643161,2.0027240132512856,-1.0990993083974496
1.975306672913154,15.408390731473716,-0.06175869004274622,1.9683888280249913,-1.0622989710948016
1.964295968913355,15.057098175188564,-0.060582465510575466,1.9348617973655868,-1.0270430278561244
1.953496539219666,14.711770679915436,-0.05941119775263655,1.9021103723358344,-0.993234565437962
1.942907314488981,14.372271412796941,-0.058246854810530185,1.870103706758553,-0.9607846720178576
1.9325268966407405,14.038468950027763,-0.05709112128103069,1.838812546232328,-0.9296116461429819
1.922353606670498,13.710236999548993,-0.05594543394388685,1.8082091257539905,-0.8996402954172921
1.9123855264614191,13.387454141465518,-0.05481101282365476,1.7782670751735208,-0.8708013135610714
1.9026205353600179,13.070003584839128,-0.05368888830302618,1.7489613317863577,-0.8430307260558133
1.8930563421792774,12.757772939628907,-0.05257992481631123,1.7202680594382995,-0.8162693959288561
1.8836905132039232,12.450654002657224,-0.051484841576514624,1.6921645735804087,-0.7904625823743376
1.8745204966967326,12.148542556575993,-0.050404230725605,1.6646292717666038,-0.7655595458817229
1.865543644339532,11.851338180894778,-0.04933857324329041,1.6376415691357986,-0.7415131943767329
1.856757229986333,11.558944074210771,-0.04828825290336387,1.6111818384642764,-0.7182797655939266
1.8481584660575816,11.271266886851805,-0.047253568527208224,1.5852313544131165,-0.6958185415137642
1.839744517862606,10.988216563207882,-0.0462347447502983,1.5597722416304736,-0.6740915912250149
1.8315125161011023,10.709706193085154,-0.04523194148862931,1.5347874263998462,-0.6530635390286965
1.823459567763078,10.435651871469346,-0.04424526226719887,1.510260591553565,-0.632701354993116
1.815582765619408,10.165972566133888,-0.043274761551355935,1.4861761343959705,-0.6129741655100964
1.8078842775381445,9.900591002140807,-0.04226399490712726,1.4625079099715887,-0.5924420402702125
1.8003655592212084,9.639432475339653,-0.041277319725496295,1.439253498930116,-0.5727700115741147
1.7930223174973463,9.382423734762352,-0.04031425498408288,1.4163991741510176,-0.553912457537871
1.7858503470979923,9.129493948545147,-0.039374305008739126,1.3939317838179262,-0.5358266330220178
1.778845532939826,8.88057460311417,-0.0384569634153283,1.3718387209707104,-0.5184724591650488
1.7720038517461818,8.635599407679525,-0.03756171651405236,1.350107894969771,-0.5018123303792772
1.7653213730980233,8.394504203706266,-0.03668804624326656,1.3287277047331063,-0.48581093719209606
1.7587942599939081,8.157226879054644,-0.03583543269134517,1.307687013618243,-0.4704351034806398
1.7524187689884787,7.923707286504158,-0.035003356257870606,1.286975125831604,-0.4556536367944733
1.7461912499703547,7.693887166396145,-0.03419129949906404,1.266581764257407,-0.44143719059140696
1.7401081456327239,7.467710073148364,-0.0333987486968318,1.2464970496068417,-0.42775813732778667
1.7341659906832727,7.245121305412095,-0.03262519518596187,1.2267114807961497,-0.4145904514483073
1.7283614108342564,7.026067839658193,-0.03187013646977495,1.2072159164694134,-0.40190960141301874
1.7226911216084013,6.81049826699299,-0.031133077150834923,1.188001557588403,-0.3896924499820121
1.7171519269918187,6.59836273301843,-0.030413529700085165,1.1690599310178118,-0.3779171620524128
1.7117407179611663,6.389612880563256,-0.029711015084940343,1.1503828740396698,-0.3665631194087539
1.7064544709088278,6.184201795123471,-0.02902506327437623,1.1319625197357248,-0.35561084180741553
1.7012902459868149,5.98208395286095,-0.028355213636878273,1.1137912831811516,-0.3450419138693638
1.6962451853874283,5.783215171018902,-0.027701015245194322,1.0958618483971443,-0.33483891730356313
1.6913165115763469,5.587552560621919,-0.02706202710015442,1.0781671560137909,-0.32498536802676914
1.6865015254917424,5.395054481336842,-0.026437818284341625,1.0607003915981585,-0.31546565778444896
1.6817976047211927,5.2056804983784914,-0.02582796805509738,1.0434549746057593,-0.30626499991278616
1.677202201666566,5.019391341351483,-0.025232065885200432,1.0264245479165497,-0.29736937891351406
1.6727128417056285,4.836148864926251,-0.02464971145855088,1.0096029679193574,-0.288765503542043
1.6683271213579016,4.655916011253506,-0.02408051462730362,0.9929842951111607,-0.2804407631353274
1.6640477172143184,4.4788763594437455,-0.02346842030139676,0.9741229472195063,-0.32092850868360284
1.6598742086835578,4.305222624118777,-0.022903896707052486,0.9553630008357192,-0.36254002633422494
1.6557981791095198,4.13493677829549,-0.022385320782260312,0.9367019527563509,-0.40517577574443137
1.6518115043812314,3.968001236840472,-0.02191106508761032,0.9181373967438548,-0.44873752465838757
1.6479063535221072,3.8043988392259465,-0.02147950001376914,0.8996670211953119,-0.4931281304832249
1.6440751889077494,3.644112832674363,-0.021088995701318926,0.8812886071556273,-0.5382513224184404
1.6403107661626315,3.487126855629416,-0.020737923688876937,0.8630000266770985,-0.5840114831642624
1.6366061337833597,3.3334249214907707,-0.020424658303032344,0.8447992415300908,-0.6303134292059661
1.6329546325339712,3.182991402548531,-0.020147577801284785,0.8266843022725704,-0.6770621886340108
1.6293498946569416,3.0358110140519443,-0.019905065276822717,0.808653347689511,-0.7241627754136732
1.6257858429421823,2.891868798344383,-0.019695509331613868,0.7907046046167364,-0.7715199589618673
1.622256689695369,2.7511501089937873,-0.019517304521868697,0.772836388167662,-0.8190380278222722
1.61875693564643,2.6136405948439823,-0.019368851577452988,0.7550471023857157,-0.8666205461517968
1.6152813688389778,2.479326183907766,-0.019248557394236948,0.7373352413500285,-0.9141701016407557
1.6118250635418887,2.348193067017199,-0.019154834795642735,0.719699390767378,-0.9615880433847287
1.608383379225173,2.2202276811400843,-0.019086102056753887,0.7021382300894522,-1.008774208106637
1.6049519596437536,2.0954166922639104,-0.0190407821812389,0.6846505352013829,-1.0556266329916593
1.6015267320748245,1.973746977739605,-0.01901730191797248,0.6672351817353304,-1.1020412532437085
1.5981039067571565,1.8552056079669619,-0.01901409050056267,0.6498911490718331,-1.147911582298694
1.5946799765841,1.7397798272913292,-0.019029578088954138,0.6326175251018543,-1.1931283724350479
1.5912517171061906,1.6274570339670866,-0.019062193887814983,0.615413511834181,-1.2375792533044345
1.5878161869042562,1.5182247590268432,-0.01911036391145565,0.598278431946296,-1.281148345663722
1.584370728399871,1.4120706438763655,-0.01917250835949385,0.5812117363923387,-1.3237158473221031
1.5809129691770014,1.308982416413091,-0.01924703856127726,0.5642130131996144,-1.36515758802419
1.5774408238968771,1.2089478654406172,-0.019332353440101955,0.5472819976056637,-1.405344549671472
1.5739524968976322,1.1119548131220647,-0.019426835440399512,0.5304185837115707,-1.4441423479427276
1.5704464855813007,1.0179910851811265,-0.01952884585217059,0.5136228378544101,-1.4814106710132025
1.566921584703488,0.9270444785202621,-0.019636719456857115,0.49689501393297697,-1.5170026707005402
1.563376891695707,0.839102725880192,-0.019748758407378664,0.4802355709566888,-1.550764300995684
1.559811813167264,0.7541534571125474,-0.019863225241985305,0.463645193128247,-1.58253359859015
1.5562260727529893,0.672184156577508,-0.01997833491662343,0.4471248128166542,-1.6121398997192233
1.5526197204953935,0.5931821161094284,-0.02009224572333082,0.4306756368286797,-1.6394029874522122
1.5489931439754836,0.517134382914918,-0.020203048942334406,0.41429917644367015,-1.664132163548137
1.5453470814359536,0.4440277016785714,-0.02030875705244199,0.39799728173793364,-1.6861252392648933
1.541682637174485,0.373848450051149,-0.020407290297209994,0.3817721807889916,-1.7051674402191352
1.538001299524245,0.30658256658293936,-0.020496461372122902,0.3656265244133764,-1.7210302217730995
1.5343049617844424,0.24221547004238175,-0.020573957959017734,0.3495634371483382,-1.7334699938104092
1.5305959465174088,0.1807319689285407,-0.020637322785801743,0.3335865752277123,-1.742226757648589
1.5268770336921298,0.12211615985025048,-0.02068393082840947,0.3177001923088089,-1.7470226639432256
1.5231514932302872,0.06635131331358224,-0.020710963192064287,0.30190921365416634,-1.747560509824411
1.5194231226039214,0.013419745346112677,-0.020715377100886626,0.2862193193177253,-1.7435222077202845
1.5156962902502205,-0.03669732668328152,-0.02069387127356809,0.27063703656440913,-1.7345672796400344
1.5119759857186938,-0.08401994567887527,-0.02064284574339571,0.25516984116444885,-1.7203314624494086
1.5082678776650735,-0.12856959534115475,-0.020558354852385607,0.239826266194179,-1.7004255567740094
1.5045783810804434,-0.17036940067630724,-0.02043605164350518,0.22461601530754077,-1.6744347217712934
1.5009147355355177,-0.20944434878257567,-0.020271121077892473,0.20955007476214352,-1.641918520522801
1.4972850967983413,-0.24582152879505514,-0.020058198224065942,0.19464081426540095,-1.602412171130962
1.493698645064899,-0.2795303874964361,-0.019791265480847208,0.17990206019441712,-1.555429677672075
1.4901657144200304,-0.3106029932549177,-0.019463519462137265,0.16534911489985457,-1.500469831083192
1.486697950345358,-0.3390742949148162,-0.01906719247867041,0.15099868132126557,-1.4370265177280261
1.4833085056548887,-0.36498235308391713,-0.018593304082100182,0.13686863166874902,-1.3646053886451313
1.4800122910717564,-0.3883685078021699,-0.018031302397148105,0.12297753186739302,-1.282749742301234
1.476826306251054,-0.4092774278622997,-0.017368528943988056,0.10934380213406938,-1.1910794030410836
1.473770092822359,-0.42775696324684986,-0.01658939804151278,0.09598436880537047,-1.0893471846759362
1.4708663768365633,-0.4438576969699355,-0.015674112911772436,0.08291267256224777,-0.9775175055664311
1.4681420100464468,-0.45763207853149623,-0.014596629200633024,0.07013601145507234,-0.8558692470305345
1.4656293884251546,-0.46913304896632724,-0.013321388813723913,0.05765254893196983,-0.7251169463659568
1.4633686455667307,-0.4784122003328406,-0.011797976279875689,0.045449132918203614,-0.5865265631143071
1.4614111598479973,-0.48551786274618536,-0.009951865039385038,0.033502671674551336,-0.44197211728905006
1.4598255652383458,-0.4904942845840736,-0.0076658528456307416,0.02179090430200629,-0.29384648279654635
1.4587099702302966,-0.49338498628682714,-0.004729647243805979,0.01032800350634177,-0.14473191918910205
1.4582305653527285,-0.49425321330175365,-0.0005970736180609965,-0.0006810366737968129,0.00315126100209448
