x,y,v_x,v_y,omega
2.375,32.48,0.0,2.3076923076923075,-3.224489795918368
2.3745763127556034,32.068421558198665,-0.004707636048849892,2.265401490100278,-3.07736527178602
2.3733521067096155,31.664350514583848,-0.008894653351018113,2.224276772286553,-2.9398275346285825
2.3714163141683735,31.267581882419247,-0.012614152662781016,2.184263585097923,-2.811041857054025
2.3688488373161563,30.87792018223347,-0.01591336791740934,2.145310861410708,-2.6902608964013983
2.3657215396969593,30.49517883840957,-0.01883438340700056,2.1073707366326464,-2.57681418501682
2.362099117330561,30.119179626710125,-0.021414753997428294,2.0703982822500673,-2.4700990422688887
2.358039865614832,29.749752167197858,-0.023688042844004685,2.034351267886208,-2.3695726946446394
2.3535963557760944,29.38673345776124,-0.025684288697524,1.9991899480762436,-2.2747454256557074
2.3488160326285006,29.029967444083375,-0.02743041294240834,1.9648768705666804,-2.1851746062492783
2.343741743722202,28.67930462242282,-0.028950574905348646,1.9313767034395115,-2.100459480231308
2.338412208542464,28.334601672024235,-0.030266482647298844,1.8986560787669533,-2.0202365988688555
2.3328624352225926,27.995721114359803,-0.031397665351270324,1.8666834508378598,-1.9441758151328306
2.3271240912158597,27.662530996729593,-0.0323617125013184,1.835428967275594,-1.8719767615983092
2.321225833505443,27.3349045980308,-0.03317448428109057,1.8048643515998892,-1.8033657473369493
2.3151936031922515,27.01272015474856,-0.033850296976589575,1.774962795980553,-1.7380930186161858
2.309050888668033,26.69586060543171,-0.03440208662583972,1.745698863095512,-1.6759303361863218
2.302818961038665,26.384213352100055,-0.03484155370047153,1.7170483961451168,-1.616668828651317
2.296517084996125,26.077670037189613,-0.03517929121664342,1.688988436193165,-1.5601170870950054
2.2901627079357043,25.776126334782656,-0.03542489834358196,1.6614971461063228,-1.5060994709455962
2.2837716297679793,25.479481754992552,-0.03558708129780903,1.6345537404503951,-1.454454599150115
2.2773581555746985,25.187639460482128,-0.03567374307197859,1.6081384207765572,-1.4050340042141802
2.2709352329973798,24.900506094190675,-0.035692063342673164,1.5822323157951443,-1.3577009296378992
2.264514576021188,24.617991617429965,-0.035648569726121515,1.5568174259904917,-1.3123292538258264
2.2581067766198273,24.34000915758572,-0.035549201400110295,1.5318765722789198,-1.2688025257343716
2.2517214055555606,24.066474864728722,-0.035399365980629316,1.507393348354374,-1.2270130993992046
2.245367103478615,23.797307776500528,-0.03520399042987884,1.4833520764033412,-1.1868613561043748
2.2390520560586493,23.53243128563294,-0.03496320312529548,1.4597200443476313,-1.1470689659091657
2.2327829645928747,23.271771353901407,-0.03469336871664621,1.4365014193360568,-1.1089544104601292
2.2265647700280247,23.01525480651997,-0.034397682003910565,1.4136824404577268,-1.072428133562301
2.2204018644875343,22.762810893383396,-0.03407904622375898,1.3912499277264039,-1.0374062591484066
2.2142981413370704,22.51437118730428,-0.03374009989250678,1.369191250930434,-1.0038101732654354
2.20825704065347,22.269869487677152,-0.0333832410363842,1.3474943004821223,-0.9715661409590138
2.2022815905428983,22.029241729223344,-0.03301064908107853,1.326147460115737,-0.9406049548007124
2.1963744447078066,21.792425895496248,-0.03262430464216235,1.3051395812964528,-0.9108616121384945
2.190537916621195,21.559361936850273,-0.032226007431304826,1.2844599592143517,-0.8822750184478729
2.1847740106301123,21.32999169259864,-0.0318173924696079,1.2640983102482701,-0.8547877144255883
2.1790844502777724,21.104258817104842,-0.031399944778616816,1.244044750793908,-0.8283456247027624
2.1734707041045906,20.88210870957105,-0.030975012701178035,1.2242897773593424,-0.8028978262639848
2.1679340091625594,20.6634884473032,-0.030543819988057965,1.2048242478389815,-0.7783963348457025
2.1624753924541693,20.448346722248118,-0.0301074767718327,1.185639363884169,-0.7547959077542375
2.157095690486394,20.236633780611978,-0.029666989536786193,1.1667266542951604,-0.7320538616930657
2.1517955671116837,20.028301365382553,-0.029223270182214916,1.1480779593651167,-0.7101299043226807
2.1465755298113027,19.8233026615896,-0.02877714426645996,1.1296854161121588,-0.6889859783962093
2.1414359445614193,19.621592244148864,-0.02832935851002264,1.1115414443404465,-0.6685861174214884
2.1363770494089853,19.423126028145408,-0.02788058762813653,1.0936387334757385,-0.6488963118969394
2.1313989668724083,19.227861221421342,-0.027431440556052667,1.0759702301249905,-0.6298843852554715
2.1265017152712082,19.035756279341896,-0.026982466123945562,1.0585291263133128,-0.6115198787288884
2.1216852190791124,18.846770861621742,-0.02653415823267727,1.0413088483550377,-0.5937739444157805
2.116949318386278,18.660865791101095,-0.02608696057658812,1.0243030463188088,-0.5766192458995052
2.11229377754844,18.47800301436795,-0.025641270954948007,1.0075055840494902,-0.5600298658203012
2.107718293093627,18.29814556412938,-0.025197445209641078,0.990910529712357,-0.5439812198575159
2.10322491478134,18.12148385619173,-0.02472898048243653,0.9719973362615487,-0.5780304733310635
2.098812594312907,17.94821710951081,-0.024296802500152172,0.953188737970893,-0.6133274749017484
2.0944748945768747,17.77832673154071,-0.023899861233539838,0.9344821283636019,-0.6497676174645194
2.09020557074316,17.611794589553817,-0.023537070252183222,0.9158750048240503,-0.6872477301478475
2.085998576460587,17.448602992175,-0.023207310665295803,0.8973649660517055,-0.7256658530494191
2.081848069380043,17.288734671341096,-0.022909434674076922,0.8789497098805613,-0.7649210127225643
2.0777484160711994,17.132172764619938,-0.02264226875751736,0.8606270314656523,-0.804912997435602
2.0736941963970494,16.978900797822327,-0.02240461651081654,0.8423948218411367,-0.8455421311990821
2.069680207407315,16.828902667839444,-0.022195261152901425,0.82425106685754,-0.8867090455205346
2.065701466809033,16.682162625636447,-0.02201296771689754,0.8061938465090935,-0.9283144478022847
2.061753216070383,16.538665259330713,-0.021856484934769747,0.7882213346657269,-0.9702588852445215
2.057830923212031,16.398395477280257,-0.021724546824698265,0.7703317992282525,-1.0124425030524162
2.053930285338973,16.261338491104045,-0.02161587398705553,0.7525236027296641,-1.0547647956718533
2.0500472309650517,16.127479798551445,-0.021529174612072318,0.7347952034103472,-1.097124349692374
2.0461779221820198,15.996805166132475,-0.021463145199394733,0.7171451568004445,-1.139418576957226
2.0423187567252707,15.869300611414047,-0.02141647098670221,0.6995721178487452,-1.181543436307902
2.0384663699891465,15.744952384879667,-0.021387826081342824,0.6820748436443672,-1.223393142263077
2.0346176370461304,15.623746951240996,-0.021375873285503146,0.6646521967853336,-1.264859858788243
2.0307696747262804,15.505670970079183,-0.021379263601719645,0.6473031494570288,-1.3058333761514067
2.0269198438159903,15.390711275681621,-0.021396635401504948,0.6300267882936574,-1.3462007686808608
2.0230657514386645,15.278854855925527,-0.02142661323544683,0.6128223201073921,-1.3858460310423266
2.0192052536842295,15.17008883004338,-0.021467806258275452,0.5956890785831245,-1.4246496904341073
2.015336458559654,15.06440042508623,-0.021518806237010905,0.57862653205187,-1.462488391860223
2.0114577293389346,14.961776950878974,-0.02157818510431435,0.5616342924732105,-1.499234453383644
2.0075676883984235,14.862205773236457,-0.021644492012476205,0.5447121257769897,-1.5347553879868434
2.003665221632063,14.765674285180186,-0.021716249835972812,0.527859963737153,-1.568913388379075
1.9997494835512382,14.672169875861957,-0.021791951062080376,0.511077917576488,-1.6015647707960987
1.995819903185696,14.581679896862337,-0.021870052999500664,0.4943662935304234,-1.6325593735498378
1.9918761909155678,14.49419162548778,-0.021948972224146164,0.4777256106313136,-1.6617399058201097
1.9879183463801904,14.409692224639883,-0.022027078168934115,0.46115662101199784,-1.6889412419645244
1.9839466676274524,14.328168698772597,-0.022102685750376504,0.4446603330689736,-1.7139896564949932
1.9799617616881466,14.249607845387995,-0.022174046908578503,0.4282380378710557,-1.7367019948875608
1.9759645567837083,14.17399620144726,-0.022239340918514112,0.41189133924824095,-1.7568847756402803
1.9719563164032756,14.10131998399076,-0.022296663308514673,0.39562218804621785,-1.7743332195932706
1.9679386555178768,14.031565024169229,-0.022344013195916477,0.3794329210818915,-1.7888302036520112
1.9639135592365777,13.964716693787672,-0.022379278818518738,0.3633263053798589,-1.800145137963786
1.959883404252726,13.900759823356356,-0.0224002210020549,0.34730558830142044,-1.8080327686555682
1.9558509834795479,13.839678610532637,-0.02240445425548112,0.3313745541843534,-1.812231912980634
1.951819534335465,13.781456517729367,-0.022389425123218534,0.3155375880742179,-1.8124641409088929
1.947792771213795,13.726076157571178,-0.022352387339780847,0.2997997470167543,-1.808432427944019
1.9437749227637098,13.673519164816149,-0.02229037321672155,0.2841668391502373,-1.799819819869497
1.9397707747267496,13.623766053355133,-0.022200160527280716,0.268645510416615,-1.786288173549356
1.9357857192271655,13.576796056998095,-0.022078233912542093,0.25324333799491644,-1.7674770722166415
1.9318258116228506,13.532586953023419,-0.02192073946873319,0.23796892839036746,-1.7430030637534524
1.9278978363154278,13.491114868005724,-0.021723430613742475,0.22283201625069934,-1.7124594433089928
1.9240093833397949,13.452354066406013,-0.021481602448846348,0.20784355707941177,-1.6754169071784604
1.9201689381810856,13.416276724037068,-0.021190010425699908,0.19301580257554118,-1.6314255570788636
1.9163859882251129,13.382852691145732,-0.020842766862888166,0.17836234066151385,-1.580018951592968
1.9126711507415433,13.352049253963717,-0.020433205176772568,0.16389807247197938,-1.52072120851225
1.9090363296635706,13.323830909822455,-0.01995369568958994,0.1496390846531724,-1.453058584933803
1.905494912214348,13.298159180121058,-0.019395387079548715,0.13560235647348157,-1.3765775223752685
1.9020620225341383,13.274992498429505,-0.018747831589450273,0.12180521787709933,-1.290871833178801
1.8987548593207062,13.254286228258962,-0.017998426337571805,0.10826445068446677,-1.1956224257977983
1.8955931603825085,13.235992885499634,-0.017131561864627005,0.09499491330808643,-1.0906534118855662
1.8925998624754385,13.2200626592156,-0.016127303769482824,0.08200760095896134,-0.9760078505701689
1.8898020655286514,13.206444327582169,-0.01495932897259559,0.06930719496804777,-0.8520431972423227
1.8872324765853554,13.195086622477739,-0.013591659286249093,0.056889528414521315,-0.7195380684807946
1.8849316246560843,13.185939948044858,-0.011973362150096565,0.04474018750636406,-0.5797850912001665
1.8829513812803662,13.17895800647051,-0.010029342024549519,0.03283694109752948,-0.4346193008169428
1.881361006409622,13.174098137755266,-0.007641489872607751,0.021161600182937952,-0.28630804343686933
1.8802596459014893,13.171317259496089,-0.004595849106644522,0.009737047141260658,-0.13723062879425071
1.879817598490014,13.170549394777346,-0.0003157887986356767,-0.0012052169330010031,0.010584801653331394
