x,y,v_x,v_y,omega
2.375,32.48,0.0,3.8974358974358974,-4.6938775510204085
2.3731230716658827,31.59790263311746,-0.01632111594884786,3.7729759884992036,-4.267445789804969
2.367878834117082,30.743587441613005,-0.02928094969289463,3.6558517637134327,-3.8999363989820175
2.3599634034764008,29.915444104357984,-0.03954888196520243,3.545394647199797,-3.5810108161164154
2.3499354499728646,29.112006522452564,-0.047650713717721206,3.441019108499533,-3.3024474584105494
2.338245360430678,28.331935266636393,-0.05400223882303586,3.3422092029454102,-3.057653680502303
2.3252576610920515,27.574002802857727,-0.058934277165018034,3.2485078733908397,-2.8413019861865445
2.311268394234528,26.837080940497458,-0.06271152159605763,3.1595083210462795,-2.6490559738542934
2.2965186812789704,26.12013008356815,-0.06554685193052984,3.074846956599858,-2.477361875585471
2.2812053795872784,25.422189961991037,-0.06761229321461483,2.994197578853311,-2.3232885719907093
2.265489507192002,24.742371590488126,-0.06904746674431286,2.9172665211720035,-2.1844037920379025
2.249502941043144,24.07985025488007,-0.06996615194140689,2.8437885710719555,-2.058677572904774
2.2333537709883524,23.433859365027246,-0.07046141375243568,2.7735235146047725,-1.9444064319276884
2.217130600615497,22.803685043901645,-0.07060963296804362,2.7062531908352545,-1.8401534009692913
2.200906018258819,22.18866134580385,-0.07047369187263368,2.64177896653687,-1.7447002997095915
2.1847394105638682,21.58816601526943,-0.07010550547476561,2.579919559849384,-1.6570095183375324
2.16867925252127,21.001616712969202,-0.06954804272173998,2.5205091558047754,-1.57619323777202
2.1527649785856937,20.42846764678457,-0.06883694802240224,2.4633957675398377,-1.5014885034080117
2.1370285170562413,19.868206555882473,-0.06800184788587879,2.408439805521865,-1.4322369331414424
2.121495552600718,19.320352003508326,-0.0670674082491092,2.3555128238185516,-1.367868115154559
2.106186568402611,18.78445094072469,-0.0660541934735583,2.3044964177783265,-1.3078859593021899
2.091117708964935,18.260076508726627,-0.06497936685405956,2.2552812517700467,-1.2518574250035541
2.076301496424346,17.74682605187698,-0.06385726393366856,2.207766199096416,-1.1994031707345527
2.061747426790119,17.244319317393586,-0.06269986332048301,2.161857579020062,-1.1501897646378698
2.0474624674311093,16.752196820818025,-0.061517174583947225,2.1174684781587243,-1.1039231691464122
2.033451473089903,16.27011835910658,-0.060317558817845535,2.0745181454190607,-1.0603432698484108
2.0197175344777083,15.797761655492334,-0.059107994331673734,2.0329314512265633,-1.0192192638505708
2.006262270920185,15.334821122240864,-0.05789429747287853,1.9926384031340272,-0.9803457584353494
1.9930860764473022,14.88100672911525,-0.05668130663914455,1.953573711001743,-0.9435394589928568
1.980188327044044,14.436042966824097,-0.05547303599788448,1.9156763958778404,-0.9086363476616123
1.9675675554211027,13.99966789598588,-0.05427280420160441,1.878889437497961,-0.8754892720794702
1.9552215985613008,13.571632273234236,-0.05308334240536686,1.8431594559945776,-0.843965878084017
1.9431477223977254,13.151698747037397,-0.05190688510398586,1.8084364239779402,-0.8139468318512767
1.9313427272435608,12.739641116631422,-0.0507452466713592,1.7746734056392337,-0.7853242863983428
1.919803036989701,12.33524364818918,-0.0495998859708984,1.7418263199454636,-0.7580005550490252
1.908524774589239,11.938300442979525,-0.04847196098964052,1.7098537253558774,-0.7318869607242625
1.8975038259377928,11.548614852826542,-0.04736237510989241,1.678716623800478,-0.7069028350485398
1.886735893919233,11.165998938667546,-0.04627181635584526,1.648378281929931,-0.6829746454793932
1.8762165441047782,10.790272968439496,-0.04520079072637053,1.6188040678792077,-0.6600352321436358
1.8659412433591998,10.421264950904554,-0.044149650539528254,1.589961301989863,-0.6380231389401231
1.855905392412582,10.0588102023628,-0.04311861856149632,1.5618191201123588,-0.6168820258558689
1.8461043532928607,9.70275094349952,-0.042107808566516254,1.5343483482639777,-0.5965601514293712
1.8365334723776485,9.35293592388059,-0.04111724287011048,1.507521387552792,-0.5770099159540286
1.8271880997090881,9.009220071846425,-0.04014686729128508,1.481312108396472,-0.5581874574036653
1.8180789198630922,8.671465355949369,-0.03906339223911224,1.4556854211431347,-0.5361541577984523
1.80921533550694,8.339539202712935,-0.038011254336123845,1.4306289548258568,-0.5152375256055864
1.8005902229958677,8.013313030669455,-0.03698972402102796,1.4061203672913574,-0.49536663318856217
1.7921966297982102,7.692663267133781,-0.0359980429151252,1.3821384460623134,-0.4764759123540835
1.7840277800947462,7.377471096582948,-0.03503543276716834,1.358663036988419,-0.4585046857020279
1.7760770784870643,7.067622224830522,-0.03410110295180647,1.3356749782500739,-0.44139674437160614
1.768338112122999,6.763006657818032,-0.03319425673571665,1.3131560392498567,-0.42509996706710934
1.7608046515016151,6.463518493947436,-0.03231409649370994,1.2910888639727056,-0.40956597586722665
1.7534706501813695,6.169055728970381,-0.03145982803016442,1.269456918436464,-0.39474982486056603
1.7463302435819954,5.879520072532749,-0.030630664138304925,1.2482444418907612,-0.3806097181183983
1.7393777470423868,5.594816775548029,-0.029825827510465773,1.2274364014546189,-0.36710675392366365
1.7326076532726435,5.314854467640849,-0.029044553095997714,1.2070184499121606,-0.3542046925313381
1.726014629317816,5.039545003963596,-0.02828608998945901,1.186976886411767,-0.3418697450464897
1.719593513133253,4.768803320744954,-0.027549702919784234,1.1672986198372861,-0.3300703812788718
1.7133393098563703,4.502547298979973,-0.02683467340093431,1.1479711346408217,-0.3187771546718874
1.7072471878467423,4.240697635717556,-0.026140300595830387,1.1289824589454034,-0.30796254261368916
1.7013124745553592,3.983177722443415,-0.025465901937937147,1.1103211347427748,-0.29760080062285615
1.6955306522744191,3.7299135300949153,-0.024810813548498865,1.0919761900267764,-0.2876678290638051
1.6898973538109137,3.480833500279431,-0.0241743904819837,1.0739371127165744,-0.2781410511906641
1.6844083581203089,3.235868442299836,-0.023556006827623224,1.056193826236422,-0.2689993014452026
1.6790595859306752,2.9949514356202087,-0.022955055690930613,1.038736666629894,-0.260222723046667
1.6738470953825189,2.758017737431647,-0.022370949075645182,1.0215563610967293,-0.2517926740108428
1.6687670777052057,2.5250046950028135,-0.021803117683600846,1.0046440078496575,-0.24369164082391892
1.6638158529471312,2.295851662522452,-0.02125101064748135,0.9879910571969772,-0.2359031590751396
1.6589944605903937,2.070601955335839,-0.02067414028067045,0.9707020487735656,-0.24621873433423622
1.6543022751979617,1.8493142045073157,-0.020127471827434625,0.9535392627788086,-0.25882145605760287
1.6497323258922183,1.6319598107267197,-0.019611217787724216,0.9364989440089677,-0.2735853692463847
1.6452776083138798,1.418511020777835,-0.01912545680652279,0.9195774903291616,-0.290388560052701
1.6409311140348508,1.2089408931641756,-0.018670145619816825,0.902771445441791,-0.3091128621964974
1.6366858573351546,1.003223265336068,-0.018245130029716,0.8860774921939374,-0.32964357517154463
1.632534899558752,0.8013327223983921,-0.017850154982480094,0.8694924463945394,-0.35186919304104936
1.6284713712468037,0.6032445671847491,-0.017484873817071707,0.853013251115396,-0.37568114267457997
1.62448849223203,0.40893479158936685,-0.01714885674617732,0.8366369714531364,-0.40097353032105515
1.6205795898641864,0.21838004905304587,-0.0168415986263754,0.820360789732266,-0.4276428954476771
1.6167381155241913,0.03155762810362006,-0.016562526069234515,0.8041820011322863,-0.455587970802105
1.6129576595730652,-0.15155457314493503,-0.01631100394055647,0.788098009724708,-0.48470944767496044
1.6092319648714706,-0.3309780716277615,-0.016086341290700933,0.7721063249085782,-0.5149097453519572
1.6055549389962263,-0.5067338231893785,-0.01588779675490331,0.7562045582359481,-0.5460927837494957
1.6019206652716629,-0.6788422457579912,-0.015714583458692484,0.7403904206215515,-0.5781637582242991
1.598323412726025,-0.8473232419218633,-0.01556587345989673,0.7246617199338882,-0.6110289155363643
1.5947576450762817,-1.0121962209955768,-0.015440801755262999,0.7090163589679417,-0.6445953299248168
1.591218028838643,-1.1734801206642302,-0.015338469876375167,0.6934523338029571,-0.6787706782277744
1.5876994406567844,-1.331193428295066,-0.015257949096309705,0.677967732552106,-0.7134630129394947
1.5841969739352013,-1.485354202007727,-0.015198283265280804,0.6625607345145268,-0.7485805320502792
1.5807059448613017,-1.6359800915974816,-0.015158491290368867,0.6472296097442102,-0.7840313444560619
1.577221897896714,-1.7830883594093407,-0.015137569271262809,0.6319727190545674,-0.8197232296544539
1.5737406108159335,-1.9266959012660863,-0.015134492300742389,0.6167885144823572,-0.8555633903612392
1.5702580993687836,-2.0668192675591612,-0.015148215935344149,0.6016755402400381,-0.8914581965847924
1.5667706216423198,-2.2034746846188042,-0.015177677338252924,0.5866324341916707,-0.9273129195843507
1.5632746821977377,-2.3366780764886954,-0.015221796092896365,0.5716579298943256,-0.9630314540101499
1.559767036058631,-2.466445087240835,-0.015279474681944119,0.5567508592547139,-0.9985160263776399
1.5562446926286346,-2.592791103978982,-0.015349598622373072,0.5419101558595892,-1.0336668878627717
1.5527049196191287,-2.7157312806934186,-0.015431036242896042,0.5271348590485796,-1.0683819892191324
1.5491452470713865,-2.8352805631471227,-0.015522638085297207,0.5124241188096936,-1.1025566354089766
1.5455634715623874,-2.9514537149932067,-0.015623235905998886,0.4977772015910648,-1.1360831173076535
1.5419576606896297,-3.0642653453470317,-0.015731641248416573,0.4831934971378327,-1.1688503175836347
1.5383261579377834,-3.1737299380631683,-0.015846643550246637,0.4686725264807323,-1.2007432875740627
1.5346675880390985,-3.2798618829991355,-0.015967007742664283,0.45421395122333835,-1.2316427916693475
1.5309808629503006,-3.382675509584132,-0.016091471290362237,0.439817584298393,-1.261424815392439
1.5272651885814956,-3.4821851230533767,-0.01621874061228733,0.42548340239067306,-1.2899600330143106
1.5235200724276265,-3.5784050437576127,-0.016347486812661766,0.41121156025488453,-1.3171132301961688
1.5197453322705468,-3.671349650014072,-0.016476340640206172,0.3970024071925691,-1.342742676806215
1.5159411061402035,-3.761033425030341,-0.01660388658016863,0.3828565059923748,-1.3666994447484448
1.5121078637471057,-3.847471008508073,-0.016728655968508036,0.3687746546835763,-1.3888266653998558
1.508246419625727,-3.930677253619585,-0.016849119000003424,0.35475791150346647,-1.408958721136305
1.5043579482603344,-4.010667290148987,-0.016963675481672113,0.3408076235347939,-1.4269203655193803
1.5004440015016547,-4.08745659470128,-0.017070644159019554,0.32692545952863117,-1.4425257671405982
1.496506528625712,-4.161061069008255,-0.017168250414396007,0.3131134474885479,-1.4555774730575206
1.4925478994362364,-4.231497127499111,-0.017254612102782237,0.29937401764931854,-1.465865289477838
1.4885709308708146,-4.298781795454737,-0.017327723248712415,0.2857100515300246,-1.4731650802478335
1.4845789176404978,-4.362932819223623,-0.01738543527578264,0.27212493776466173,-1.4772374883632458
1.480575667515931,-4.423968790136719,-0.017425435372623994,0.2586226353926758,-1.477826593001064
1.4765655419745545,-4.48190928390423,-0.01744522150890863,0.2452077451943752,-1.474658525734696
1.4725535030496941,-4.536775017386027,-0.017442073489878016,0.2318855894299745,-1.4674400865084676
1.4685451673836516,-4.588588024659536,-0.01741301925831668,0.21866229990485872,-1.4558574253667826
1.464546868699534,-4.637371854202399,-0.01735479538618567,0.20554491351134907,-1.4395748939278032
1.460565730196803,-4.683151788662094,-0.017263800289736425,0.19254147309467273,-1.4182342271563548
1.456609748786566,-4.725955087944662,-0.017136038060150693,0.17966112936246742,-1.391454299912977
1.452687893685909,-4.765811254979745,-0.01696704977164852,0.1669142361600173,-1.358831826783931
1.4488102228056614,-4.802752321141838,-0.016751827447895894,0.15431242611903542,-1.3199435559816377
1.4449880217938431,-4.836813144383015,-0.01648470308965387,0.14186864554338616,-1.2743507736191892
1.4412339728767862,-4.8680317068712995,-0.016159200536929815,0.12959711522429962,-1.221607315586896
1.4375623643436075,-4.896449389250442,-0.01576783018636338,0.11751316633345511,-1.1612728165543293
1.4339893576088574,-4.92211118419867,-0.01530179359407211,0.10563287669461104,-1.0929336348953806
1.430533338864855,-4.945065791446289,-0.014750543310297286,0.09397240371946812,-1.0162347532293259
1.4272153990325087,-4.965365509466295,-0.01410110740575623,0.08254688341101551,-0.930926790445812
1.4240600132953243,-4.983065808759051,-0.013337029439325871,0.07136876261292334,-0.8369325267687522
1.4210960368132812,-4.998224450042059,-0.012436679100179591,0.06044550941326761,-0.734435714843565
1.4183582079318904,-5.010900029400972,-0.011370528564087561,0.04977691979468865,-0.623988767368492
1.4158894786733978,-5.021149959823006,-0.010096682379326982,0.03935290996211156,-0.5066210837150218
1.413744746245905,-5.029028260338855,-0.008553164816262608,0.029154051045262898,-0.3839032258496383
1.4119972225576434,-5.0345843471163505,-0.006642693342534164,0.019159747019889737,-0.257889877145086
1.4107511719817287,-5.03786602278543,-0.004192529056724514,0.009376563145988354,-0.130851069675058
1.4101803844558656,-5.038939313076327,-0.0007708407333890028,-4.360409472680196e-05,-0.004776317822420328
