x,y,v_x,v_y,omega
2.375,32.48,0.0,3.7435897435897436,-3.959183673469388
2.37397333391733,31.77804065079913,-0.010807011396525424,3.645456037471986,-3.67026519267982
2.3710656921387345,31.094291048503848,-0.0197997441676397,3.5519081972152162,-3.413180308893711
2.3665939222796997,30.427911704794028,-0.0272715175064088,3.4626112102566,-3.1834235832972544
2.3608240098599786,29.77812363189903,-0.03346440270118081,3.377263241269666,-2.977238805226455
2.3539798846142364,29.144202444018347,-0.03857902093821293,3.2955913680006628,-2.791478022802369
2.3462505594505214,28.52547320314572,-0.04278229657457702,3.2173480096059706,-2.6234899859621517
2.3377959464767706,27.921305890850405,-0.04621362946490657,3.1423079092920845,-2.4710312812313036
2.3287516172441194,27.33111141071961,-0.04898983614194584,3.07026556576889,-2.3321951052658254
2.319232715839347,26.75433804394175,-0.05120912601355293,3.001033031892825,-2.205353845193017
2.309337188786802,26.190468294340274,-0.052954316644817444,2.934438016543742,-2.0891125366276824
2.2991484613660473,25.63901607005998,-0.05429544567891211,2.870322239038282,-1.982270943898984
2.288737663353544,25.099524157782398,-0.05529190182112452,2.8085399954626165,-1.8837925138667893
2.278165486475205,24.57156195232734,-0.05599417058244586,2.7489569040643054,-1.792778838983388
2.2674837396195295,24.0547234101676,-0.056445270003611596,2.6914488028803194,-1.7084485586936755
2.2567366550686256,23.54862520002888,-0.05668193579537553,2.6359007775272443,-1.6301198538365747
2.2459619888745417,23.052905027582838,-0.056735603089721115,2.582206300852168,-1.5571958631966039
2.2351919504481277,22.567220114431016,-0.05663322245147573,2.530266469167019,-1.4891524871222646
2.224453989985029,22.091245814247905,-0.05639794031798392,2.4799893222341054,-1.4255281493578833
2.213771467181401,21.624674351200206,-0.056049668141257385,2.4312892361627356,-1.365915171793054
2.203164220522853,21.167213667663635,-0.05560555984345901,2.384086380011706,-1.3099524828877784
2.192649053056195,20.718586369879432,-0.055080413489787254,2.3383062282430567,-1.2573194329981494
2.182240147812876,20.2785287615783,-0.054487010124094154,2.2938791222951957,-1.2077305316921356
2.1719494238186523,19.846789956789465,-0.05383640034141776,2.250739875481978,-1.1609309556960359
2.1617868417961357,19.423131064078447,-0.0531381472640208,2.2088274162129666,-1.1166927031130442
2.15176066716657,19.00732443534459,-0.052400533047198064,2.168084465196062,-1.0748112913722558
2.141877696721759,18.59915297308035,-0.051630734792918555,2.1284572428485546,-1.0351029140627772
2.1321434543166595,18.198409490665476,-0.05083497473444339,2.089895203623829,-0.9974019862150705
2.1225623600878136,17.804896120855833,-0.05001864872709404,2.052350794372393,-0.9615590193635616
2.1131378770004776,17.4184237681406,-0.04918643640275444,2.0157792342090444,-0.927438777376326
2.103872637942217,17.03881160109284,-0.048342395789465316,1.9801383136621091,-0.8949186719776174
2.0947685560919633,16.665886581236315,-0.04749004473951908,1.945388211143414,-0.8638873634418693
2.085826920884231,16.29948302530218,-0.046632431131348615,1.9114913250053622,-0.8342435373628138
2.0770484815444963,15.939442198059982,-0.04577219349743982,1.8784121196493395,-0.8058948329062727
2.0684335198825323,15.585611933182694,-0.04491161347060145,1.8461169843221077,-0.7787569017070177
2.0599819137864874,15.237846279850285,-0.04405266122460662,1.8145741033874705,-0.752752579703668
2.0516931926542012,14.896005173014196,-0.04319703490471971,1.7837533369924172,-0.7278111568300203
2.043566585823452,14.559954125439457,-0.04234619489264207,1.7536261111627327,-0.7038677316851139
2.035601064914388,14.229563939814831,-0.041501393623823386,1.7241653164649293,-0.6808626401599429
2.027795380871097,13.904710439376853,-0.040663701568708556,1.6953452144611472,-0.6587409485650375
2.02014809638158,13.58527421563306,-0.039834029899896296,1.6671413512629902,-0.6374520031285255
2.012657614263391,13.271140391894832,-0.039013150291565185,1.6395304775604653,-0.6169490288584987
2.0053222023235038,12.962198401442965,-0.03820171223356151,1.6124904745644357,-0.5971887717193157
1.9981400151334239,12.658341779250495,-0.03740025818833369,1.5860002853562893,-0.5781311788859538
1.9911091131026102,12.359467966278814,-0.036609236872861994,1.5600398511877194,-0.5597391125361116
1.984227479183375,12.065478125445832,-0.03582901490856233,1.5345900523173612,-0.5419780932351154
1.97749303349743,11.776276968439717,-0.03505988704875228,1.5096326530101685,-0.5248160694792944
1.9709036461371472,11.491772592619512,-0.034302085164752194,1.4851502503604077,-0.5082232104023559
1.9644626686020343,11.21187703975447,-0.0334976783627522,1.461118727166351,-0.4905988024443217
1.958172752350741,10.936505395324428,-0.03271196638770386,1.4375301615709297,-0.47374435597139747
1.9520303720201604,10.665574942231544,-0.03194466867103857,1.4143693446699503,-0.4576173995262444
1.9460320579750716,10.39900579006284,-0.031195479172002605,1.3916217307900822,-0.4421782473419741
1.940174400686864,10.13672075253427,-0.030464071230181446,1.3692734010896042,-0.42738978750148504
1.9344540542511452,9.87864523162547,-0.029750101777383988,1.3473110295293458,-0.41321728835825444
1.9288677391583011,9.624707107971869,-0.029053214989397246,1.3257218510348563,-0.39962822146254
1.9234122444167652,9.374836637113372,-0.028373045447822244,1.3044936316861633,-0.38659209942292594
1.9180844291162613,9.128966351228577,-0.027709220873272218,1.283614640785347,-0.3740803272976528
1.9128812235073713,8.887030966010823,-0.027061364483464002,1.2630736246647072,-0.3620660662558859
1.9077996296642574,8.648967292367256,-0.0264290970229994,1.2428597821096707,-0.3505241083783215
1.9028367217890236,8.41471415264515,-0.025812038505776295,1.222962741280912,-0.3394307615813148
1.8979896462089172,8.184212301110659,-0.02520980970586959,1.203372538029531,-0.3287637437507939
1.8932556211111733,7.957404348424625,-0.02462203342827775,1.1840795955076568,-0.3185020852631118
1.8886319360547168,7.734234689877859,-0.02404833558705367,1.1650747049846084,-0.308626039151019
1.8841159512930261,7.5146494371646675,-0.02348834611495359,1.1463490077858083,-0.2991169982452642
1.8797050969381564,7.298596353488598,-0.022941699725779436,1.1278939782780961,-0.2899574186869634
1.8753968719921472,7.086024791808235,-0.022408036548002833,1.1097014078309764,-0.28113074926370185
1.8711888432687174,6.876885636043866,-0.0218870026459941,1.091763389688712,-0.27262136607412996
1.8670786442252443,6.671131245077593,-0.021378250443195884,1.074072304693099,-0.2644145120722534
1.8630639737224557,6.468715399390629,-0.02088143905984171,1.0566208078012558,-0.25649624108431107
1.8591425947270228,6.269593250191555,-0.02039623457629421,1.0394018153468976,-0.2488533659285965
1.8553123329702597,6.073721270898851,-0.019922310231738405,1.0224084929973412,-0.2414734103022812
1.8515710755743995,5.881057210849715,-0.01945934656678903,1.0056342443619675,-0.23434456412964583
1.8479167696563885,5.691560051115278,-0.019007031517536948,0.9890727002110571,-0.22745564209348104
1.8443513168718244,5.50539143408691,-0.018524050425243705,0.9705969527191239,-0.26290355083572714
1.8408737134736068,5.322723208526959,-0.018082301134940644,0.9522264742277282,-0.2996774735675553
1.8374762370811641,5.143535630428406,-0.017680608259193,0.9339585583886271,-0.33767560414939274
1.8341513915015635,4.967809460153028,-0.017317766262920427,0.9157906024048166,-0.3767978780336349
1.8308919120816225,4.795525943050578,-0.016992543420668912,0.8977201039367566,-0.41694575094366865
1.8276907703456522,4.626666790632189,-0.01670368537901792,0.8797446583620875,-0.45802197983639925
1.8245411779914769,4.461214162231165,-0.016449918349141737,0.8618619563855258,-0.49993040520644993
1.8214365903128957,4.2991506470847085,-0.01622995195171052,0.8440697819982413,-0.5425757337747168
1.8183707091127936,4.140459246769943,-0.016042481733575097,0.8263660107887588,-0.5858633205807388
1.8153374851676687,3.98512335792703,-0.0158861913730053,0.8087486086103293,-0.6296989494669377
1.8123311203014092,3.83312675520083,-0.01575975458761889,0.791215630612822,-0.6739886109026576
1.809346069123716,3.68445357433081,-0.015661836756521084,0.7737652206505443,-0.7186382760464279
1.8063770404866197,3.539088295316308,-0.015591096265545784,0.7563956110810619,-0.7635536658852529
1.8034189987111198,3.3970157255810634,-0.01554618558181988,0.7391051229741247,-0.8086400142190948
1.8004671646350396,3.258220983056866,-0.01552575206113114,0.7218921667542785,-0.8538018231760897
1.7975170165328023,3.1226894791011652,-0.015528438488734475,0.7047552433057375,-0.8989426098482661
1.7945642909580042,2.9904069011576198,-0.015552883351245056,0.6876929455737072,-0.9439646425273798
1.7916049835603964,2.861359195061361,-0.01559772083410017,0.6707039607026885,-0.9887686648945091
1.7886353499302672,2.735532546882453,-0.015661580535681067,0.6537870727594866,-1.0332536063737743
1.7856519065252527,2.612913364191101,-0.015743086885522794,0.6369411660968487,-1.0773162766982873
1.7826514317373734,2.4934882566167147,-0.015840858250049963,0.6201652294230187,-1.1208510425534939
1.7796309671616533,2.3772440155594694,-0.015953505704898296,0.6034583606532417,-1.1637494839576885
1.7765878191321234,2.2641675928974117,-0.016079631448047266,0.586819772631588,-1.2059000278099565
1.77351956059641,2.154246078513971,-0.016217826822620244,0.5702487998256729,-1.2471875557806282
1.7704240334066004,2.047466676449776,-0.016366669912216962,0.5537449061132171,-1.287492983437384
1.7672993511117716,1.943816679458184,-0.016524722664928354,0.5373076937982832,-1.3266928071909776
1.7641439023466137,1.8432834417157515,-0.016690527494630646,0.5209369140168066,-1.364658615308821
1.7609563549211587,1.7458543494061196,-0.016862603299631445,0.5046324787161709,-1.4012565588848227
1.75773566072893,1.6515167888579434,-0.0170394408290923,0.4883944744225154,-1.4363467782749906
1.7544810616050797,1.5602581118737469,-0.017219497316700628,0.47222317804271696,-1.4697827801195549
1.7511920962825762,1.4720655978360142,-0.01740119028859779,0.4561190749860641,-1.5014107596888637
1.7478686086135176,1.3869264121186085,-0.017582890438336222,0.44008287993400613,-1.5310688629360265
1.7445107572445695,1.304827560264517,-0.017762913445327842,0.42411556063537115,-1.5585863823511397
1.7411190269607886,1.2257558373140292,-0.01793951059447187,0.40821836515922955,-1.5837828805457754
1.7376942419411867,1.149697771579607,-0.01811085803291571,0.39239285309784117,-1.6064672355357132
1.7342375812029778,1.0766395620640132,-0.018275044474546837,0.37664093127683473,-1.6264366020584424
1.7307505965502676,1.0065670086060265,-0.018430057132928175,0.36096489459669856,-1.643475284142434
1.7272352333880097,0.9394654337133517,-0.018573765627680663,0.34536747269461315,-1.657353515806363
1.7236938548146215,0.8753195949060881,-0.018703903565881135,0.329851883171315,-1.667826149603344
1.7201292694684929,0.8141135862494444,-0.01881804744599851,0.31442189216178795,-1.6746312573180968
1.716544763677161,0.7558307276070622,-0.018913592462759393,0.2990818830211661,-1.6774886543267733
1.712944138546697,0.7004534400075038,-0.018987724700018627,0.2838369338163012,-1.676098370195074
1.709331752738187,0.6479631054046564,-0.019037389073772008,0.26869290410841357,-1.6701391048691334
1.7057125718162096,0.5983399090594901,-0.019059252210200574,0.2536565311038609,-1.6592667350311805
1.7020922252338344,0.551562662825674,-0.019049659183221438,0.2387355345152606,-1.6431129728666347
1.6984770722605298,0.5076086078654001,-0.019004582641037437,0.2239387282244527,-1.6212843355361857
1.6948742784972681,0.46645319587968004,-0.018919562235401498,0.2092761347831046,-1.593361666736518
1.6912919051128004,0.4280698490035917,-0.018789631285311192,0.19475909549153678,-1.5589005744699764
1.6877390136695163,0.39242970038787206,-0.018609226012417223,0.18040036362131698,-1.517433329558796
1.6842257905425395,0.359501320607734,-0.0183720700610211,0.16621416038013617,-1.4684730326044904
1.6807636967346427,0.32925044005448,-0.018071022653685438,0.15221616123303452,-1.4115212360485936
1.6773656517956543,0.30163968527808294,-0.017697871440925588,0.1384233627290184,-1.346080741732329
1.674046265314543,0.2766283590214158,-0.01724303888656456,0.12485375576219195,-1.2716760171208952
1.670822137312322,0.254172310679877,-0.016695150610497377,0.11152570046452512,-1.1878845818355928
1.6677122618839426,0.23422396687883662,-0.01604038021454888,0.09845686586218205,-1.094383685779622
1.664738589965899,0.2167326193367387,-0.015261429449067472,0.08566258194937319,-0.991017196159314
1.6619268425317917,0.20164509160965594,-0.014335911962588259,0.0731534993883172,-0.8778867150366618
1.6593077237536864,0.18890690605634575,-0.013233759385889964,0.060932664330754484,-0.7554661794180123
1.6569187817254063,0.17846399817284464,-0.011912998806533135,0.0489926818113823,-0.6247264923288302
1.6548073464305868,0.17026478252674337,-0.010312635875774979,0.037314851305471186,-0.4872317420264355
1.6530353998939082,0.16426179740934543,-0.008339432931368873,0.025874465719775364,-0.3451331911458851
1.6516886262562585,0.1604108518386198,-0.005837131675469701,0.014661803445789046,-0.20096114940615814
1.6508988444159598,0.15866117429050774,-0.002476361380307135,0.0037558549553907052,-0.05714044928722914
