x,y,v_x,v_y,omega
2.375,32.48,0.0,2.4615384615384617,-7.142857142857143
2.373886180790388,32.016965457761536,-0.011724412732756118,2.4125093514979934,-6.781852129675034
2.3706775565164064,31.56309321203884,-0.02205057962494849,2.3650932350566616,-6.447471942344167
2.3656248175311205,31.118085784043632,-0.031136146535954475,2.3191954806823816,-6.137094281129583
2.358950570247511,30.68166288509845,-0.03911908802835609,2.274729771372165,-5.848410319886411
2.3508528090939502,30.25355993390661,-0.04612050306175595,2.231617083278763,-5.579380855376524
2.3415079006027923,29.833526752670757,-0.05224695473990449,2.1897848244670763,-5.328199519328751
2.331073158159314,29.42132641445772,-0.05759243940197366,2.149166104091223,-5.093261757897772
2.3196890714566964,29.016734219261906,-0.06224005220452599,2.109699108496267,-4.873138550770979
2.307481243257855,28.619536780228785,-0.06626340252012491,2.0713265655365944,-4.666554048261578
2.2945620769428987,28.22953120470151,-0.06972782184783378,2.033995282118947,-4.4723664648339945
2.281032250992937,27.846524357326448,-0.07269139867807978,1.9976557428816786,-4.2895516929093125
2.2669820106308003,27.470332194533214,-0.07520586829177803,1.9622617602050245,-4.117189199767316
2.2524923020077936,27.100779161396144,-0.0773173803714544,1.9277701675535868,-3.954449849027321
2.2376357703644163,26.737697643267524,-0.07906716324304097,1.8941405495897747,-3.8005853511358567
2.2224776403264457,26.38092746571,-0.08049210031454523,1.8613350036473284,-3.6549190979720154
2.2070764937894274,26.030315437195938,-0.08162523165406935,1.8293179280796446,-3.5168381777296838
2.19148495858791,25.685714929822478,-0.08249619151979772,1.798055833746231,-3.385786399664307
2.175750319256562,25.34698549394322,-0.08313159091544167,1.7675171755091263,-3.261258185655582
2.1599150596020045,25.013992503164573,-0.08355535281674235,1.7376722011081966,-3.14279320804554
2.1440173454634683,24.68660682661604,-0.08378900653626924,1.7084928151921701,-3.0299716718101064
2.1280914549044416,24.36470452579401,-0.08385194671664799,1.679952456618655,-2.922410154556505
2.1121681621116517,24.048166573610814,-0.08376166162850611,1.6520259874149743,-2.819757930699182
2.096275080453915,23.73687859356417,-0.08353393476872494,1.624689592023413,-2.7216937169234807
2.080436969448499,23.430730617185375,-0.083183023183021,1.5979206856480785,-2.627922785075869
2.0646760097778687,23.129616858133925,-0.08272181545519255,1.5716978306830018,-2.53817439622529
2.0490120499793125,22.83343550148694,-0.08216197189803026,1.5460006603379026,-2.4521995160675445
2.0334628279811446,22.542088506928934,-0.0815140491353159,1.5208098086937316,-2.369768777292821
2.0180441702711143,22.255481424683794,-0.08078761097026618,1.496106846518298,-2.2906706591682933
2.002781000336954,21.973530717759026,-0.07987733570510143,1.471795331637159,-2.210593595708802
1.9876946156993396,21.696155721815643,-0.07892671311189522,1.4479414677668545,-2.13406563029847
1.9727921369076156,21.423271019731086,-0.07794148469572558,1.424529080491646,-2.060888064157604
1.958079647973006,21.154794197187613,-0.07692681987911407,1.4015427357554173,-1.9908754438252212
1.9435622997694122,20.890645706143403,-0.07588737173766275,1.3789676962889332,-1.9238545354776904
1.929244403384289,20.630748736284986,-0.07482732705310675,1.3567898811680554,-1.859663389560525
1.9151295144405702,20.375029093891825,-0.07375045130182745,1.334995828233663,-1.7981504868207956
1.901220509300055,20.123415087592164,-0.0726601291246497,1.3135726591311547,-1.7391739578026877
1.887519653960954,19.875837420533323,-0.07155940076062317,1.2925080467514052,-1.6826008687264928
1.8740286663758337,19.63222908852869,-0.07045099487222325,1.27179018487629,-1.6283065674271973
1.8607487728395824,19.39252528377962,-0.06933735814094709,1.2514077598507838,-1.5761740836960412
1.847680759029069,19.156663303802354,-0.06822068196972088,1.231349924120411,-1.5260935789583279
1.8348250162157906,18.924582465219572,-0.06710292659110306,1.2116062714878173,-1.4779618407431188
1.8221815831191424,18.69622402210245,-0.0659858428473005,1.1921668139555883,-1.4316818178637123
1.8097501838201495,18.4715310885734,-0.06487099187893908,1.1730219600344247,-1.3871621926392517
1.7975302621129343,18.250448565401513,-0.0637597629338541,1.1541624944065028,-1.3443169868537534
1.7855210126331942,18.03292307034276,-0.06265338948446299,1.1355795588434932,-1.3030651984747825
1.7737214090690627,17.818902871995327,-0.06155296382218538,1.117264634287379,-1.2633304664446818
1.7621302297293964,17.608337826957076,-0.060459450279563086,1.0992095240100257,-1.2250407611168477
1.7507460807174198,17.401179320087543,-0.059373697214927565,1.081406337774505,-1.1881280981416462
1.7395674169333615,17.19738020769085,-0.05829644788042402,1.0638474769275548,-1.1525282738143579
1.728592561107958,16.99689476344869,-0.057228350281717855,1.0465256203583162,-1.1181806200837863
1.717819721049168,16.799678626944598,-0.05616996612659805,1.029433711263725,-1.085027777587306
1.707247005266911,16.605688754631302,-0.055121778949791846,1.0125649446656808,-1.0530154852282778
1.6968724371248955,16.414883373103265,-0.0540842014924757,0.9959127556294303,-1.0220923849468129
1.6867025853270832,16.227438049169336,-0.0529668700634449,0.9771959173592912,-1.0371328312018169
1.676740810953468,16.04353778000872,-0.051893912816711386,0.9585963895945765,-1.054024370163174
1.6669787817611754,15.863160575961096,-0.0508642892074226,0.9401110214330229,-1.07264156735876
1.6574083686333552,15.686285033370375,-0.049876901611737356,0.9217367953114007,-1.0928617329078294
1.6480216558599192,15.51289030968196,-0.04893060126653807,0.9034708224613697,-1.1145646426688989
1.638810950339979,15.34295609935856,-0.04802419368020008,0.8853103388376036,-1.1376322655048596
1.6297687898030992,15.176462610525775,-0.04715644355011465,0.8672527015074973,-1.161948495505916
1.6208879501400042,15.013390542260538,-0.04632607921930418,0.849295385495007,-1.1873988880230968
1.6121614519275491,14.853721062436438,-0.045531796701276155,0.8314359810744658,-1.213870398368921
1.603582566227503,14.697435786040572,-0.044772263299211044,0.8136721915135985,-1.2412511220372695
1.5951448197340268,14.544516753876277,-0.04404612084264363,0.7960018312684725,-1.2694300352814802
1.58684199934059,14.394946411565275,-0.04335198856195334,0.7784228246368148,-1.2982967348679466
1.5786681561934754,14.248707588761174,-0.04268846561820226,0.7609332048800457,-1.327741175791809
1.5706176092959492,14.105783478483854,-0.04205413330312527,0.7435311138285826,-1.357653405701333
1.562684948724623,13.966157616481134,-0.04144755692135992,0.7262148019895162,-1.3879232947279212
1.5548650385174874,13.829813860519963,-0.04086728736427852,0.7089826291807175,-1.418440259358972
1.5471530192915885,13.696736369504311,-0.040311862382023785,0.6918330657208799,-1.4490929789205673
1.5395443106473317,13.566909582310782,-0.03977980755752452,0.6747646942110143,-1.4797691031558
1.5320346134159486,13.440318196225522,-0.03926963698334727,0.6577762119495987,-1.5103549492920807
1.5246199118068073,13.316947144857362,-0.03877985363919213,0.6408664340310315,-1.540735186886712
1.5172964755119445,13.196781575391803,-0.03830894946462894,0.6240342971853836,-1.5707925086242944
1.5100608618265705,13.079806825038645,-0.03785540511825491,0.6072788644268,-1.6004072851123279
1.502909917846311,12.966008396512198,-0.03741768941079278,0.5905993305884308,-1.6294572015833375
1.4958407828046951,12.855371932367103,-0.03699425839569049,0.5739950288336106,-1.657816874264276
1.4888508906179396,12.747883187994507,-0.03658355409647396,0.5574654382463377,-1.6853574440190864
1.4819379727084634,12.64352800306229,-0.03618400284538014,0.5410101926190878,-1.7119461447117592
1.4751000611839067,12.54229227115906,-0.03579401320258443,0.5246290905728138,-1.7374458435805549
1.4683354924548042,12.444161907374177,-0.035411973419547035,0.5083221071627804,-1.7617145507675445
1.4616429113816118,12.349122813514956,-0.03503624840353268,0.49208940714478955,-1.7846048950234232
1.4550212760506338,12.257160840626756,-0.034665176133077104,0.4759313600994295,-1.8059635625231352
1.4484698632887292,12.168261748441779,-0.034297063465920645,0.4598485576371679,-1.825630695708297
1.4419882750386748,12.0824111613375,-0.03393018127149318,0.4438418329341859,-1.8434392491532396
1.4355764457310147,11.99959452033541,-0.0335627588091389,0.4279122828772859,-1.859214299683001
1.4292346508043954,11.91979703061519,-0.0331929772605368,0.41206129312504725,-1.8727723084246117
1.422963516545225,11.843003603958408,-0.032818962309679005,0.39629056642000376,-1.8839203332472032
1.4167640314394765,11.769198795470025,-0.03243877564556955,0.380602154510328,-1.8924551912819012
1.4106375592553073,11.698366733856304,-0.03205040524042159,0.3649984940551468,-1.8981625731060547
1.40458585410581,11.630491044466634,-0.03165175422797076,0.3494824468887481,-1.9008161130048442
1.3986110777779825,11.565554764237604,-0.031240628170211487,0.3340573449957909,-1.9001764238761214
1.3927158196587959,11.50354024761669,-0.030814720452808798,0.31872704048750766,-1.8959901113695756
1.386903119644784,11.44442906249952,-0.030371595484156903,0.3034959607458821,-1.887988790521074
1.381176494491989,11.388201875203446,-0.029908669282104294,0.2883691686864668,-1.8758881405449033
1.3755399681544371,11.334838323543579,-0.029423186902653782,0.2733524277331901,-1.8593870511116097
1.3699981067809586,11.284316877208525,-0.02891219597606716,0.2584522705305397,-1.8381669385177188
1.3645560592063322,11.236614684901912,-0.028372515335789553,0.2436760695390806,-1.811891345653822
1.3592196040055327,11.19170740819482,-0.027800697304204605,0.2290321063250385,-1.7802059897746505
1.3539952045136934,11.149569042829697,-0.027192981557261433,0.2145296343604589,-1.742739492489907
1.3488900737030023,11.110171729479724,-0.026545237502645612,0.20017892721820307,-1.6991051247981201
1.3439122515354502,11.07348555791225,-0.025852890576850137,0.18599129980783968,-1.6489040362847438
1.339070698509381,11.039478371421751,-0.025110825487037088,0.17197908430267195,-1.591730623752715
1.3343754107952406,11.008115582666228,-0.02431325571444015,0.1581555341765055,-1.5271809430385537
1.329837564934411,10.97936001811642,-0.023453542820608665,0.14453461897935277,-1.4548653869810364
1.3254697040526027,10.953171816667773,-0.02252394014579417,0.13113065942744534,-1.3744272352976594
1.3212859836744417,10.929508418817473,-0.021515221729584175,0.11795773899677305,-1.2855690805414577
1.3173025046531135,10.908324695698767,-0.020416136389661065,0.10502882014750153,-1.188089408751603
1.3135377751167712,10.889573279922374,-0.019212595571836594,0.09235450381451502,-1.081931440299142
1.3100133651439545,10.873205166498423,-0.017886456773601414,0.07994142696393122,-0.9672450671595798
1.3067548510313427,10.859170638788136,-0.01641369178020727,0.06779044367067184,-0.8444592430305621
1.303793198252956,10.847420516321396,-0.014761600623863301,0.05589505597921649,-0.7143549994277213
1.3011668242929617,10.837907576709426,-0.012884441060288323,0.04424115046256918,-0.5781173965745983
1.2989247839732063,10.830587707791288,-0.010715983358190108,0.03281010130732112,-0.43733014985140467
1.2971320975268352,10.825419761640514,-0.008154400287821063,0.021589331858718166,-0.2938674446494862
1.2958804497109997,10.822361583089599,-0.005020839878867821,0.01060202130881047,-0.14964632361769295
1.2953210457182203,10.821351608449739,-0.0008676232030204603,2.9290689709178183e-05,-0.006289404072227528
