x,y,v_x,v_y,omega
2.375,32.48,0.0,2.1025641025641026,-2.979591836734694
2.37450858601261,32.04265893756997,-0.00468013321323849,2.062588872959973,-2.8364807596494295
2.373091072389762,31.61358958986079,-0.008819996528171673,2.0237858671274456,-2.703266514038782
2.3708548319488036,31.192551860886592,-0.012477531480952434,1.9860972659601601,-2.5790386609444864
2.367895777115578,30.779317384586086,-0.015703943121199763,1.9494691749970334,-2.462987205388262
2.364299683630468,30.37366873797929,-0.018544566260796484,1.9138512688772125,-2.354389878606346
2.360143345275418,29.975398724620913,-0.021039608549206425,1.8791964773930565,-2.2526012303055603
2.355495583459133,29.584309720249635,-0.023224789701126396,1.8454607070952995,-2.1570432448847456
2.350418131790024,29.20021307369272,-0.025131892861815937,1.812602593446759,-2.0671972453776197
2.34496641269356,28.82292855704813,-0.02678924139022316,1.7805832793588425,-1.982596889181812
2.3391902205731556,28.45228385997006,-0.028222112137437003,1.7493662166228106,-1.902822092420842
2.3331343238766764,28.088114123558253,-0.029453094495696806,1.7189169872991348,-1.8274937465718155
2.3268389966384113,27.730261509921,-0.03050240301159335,1.689203142579476,-1.7562691129749426
2.3203404885581365,27.378574803964415,-0.03138815013387793,1.6601940570070417,-1.6888377989576824
2.3136714414055843,27.032909044372616,-0.032126584652332514,1.6318607962481824,-1.6249182342949462
2.306861258460339,26.693125181095894,-0.03273230054048161,1.604175996863464,-1.564254579173389
2.2999364327814895,26.359089756967542,-0.033218420210467434,1.577113756739876,-1.5066140051997314
2.2929208393215754,26.030674611332223,-0.03359675559823868,1.5506495350250766,-1.4517842996648729
2.2858359952336307,25.70775660379623,-0.033877950001232,1.5247600605558063,-1.399571750548917
2.2787012921503695,25.390217356408286,-0.03407160317268455,1.4994232479007932,-1.3497992758710353
2.27154582102221,25.077945119394844,-0.034075740905028566,1.4745980569891401,-1.2995120128862192
2.26439539898804,24.77083234058458,-0.03402351656325765,1.4502855507276735,-1.251630118212395
2.2572612260310017,24.468773351521097,-0.03392098778948496,1.4264667260673891,-1.20600915799929
2.2501532921073024,24.17166637867367,-0.03377362100765202,1.403123491527173,-1.1625150161434097
2.243080495046351,23.87941335780903,-0.033586351001409505,1.380238611945566,-1.1210230404204502
2.236050746611475,23.591919759541938,-0.033363634092646303,1.3577956572648655,-1.0814172687487131
2.2290710679875603,23.309094425254074,-0.033109495658922815,1.3357789550004886,-1.0435897271849972
2.2221476758165397,23.030849412640293,-0.03282757263651143,1.3141735460831452,-1.0074397922261251
2.2152860597741855,22.757099850203396,-0.03252115157638397,1.2929651437920429,-0.9728736108379645
2.2084910525697503,22.48776380007515,-0.03219320275157249,1.2721400955245767,-0.939803572376417
2.201766893151624,22.22276212859199,-0.03184641075439289,1.2516853471721858,-0.9081478272157953
2.195117283815583,21.962018384100077,-0.03148320196980828,1.231588409893649,-0.8778298474715558
2.188545441835859,21.705458681506123,-0.03110576926565599,1.2118373290963809,-0.8487780257070232
2.182054146171896,21.45301159312838,-0.030716094200660692,1.1924206554535448,-0.8209253079565453
2.1756457797441118,21.204608045436732,-0.030315967016329666,1.1733274178002628,-0.7942088577881722
2.1693223677193245,20.960181221302264,-0.029907004648310868,1.1545470977660877,-0.7685697484741503
2.16308561219982,20.71966646740542,-0.02949066696602047,1.1360696060133924,-0.743952680642969
2.156936923668676,20.483001206477944,-0.02906827142582406,1.1178852599625742,-0.7203057230573833
2.1508774495072163,20.25012485407789,-0.028641006302363756,1.0999847628951156,-0.6975800744030323
2.1449080998678065,20.020978739618755,-0.028209942644398876,1.0823591843347116,-0.6757298441857202
2.1390295711561715,19.79550603139404,-0.02777604508545678,1.064999941614957,-0.6547118510253339
2.133242367351531,19.573651665356763,-0.027340181625401958,1.0478987825496033,-0.6344854368035748
2.1275468193697824,19.355362277430594,-0.026903132486490646,1.0310477691282023,-0.615012295273614
2.121943102654381,19.140586139144688,-0.02646559813638121,1.0144392621661371,-0.5962563138745801
2.116431253161183,18.929273096398656,-0.026028206560740504,0.9980659068436758,-0.5781834276143364
2.1110142108166547,18.72151646313486,-0.025562672910957176,0.9805686956686611,-0.5876790003997289
2.1056926373452765,18.51742164450439,-0.025118979197409578,0.9631914817643774,-0.5992976081067768
2.1004619065140804,18.3169637987696,-0.02469750490921792,0.9459308585669731,-0.6129203841215307
2.095317325780651,18.120118785289392,-0.02429850207582457,0.9287835555302149,-0.628431805292231
2.090254161970452,17.926863136563888,-0.02392210564035757,0.9117464323317416,-0.6457194371562762
2.0852676648596344,17.737174031448845,-0.023568343034094243,0.8948164735258232,-0.6646736876472096
2.080353088825137,17.551029269448243,-0.023237143008736732,0.8779907836227607,-0.6851875683107572
2.0755057127124683,17.368407245997197,-0.02292834377858573,0.8612665825776491,-0.7071564620885078
2.0707208580610756,17.1892869286508,-0.022641700520391574,0.8446412016737352,-0.7304778967510617
2.0659939058175976,17.013647834097313,-0.02237689227463918,0.8281120797880743,-0.7550513230795116
2.061320311658494,16.841470005916452,-0.022133528288252435,0.8116767600296352,-0.7807778969049669
2.056695620035536,16.67273399300538,-0.021911153835155003,0.7953328867424624,-0.8075602641204725
2.052115477050329,16.50742082859618,-0.021709255547769382,0.779078202868993,-0.835302347778015
2.047575642257432,16.345512009789463,-0.021527266289348035,0.7629105476711804,-0.8639091363751878
2.043071999489682,16.186989477528968,-0.02136456959398276,0.7468278548097298,-0.8932864724212962
2.038600566794002,16.03183559694157,-0.021220503698206616,0.7308281507845292,-0.9233408403509267
2.034157505561238,15.880033137966251,-0.021094365185261095,0.714909553742308,-0.953979152823934
2.0297391289294513,15.731565256193935,-0.020985412260325086,0.6990702726607153,-0.9851085344139904
2.0253419095365293,15.58641547383781,-0.020892867672266287,0.6833086069214228,-1.016636101642798
2.0209624866949922,15.44456766075076,-0.02081592129475401,0.6676229462885832,-1.0484687382632236
2.0165976730594752,15.306006015402588,-0.020753732376838096,0.6520117713130679,-1.080512864631342
2.012244460855523,15.170715045725036,-0.02070543147032355,0.6364736541874385,-1.1126741999339727
2.0079000277371044,15.03867954972678,-0.02067012203842487,0.6210072600816521,-1.144857515954004
2.00356174233961,14.909884595773715,-0.020646881747235477,0.6056113489951458,-1.1769663809598434
1.999227169595112,14.78431550242166,-0.020634763438461906,0.5902847781672992,-1.2089028921968825
1.9948940758773195,14.66195781767907,-0.020632795778611233,0.5750265050954364,-1.2405673953371583
1.9905604340450491,14.542797297566196,-0.0206399835763426,0.5598355912176479,-1.271858189107707
1.9862244284551582,14.426819883824017,-0.020655307755953055,0.5447112063269204,-1.3026712131679197
1.9818844600188372,14.314011680611369,-0.02067772497091368,0.5296526337935366,-1.3328997171412547
1.977539151379012,14.20435893001116,-0.02070616683694613,0.5146592766846294,-1.3624339085271575
1.9731873522914094,14.097847986146522,-0.020739538759267793,0.4997306648833516,-1.3911605770259068
1.9688281452977439,13.994465287684584,-0.020776718323261896,0.4848664633255838,-1.4189626926043286
1.9644608517865558,13.894197328478981,-0.020816553211862137,0.4700664814896878,-1.4457189744174757
1.9600850385456505,13.797030626071614,-0.020857858606281986,0.4553306842947662,-1.4713034274862913
1.9557005249199697,13.70295168773919,-0.02089941401925085,0.44065920458545904,-1.4955848438231334
1.9513073907002902,13.611946973730014,-0.020939959501505363,0.42605235740670344,-1.5184262645096889
1.9469059848815928,13.524002857290785,-0.02097819115275646,0.4115106563002476,-1.5396843990858953
1.9424969354455155,13.439105581031221,-0.021012755857503018,0.3970348318860677,-1.559208998534249
1.9380811603393473,13.357241209115454,-0.02104224515362445,0.38262585302598423,-1.5768421781852495
1.9336598798448494,13.278395574702895,-0.02106518812730789,0.3682849509031522,-1.592417687090121
1.9292346305543189,13.202554221987263,-0.02108004321107694,0.35401364638857885,-1.60576012089753
1.9248072811992638,13.129702342100714,-0.021085188741829717,0.3398137811023592,-1.6166840761624999
1.92038005060962,13.059824702060968,-0.021078912111920166,0.32568755260949367,-1.6249932454953282
1.9159555281195786,12.99290556584467,-0.02105939731704489,0.31163755421239264,-1.6304794552941053
1.9115366967811538,12.928928606572772,-0.02102471066795366,0.29766681980567933,-1.6329216513803102
1.9071269598005285,12.86787680869903,-0.020972784385620852,0.2837788742299592,-1.6320848432231834
1.9027301706776958,12.809732359009615,-0.02090139773659552,0.2699777894787429,-1.6277190253844795
1.8983506676110475,12.754476525185172,-0.020808155279102736,0.25626824694454103,-1.6195581064739084
1.893993312831505,12.70208952066929,-0.02069046166892241,0.2426556055876704,-1.6073188929040758
1.8896635376650122,12.652550354665426,-0.020545492297674366,0.22914597540151557,-1.5907001994063477
1.8853673943025273,12.605836666302444,-0.02037015877360987,0.21574629472211443,-1.5693821939566877
1.8811116155064431,12.561924542450729,-0.02016106785576463,0.20246440862756268,-1.5430261362203666
1.8769036838389948,12.520788319460486,-0.019914471834219825,0.18930914366046586,-1.5112747425667736
1.8727519125216605,12.482400370415693,-0.01962620737848613,0.1762903710518351,-1.473753516440962
1.8686655408217783,12.446730881618063,-0.0192916183346787,0.16341904606845906,-1.4300735329606615
1.8646548480706642,12.413747625313714,-0.01890545548545428,0.15070720444913951,-1.3798363771100874
1.8607312923010824,12.383415740665626,-0.018461742320087873,0.13816788743740338,-1.322642224395555
1.8569076824627757,12.355697542311049,-0.017953589473309585,0.1258149540347608,-1.2581024378602021
1.8531983978948392,12.330552386247895,-0.017372930221324356,0.11366272275719559,-1.1858585376202377
1.8496196762556418,12.30793663680246,-0.01671013300912541,0.10172536719932539,-1.1056099344531851
1.8461900030851823,12.287803795710296,-0.01595342099524938,0.09001597653555238,-1.0171532502315785
1.8429306551533948,12.270104872146359,-0.015087987878918803,0.07854520026385402,-0.9204359738360691
1.8398664796956492,12.254789082585567,-0.014094635528183807,0.06731946221987398,-0.8156257596799562
1.8370270391625976,12.241804952330636,-0.012947655262782815,0.056338921160429975,-0.7031923003094889
1.8344483297573424,12.231101808041,-0.011611481930124776,0.045595786359896556,-0.583989199846773
1.8321754294995618,12.22263143614315,-0.010035187191594174,0.03507442219105403,-0.459307190808497
1.8302667820697271,12.216349224141918,-0.008142407378258571,0.024756168296850414,-0.3308506061909668
1.8288019490462686,12.212213113747879,-0.005808383321348948,0.014635359265433353,-0.20057885411146012
1.8278998737836973,12.210175445056098,-0.002782809655517408,0.0047710092277190586,-0.07037557959818039
