x,y,v_x,v_y,omega
2.375,32.48,0.0,2.5128205128205128,-7.63265306122449
2.3736384274054236,31.98268174934721,-0.013615725945763678,2.460361993707342,-7.2223308802689
2.3697248111174964,31.495668281423566,-0.025520436933508764,2.4097726855290995,-6.844508257538104
2.3635808380848964,31.018597606746447,-0.03591929339248962,2.360934061242115,-6.495762067370235
2.3554898946687595,30.5511303068367,-0.04499014076887936,2.313738937855352,-6.173106363726937
2.3457021142327306,30.092947416920484,-0.05288766359141371,2.2680899613067953,-5.873926986187723
2.334438666623685,29.64374858600373,-0.05974681249903973,2.223898347860736,-5.595927442064309
2.3218954203323032,29.203250468120324,-0.06568565041477886,2.181082830973354,-5.337083848832187
2.308246082226991,28.771185307625423,-0.07080773063834447,2.139568773975627,-5.09560721142878
2.2936448996878354,28.347299688474006,-0.0752040947532082,2.099287417538545,-4.869911678727015
2.2782289942615006,27.93135342297512,-0.07895495951013919,2.060175237450285,-4.658587705167274
2.262120383551461,27.52311855990255,-0.08213114759025564,2.022173393275469,-4.460379260144869
2.245427738173629,27.12237849533848,-0.08479530618806438,1.9852272523651922,-4.274164395807562
2.228247912670119,26.728927172429692,-0.08700294884703702,1.9492859767226947,-4.098938615379515
2.2106672828535263,26.342568358496443,-0.08880334931889272,1.9143021626098182,-3.933800587755186
2.1927629168257385,25.963114989769743,-0.09024031095898538,1.8802315246571641,-3.7779398363793657
2.1746036026311772,25.590388575530902,-0.09135283098662682,1.8470326177312513,-3.6306260961865444
2.156250751973813,25.2242186546576,-0.09217567558701725,1.8146665910017565,-3.4912000852588445
2.1377591965023646,24.864442298596718,-0.09273987912746626,1.7830969696070893,-3.3590654806454783
2.119177890733034,24.510903655627253,-0.09307317856583575,1.7522894600875374,-3.2336819225877327
2.1005505336427124,24.163453531980416,-0.09320039233738397,1.7222117763808364,-3.114558899846796
2.0819161192554194,23.82194900597381,-0.09314375153554613,1.692833483685249,-3.001250392207371
2.06330942510296,23.48625307181394,-0.09292318998904679,1.6641258579134595,-2.8933501655211535
2.044761446220821,23.15623431014209,-0.09255659883234113,1.6360617588050437,-2.790487630642423
2.0262997813046346,22.831766582756558,-0.09206005032952384,1.6086155150502985,-2.6923241909120197
2.0079489767704377,22.51272874925001,-0.09144799501244709,1.581762820015168,-2.598550013958369
1.9897308337084874,22.19900440356301,-0.09073343560705624,1.5554806368548424,-2.50888117289934
1.9716646820749826,21.89048162868057,-0.08992808072798998,1.5297471119695334,-2.423057109863712
1.9537676259117587,21.58705276789405,-0.08904248090424885,1.5045414958956638,-2.3408383813622913
1.936054762906814,21.2886142112201,-0.0880861491451976,1.479844070843867,-2.262004650634435
1.9185575719670758,20.995074863616146,-0.08688576025218678,1.4555494051956268,-2.1808632908513284
1.9013033736296978,20.706346809280674,-0.0856562231215926,1.4317311381591273,-2.1034292061552495
1.8842974534275387,20.42233649796203,-0.08440297889999679,1.408371975027321,-2.029488842273683
1.8675440670370131,20.142953756693494,-0.08313088500525966,1.3854554376580388,-1.9588432959391335
1.8510465510622296,19.868111631424995,-0.08184427474257569,1.3629658150269361,-1.8913071479037704
1.8348074225271531,19.59772623817892,-0.08054701060818877,1.3408881174337781,-1.82670740159656
1.8188284682673095,19.33171662303159,-0.07924253199024704,1.3192080340395633,-1.764882516712253
1.8031108252791952,19.0700046302831,-0.07793389789089555,1.297911893445295,-1.7056815282244135
1.787655052968169,18.812514778233314,-0.07662382521936743,1.2769866270525725,-1.6489632423691127
1.7724611981321319,18.559174142030848,-0.07531472314100272,1.2564197349721111,-1.594595502071938
1.7575288534269826,18.30991224310671,-0.0740087239104892,1.2361992542692586,-1.5424545151056444
1.7428572099791269,18.06466094474419,-0.07270771056806835,1.2163137293559538,-1.4924242389837115
1.7284451047389169,17.823354353372924,-0.0714133418340313,1.1967521843566855,-1.4443958172287759
1.714291063105641,17.585928725208042,-0.07012707449872937,1.1775040972921462,-1.3982670622151594
1.7003933372985833,17.35232237788496,-0.06885018357184614,1.1585593759386839,-1.3539419802807826
1.6867499408988769,17.122475606767637,-0.06758378042522016,1.139908335234535,-1.311330335243647
1.673358679942599,16.89633060563265,-0.06632882913755692,1.1215416761153647,-1.270347246848699
1.6602171809061959,16.67383139145391,-0.0650861612264763,1.1034504656720012,-1.2309128210182838
1.6473229158902356,16.454923733033453,-0.06385648893312626,1.085626118532561,-1.1929518090887345
1.6346732252762513,16.23955508324224,-0.0626404172067187,1.0680603793795487,-1.1563932934914722
1.622265338103527,16.02767451465228,-0.06143845452052275,1.0507453065200807,-1.1211703975832636
1.6100963903877916,15.81923265835685,-0.060251022636831464,1.0336732564342113,-1.0872200175504236
1.59816344158151,15.614181645790175,-0.05907846542598323,1.0168368692325198,-1.0544825745087898
1.586463489355564,15.412475053370951,-0.057921056833477945,1.000229054959719,-1.0229017850978597
1.5749934828642749,15.214067849806366,-0.056779008079414675,0.9838429806861203,-0.9924244490258805
1.5637605970337574,15.019113560069393,-0.05554985022575942,0.9656999166836285,-1.0020992397597006
1.5527689261966218,14.827775945414245,-0.054366858145596796,0.9476762298678557,-1.0138188111189368
1.54200933213539,14.640031462410342,-0.05322908246672181,0.9297686001711684,-1.027454890913577
1.5314728730580933,14.455857217586065,-0.052135508306243264,0.9119738480716009,-1.0428824711324394
1.521150816023096,14.275230939862606,-0.05108506204373138,0.8942889291629784,-1.0599795176179152
1.511034648068116,14.09813095402398,-0.050076617506067025,0.8767109292232883,-1.0786266882631417
1.5011160861569426,13.924536155125235,-0.04910900160566805,0.8592370597641696,-1.0987070585255962
1.4913870860493659,13.754425983744053,-0.048180999470099725,0.8418646540476445,-1.12010585308127
1.4818398501925938,13.587780401983345,-0.04729135909762157,0.8245911635594383,-1.142710182465254
1.472466834725836,13.424579870134252,-0.046438795569955574,0.8074141549314767,-1.166408783557885
1.463260755683795,13.26480532391016,-0.04562199485045555,0.7903313073094363,-1.1910917627805861
1.4542145944794607,13.108438152162755,-0.044839617192888634,0.7733404101645985,-1.2166503408621683
1.4453216027418532,12.955460174991018,-0.04409030018318492,0.75643936155277,-1.2429765980245218
1.4365753065801603,12.80585362215307,-0.04337266143374464,0.7396261668267148,-1.2699632184161511
1.4279695103420664,12.659601111689152,-0.042685300947191626,0.7228989378124558,-1.2975032325926463
1.419498299930967,12.516685628661506,-0.04202680316380215,0.706255892463998,-1.325489756804652
1.4111560457441674,12.37709050391355,-0.04139573870419544,0.6896953550155577,-1.3538157278058482
1.4029374052921257,12.24079939274646,-0.04079066581622103,0.6732157566553296,-1.3823736318355289
1.3948373255572744,12.107796253405901,-0.04021013153229132,0.6568156367502483,-1.4110552263621667
1.3868510451499794,11.978065325265156,-0.03965267254065833,0.6404936446571958,-1.4397512530955383
1.3789740963187844,11.851591106583161,-0.03911681577129081,0.6242485421627665,-1.468351140685242
1.3712023068722514,11.728358331706772,-0.038601078694039455,0.608079206601119,-1.4967426954226126
1.3635318020704825,11.608351947575887,-0.03810396932364951,0.591984634707752,-1.52481177815114
1.3559590065458325,11.491557089377476,-0.037623985922851516,0.5759639472763506,-1.5524419654679085
1.3484806463144283,11.37795905518021,-0.03715961639119065,0.5600163946963171,-1.5795141931661256
1.34109375094297,11.267543279364542,-0.036709337323393765,0.5441413634603591,-1.6059063797280901
1.333795655938944,11.160295304644034,-0.03627161271686628,0.528338383744731,-1.6314930275315545
1.3265840054369278,11.056200752451605,-0.03584489230329532,0.512607138179567,-1.6561447992844773
1.3194567552591745,10.955245291439311,-0.035427609474236454,0.4969474719433608,-1.6797280670598123
1.3124121764352616,10.85741460381156,-0.03501817876489172,0.4813594043341745,-1.702104431172399
1.3054488592733786,10.762694349179071,-0.034614992853938265,0.4658431419906991,-1.7231302060374682
1.298565718084974,10.671070125584116,-0.034216419030107956,0.4503990939588443,-1.7426558700938228
1.2917619966751552,10.58252742730583,-0.03382079506807932,0.4350278888240126,-1.7605254768915344
1.285037274723657,10.4970515990079,-0.03342642444690322,0.41973039415528407,-1.7765760245724278
1.2783914751956318,10.414627785738894,-0.03303157083334839,0.40450773853477545,-1.7906367812658948
1.2718248729383153,10.335240878238185,-0.03263445173981678,0.3893613364723057,-1.80252856445892
1.2653381046392063,10.258875452937922,-0.03223323125127384,0.37429291653032704,-1.8120629732847042
1.2589321803443636,10.185515705984503,-0.0318260116971522,0.3593045530038713,-1.81904157405934
1.2526084967625253,10.115145380533082,-0.03141082412123166,0.3443987015103537,-1.8232550414918027
1.24636885261307,10.047747686498312,-0.030985617373319466,0.3295782388373436,-1.8244822610957938
1.2402154663148863,9.983305211878367,-0.030548245608517766,0.3148465073620887,-1.8224894028598382
1.2341509963611366,9.921799824714302,-0.030096453928979906,0.3002073642785539,-1.8170289827713655
1.2281785647849168,9.863212564714239,-0.02962786183321649,0.2856652357220966,-1.807838938167238
1.2223017841976147,9.807523523578691,-0.029139944039805132,0.2712251756333636,-1.7946417562595707
1.2165247889825157,9.754711713135368,-0.0286300081111849,0.2568929287998712,-1.7771437141952646
1.210852271361766,9.704754920567296,-0.028095168096312715,0.2426749968808525,-1.7550343159398385
1.205289523241867,9.657629550354208,-0.027532313102677595,0.2285787052500137,-1.727986049322376
1.1998424850073468,9.613310453126424,-0.02693806924252515,0.21461226702783986,-1.6956546401462678
1.1945178028143875,9.571770742573122,-0.026308752687068292,0.20078483850516446,-1.6576800553520072
1.1893228964989389,9.53298160302342,-0.025640310467418315,0.187106556991863,-1.613688611747311
1.1842660410557395,9.496912092565875,-0.02492824396457506,0.1735885475835763,-1.5632966908273094
1.1793564659199023,9.463528949909147,-0.024167507393798283,0.16024287898369025,-1.5061167553128347
1.1746044782318572,9.432796418018295,-0.023352369486653105,0.14708243992484366,-1.4417666202314836
1.1700216192623245,9.404676104351502,-0.022476220208674368,0.1341206967430838,-1.3698832549108226
1.1656208677881468,9.379126906682501,-0.021531294533103897,0.12137127994692623,-1.2901427653085151
1.1614169113047474,9.356105045092466,-0.020508270300890013,0.10884733595342382,-1.202288560181396
1.1574265168136673,9.335564253814809,-0.019395674609912074,0.09656057682313408,-1.106169860157943
1.1536690493985169,9.317456197935062,-0.018178999541592734,0.08451998197431901,-1.0017922728400668
1.1501672116766108,9.30173118143081,-0.01683937767746748,0.07273018306818702,-0.8893803817378242
1.146948115147431,9.2883391880615,-0.015351587614330005,0.06118975062493645,-0.7694479852911426
1.1440448556691478,9.277231215290367,-0.013681007168501132,0.04988997708639121,-0.6428633910066652
1.1414988797923635,9.268360676092065,-0.011778751599341561,0.03881541489662578,-0.5108847188597824
1.1393637019586325,9.261684277434338,-0.009573026737969236,0.027948571680663434,-0.3751270297501473
1.1377113893054565,9.257161033512507,-0.006950099793790517,0.017283867537663845,-0.23741879740306981
1.1366468977497808,9.254745762437672,-0.0036948157629665694,0.006868843210673619,-0.09952264642217304
