x,y,v_x,v_y,omega
2.375,32.48,0.0,4.0,-4.6938775510204085
2.37355004899261,31.691551292276824,-0.014499510073901455,3.884487077231735,-4.31151317881568
2.369469568525073,30.92559712807325,-0.026305294601467806,3.7750545648040092,-3.9764231739231244
2.3632489528928007,30.1809711987337,-0.035900861721254375,3.671204728591469,-3.6811467178062798
2.3552912620335857,29.45660118739958,-0.04367604687089343,3.5724953847497325,-3.419601839496595
2.3459289730596145,28.751498468770922,-0.04994684286882112,3.478531801536862,-3.1867977037424824
2.3354372235221166,28.064749278721532,-0.05497065250615952,3.388960098957033,-2.978613372191762
2.3240443471435395,27.395507088186346,-0.058958111279611605,3.30346180639483,-2.791626236093085
2.31194030437092,26.742985974626173,-0.062082316446582186,3.221749329206894,-2.622977927212815
2.2992834648870315,26.10645482784805,-0.06448607839230039,3.1435621385743198,-2.4702687585213687
2.28620609179179,25.485232259600085,-0.06628765256011301,3.0686635439053283,-2.3314740607027105
2.2728187969484006,24.878682111251486,-0.06758529587378545,2.996837939580665,-2.2048774506974236
2.259214176574996,24.28620947312355,-0.06846090786026082,2.927888441698696,-2.089017286432096
2.245469790309366,23.70725714412713,-0.06898295479603761,2.8616348482655125,-1.982643458634552
2.2316506119231874,23.141302472328327,-0.06920882906574918,2.797911869722505,-1.884682336751465
2.2178110528905304,22.587854526655775,-0.06918676126082156,2.7365675870030532,-1.7942081848478864
2.2039966391325976,22.046451557726055,-0.06895737631850428,2.6774621022941236,-1.7104197398242547
2.1902454049984574,21.5166587121029,-0.06855496502289755,2.620466353937434,-1.6326209303970973
2.1765890558085474,20.99806596952298,-0.06800852687620157,2.565461071861768,-1.5602049341926916
2.163053940266699,20.49028627694671,-0.06734262854228458,2.51233585390095,-1.4926409388422035
2.149661866121232,19.99295385690185,-0.06657811291238304,2.4609883465476377,-1.429463103503807
2.1364307861589156,19.50572267061804,-0.0657326867107839,2.4113235162904494,-1.3702613189128685
2.1233753765905146,19.02826501900816,-0.06482140897322701,2.363252999808367,-1.3146734436828165
2.1105075258595503,18.56027026672244,-0.06385709833641402,2.316694523048785,-1.2623787572503626
2.0978367486655074,18.101443676350698,-0.06285067360401393,2.2715713806686746,-1.213092419429623
2.0853705373753115,17.651505341430834,-0.06181143929794654,2.2278119685299447,-1.1665607659326802
2.0731146608748436,17.210189208282273,-0.060747325706733,2.1853493629556495,-1.1225573006597664
2.061073419185689,16.777242177855815,-0.05966509118481048,2.144120941308952,-1.0808792707722998
2.0492498607627256,16.352423279806892,-0.058570493044825304,2.104068039180271,-1.0413447308568955
2.037645968233562,15.935502911880604,-0.0574684322468077,2.065135640082607,-1.0037900188918598
2.026262817392133,15.526262138464432,-0.056363076167486516,2.027272094079101,-0.968067580036819
2.0151007134768086,15.124492042834987,-0.05525796298575473,1.9904288622153323,-0.934044085104899
2.0041593081170523,14.729993128212055,-0.05415609061181022,1.9545602840139864,-0.9015987994354864
1.9934376997968266,14.342574763248532,-0.05305999259044594,1.9196233656212263,-0.8706221651509712
1.9829345202376114,13.962054668038338,-0.051971803001707284,1.8855775864807305,-0.8410145657595604
1.9726480087326934,13.588258437124296,-0.05089331204747161,1.8523847226596881,-0.8126852470021226
1.9625760761542748,13.221019096341646,-0.04982601373671568,1.8200086851667976,-0.785551371928829
1.9527163600951691,12.860176690645943,-0.04877114685433983,1.7884153717902342,-0.7595371915871216
1.9430662723887755,12.505577900352158,-0.0477297302095975,1.757572531147632,-0.7345733155318204
1.9336230400674825,12.157075683459023,-0.04670259300333122,1.7274496377837212,-0.7105960687322309
1.924383740664889,11.81452894195293,-0.045690401022605145,1.6980177772772078,-0.6875469234319778
1.9153453326363987,11.47780221018229,-0.04469367926229692,1.6692495404291867,-0.6653719961815701
1.90650468156197,11.146765363569084,-0.04371283148199031,1.6411189257028844,-0.6440216016657051
1.8978585827007697,10.821293346081738,-0.042748157130012954,1.6136012491705707,-0.6234498561313933
1.889403780387551,10.501265915034725,-0.04179986600217368,1.5866730612995572,-0.6036143242255219
1.8811369846924728,10.186567401907112,-0.040868090948608216,1.5603120699765898,-0.5844757039013727
1.8730548857079674,9.877086487986482,-0.03995289889644587,1.5344970692297317,-0.5659975447775016
1.8651541657765862,9.572715993747511,-0.03905430041736738,1.5092078731599812,-0.5481459959496768
1.857431509931211,9.273352680967296,-0.0381722580363832,1.4844252546421828,-0.5308895797841295
1.849891931967571,8.978897949020784,-0.03722352160001562,1.460122064822924,-0.5118941053052705
1.8425396131558975,8.689256720517932,-0.036299666516719856,1.4362902202056003,-0.4937603170126442
1.8353696328406293,8.40433639827204,-0.035400136635963766,1.4129130022533336,-0.47643898255114864
1.8283771830462994,8.124047653048418,-0.03452436130733546,1.3899744499828743,-0.4598842157471728
1.82155757090245,7.848304276362796,-0.03367176013115637,1.3674593168733307,-0.44405321304412837
1.8149062201893444,7.577023041606964,-0.032841746999900945,1.3453530306849866,-0.428906013465617
1.8084186721367397,7.310123572942423,-0.032033733526146545,1.3236416559604292,-0.4144052797640739
1.8020905855901406,7.047528221446338,-0.031247131939845085,1.30231185900043,-0.4005160986694423
1.7959177366434984,6.789161948033772,-0.030481357526578184,1.281350875125242,-0.3872057983784847
1.7898960178239536,6.534952212716409,-0.029735830668869055,1.260746478048407,-0.37444378162467973
1.7840214369026313,6.284828869791067,-0.02900997854435382,1.2404869512050005,-0.362201372844708
1.7782901153954485,6.038724068581601,-0.028303236527474396,1.2205610608896635,-0.3504516781132216
1.7726982868091827,5.796572159385445,-0.027615049335183644,1.2009580310719035,-0.33916945665548415
1.7672422946804827,5.558309604301538,-0.026944871951814723,1.1816675197671584,-0.3283310028697462
1.761918590448937,5.323874892639612,-0.026292170363643928,1.1626795968520962,-0.31791403789980505
1.7567237311996056,5.093208460632233,-0.025656422129670155,1.1439847232216862,-0.30789760989474435
1.7516543773054725,4.866252615190682,-0.025037116811659595,1.1255737311938279,-0.2982620021787988
1.7467072899959577,4.6429514614638165,-0.0244337562834883,1.1074378060748156,-0.2889886486309036
1.7418793288738894,4.423250833975761,-0.02384585493719553,1.0895684688057592,-0.2800600556418629
1.7371674494000815,4.207098231133553,-0.0232729398008837,1.0719575596163073,-0.2714597300781614
1.732568700361831,3.994442752910153,-0.02271455058162013,1.0545972226177118,-0.26317211273609614
1.7280802213391917,3.785235041521137,-0.022170239644772202,1.0374798912724672,-0.25518251681884724
1.723699240180744,3.579427224925638,-0.021639571939706566,1.020598274682515,-0.24747707101298552
1.7194230704987257,3.376972862993153,-0.021122124880475608,1.0039453446423514,-0.24004266678030164
1.7152491091917805,3.177826896188183,-0.02061748818897476,0.9875143234073618,-0.23286690951622746
1.7111792060425843,2.9821209723745987,-0.02008154330298787,0.9695449147284891,-0.26085175630910473
1.7072126050146617,2.7899979944311113,-0.01958446697623801,0.9516848647063736,-0.2904164332563114
1.703341617555761,2.601436382862591,-0.019125407612769933,0.9339312509788347,-0.32145550398401257
1.6995587306249587,2.4164151314305578,-0.018703461695253457,0.9162812633414908,-0.3538658393825655
1.695856616519398,2.234913785123478,-0.018317679360352973,0.8987321997293202,-0.3875463894277332
1.6922281416357579,2.0569124188934254,-0.017967069476049344,0.8812814625711985,-0.42239795966988036
1.68866637426262,1.8823916170855384,-0.01765060425532643,0.8639265555076774,-0.4583229914678423
1.685164591493351,1.7113324534882999,-0.01736722343736419,0.8466650804647237,-0.49522534504738286
1.681716285343187,1.5437164719339656,-0.017115838064274747,0.8294947350786368,-0.5330100844605036
1.6783151681489146,1.3795256673791094,-0.01689533387845101,0.812413310469924,-0.5715832635111093
1.674955177324795,1.218742467395458,-0.016704574362744414,0.7954186893665803,-0.6108517116943935
1.6716304795442283,1.061349714000798,-0.016542403442923768,0.778508844580024,-0.6507228191713885
1.6683354744130194,0.9073306457588046,-0.016407647869165938,0.7616818378399213,-0.6911043197659746
1.665064797697036,0.7566688800750789,-0.01629911929066546,0.7449358189973401,-0.7319040709286813
1.66181332416449,0.609348395614429,-0.0162156160347973,0.7282690256091519,-0.7730298295591965
1.6585761701010504,0.4653535147614747,-0.01615592459959742,0.711679782920413,-0.8143890225168382
1.6553486955545296,0.3246688860428648,-0.016118820865610138,0.695166504265665,-0.8558885105744578
1.6521265063649329,0.18727946642481896,-0.0161030710303578,0.678727691914774,-0.897434344485343
1.6489054560353187,0.05317050339392182,-0.016107432265783827,0.6623619383941707,-0.9389315117335303
1.6456816474991436,-0.0776724832775173,-0.016130653095967243,0.646067928320248,-0.9802836724242981
1.6424514348406303,-0.2052637201883769,-0.01617147348916538,0.6298444407883527,-1.0213928826421266
1.639211425026237,-0.32961719950404955,-0.01622862465476674,0.6136903523683843,-1.062159303456629
1.6359584797075626,-0.4507466988175537,-0.016300828531978274,0.5976046407666625,-1.1024808935913775
1.6326897171590673,-0.5686658018165787,-0.016386796952975204,0.5815863892236112,-1.1422530835845939
1.6294025144178952,-0.6833879199117519,-0.016485230458744598,0.5656347917281437,-1.1813684290629212
1.626094509697932,-0.7949263149988326,-0.016594816740885775,0.5497491591426573,-1.2197162405185824
1.6227636051561323,-0.9032941235478518,-0.01671422867711188,0.5339289263475246,-1.2571821867252742
1.6194079700962174,-1.0085043822357278,-0.016842121922036817,0.5181736605312202,-1.2936478686487858
1.616026044703221,-1.1105700553660611,-0.01697713200792687,0.5024830707720876,-1.3289903604053084
1.6126165444121956,-1.2095040643513286,-0.017117870902328115,0.48685701908062184,-1.3630817134959796
1.6091784650258916,-1.3053193195691364,-0.01726292296071115,0.47129553309743594,-1.3957884202051425
1.6057110887095862,-1.398028754946104,-0.017410840202344343,0.45579882067225047,-1.4269708317004146
1.6022139910067192,-1.4876453656717032,-0.017560136826325852,0.4403672865837232,-1.456482526028693
1.5986870490369018,-1.5741822494999909,-0.01770928287184697,0.42500155169914927,-1.4841696208852615
1.5951304510585123,-1.6576526521616373,-0.017856696912048355,0.4097024749173094,-1.5098700257763293
1.5915447076019154,-1.7380700174820802,-0.018000737653920844,0.3944711782871336,-1.5334126280485174
1.5879306644068083,-1.8154480428857056,-0.018139694297149265,0.37930907574910855,-1.5546164072962956
1.5842895174288922,-1.889800741061073,-0.01827177548201183,0.36421790600457316,-1.5732894729899771
1.5806228302177292,-1.9611425086693544,-0.018395096629619384,0.3491997700782441,-1.5892280209540428
1.5769325540101913,-2.0294882030969603,-0.018507665445759516,0.33425717419780376,-1.6022152058050732
1.5732210509335436,-2.094853228383215,-0.01860736532071593,0.3193930786647531,-1.6120199289771768
1.5694911207705595,-2.157253631591921,-0.01869193630912373,0.30461095342229816,-1.6183955460281887
1.5657460318084202,-2.2167062110362963,-0.01875895331227194,0.2899148410214403,-1.6210785032757928
1.5619895563767843,-2.273228637900239,-0.01880580100408762,0.2753094276179768,-1.619786923549598
1.5582260117832343,-2.3268395929077528,-0.01882964493141276,0.260800122457145,-1.6142191755637658
1.5544603074837924,-2.377558919748573,-0.01882739806300611,0.24639314595103645,-1.6040524834665972
1.5506979994941397,-2.4254077969258034,-0.01879568183351956,0.23209562582123938,-1.5889416659632032
1.5469453532723163,-2.470408929478289,-0.018730780384714412,0.2179156997035933,-1.568518143103222
1.5432094166165091,-2.5125867615333917,-0.018628586173357164,0.20386262084741819,-1.5423894207842113
1.5394981045720637,-2.5519677096900253,-0.01848453427109669,0.189946860718939,-1.5101393689817233
1.5358202990129506,-2.5885804155513767,-0.018293521320033507,0.17618019789459566,-1.4713297650223285
1.532185966592846,-2.6224560129237986,-0.01804980288101376,0.16257577582958935,-1.4255037992144195
1.5286063003813406,-2.6536284006930657,-0.017746859234040634,0.14914810186308428,-1.372192565129919
1.5250938931001152,-2.682134505369369,-0.017377213578211426,0.13591294489995828,-1.3109260147519097
1.5216629541026903,-2.708014506699328,-0.016932176396038032,0.12288706839966716,-1.241250481377815
1.5183295891819397,-2.731311984388732,-0.016401472811469534,0.11008770849435584,-1.162755665612942
1.5151121737230042,-2.7520739230191325,-0.015772681777884295,0.0975316778096452,-1.0751148567078475
1.5120318685318455,-2.7703504865074606,-0.015030370133703405,0.08523395707363822,-0.9781428022958614
1.509113358479572,-2.7861944486126546,-0.014154730389030003,0.07320566397830966,-0.8718751967308779
1.5063859444163654,-2.7996601590578507,-0.013119410243037283,0.061451440473649074,-0.7566703789125244
1.5038852022776075,-2.810801975654428,-0.011888011144539908,0.04996672549211789,-0.6333242099395682
1.5016555726970702,-2.8196722799740783,-0.010408284660834509,0.03873631770441428,-0.5031691832702568
1.4997545696970678,-2.8263196545504314,-0.008601745339189866,0.027737428059119384,-0.368098330138418
1.4982602675431087,-2.8307888137617567,-0.006341276200399575,0.01695416405414884,-0.23042667746522816
1.4972879666580206,-2.833126771930395,-0.003381732650483289,0.006425417632240929,-0.0925094688902274
