x,y,v_x,v_y,omega
2.375,32.48,0.0,3.1794871794871797,-5.673469387755102
2.373787438967364,31.882930141552116,-0.012763800343537756,3.1054586989115682,-5.316353680891018
2.3703261514987957,31.299640413726,-0.02367080458875953,3.0344331729422858,-4.992829636945723
2.364944344486877,30.729579188893833,-0.03297979553669924,2.966211298975259,-4.698787278216674
2.3579247852858316,30.172230922369586,-0.04091030131640942,2.900612559174701,-4.430713660029714
2.3495116335432735,29.627112812644313,-0.04764919071051958,2.837472806354498,-4.185593616656392
2.3399161367592543,29.09377188206884,-0.053356038594946545,2.776642252334698,-3.960829055173226
2.329321399069181,28.57178240929972,-0.05816751603740421,2.7179837768139317,-3.754172941503772
2.3178863899336863,28.060743658563993,-0.06220100117832982,2.6613714940884527,-3.563675008123209
2.305749326296413,27.56027786135196,-0.06555756342454327,2.6066895291961094,-3.3876368750897408
2.2930305359157175,27.07002841433717,-0.06832444058277953,2.5538309656964224,-3.224574776470706
2.279834889230915,26.589658263741335,-0.0705771034677744,2.5026969353123376,-3.07318846591288
2.266253870997086,26.11884845143965,-0.07238098320410923,2.4531958257580455,-2.932335168722792
2.252367350055305,25.657296802155308,-0.0737929214462147,2.405242587761337,-2.8010076754665056
2.2382450952769073,25.204716734355713,-0.07486239201060403,2.358758125918639,-2.678315849868371
2.2239480773844176,24.760836180111955,-0.07563253317349963,2.31366876085775,-2.5634709635384345
2.209529589589677,24.32539660135067,-0.07614102256061027,2.269905752418972,-2.455772380599865
2.195036214478668,23.898152091713435,-0.07642082071317043,2.2274048753413607,-2.3545962032289762
2.1805086600615855,23.478868554721565,-0.07650080472980203,2.186106040362537,-2.259385559457806
2.1659824841993998,23.06732295018235,-0.07640630960899505,2.1459529547870675,-2.169642271129559
2.1514887235597273,22.66330260181417,-0.07615959186124135,2.106892817509603,-2.084919685561648
2.137054440722741,22.266604559947922,-0.07578022747545927,2.068876044240393,-2.004816491515777
2.1227032009544216,21.877035013910877,-0.0752854542963202,2.0318560193074373,-1.9289713702529727
2.1084554884115763,21.49440874933847,-0.07469046720731676,1.9957888709284324,-1.8570583571343469
2.0943290700778325,21.11854864620887,-0.07400867314788116,1.9606332672778866,-1.7887828094928073
2.080339314501579,20.749285213868973,-0.07325191186531639,1.9263502310367953,-1.7238778931979046
2.066499471374322,20.386456159730855,-0.07243064736896189,1.8929029704170897,-1.6621015141408313
2.052820917117759,20.029905988674685,-0.07155413427907271,1.8602567249110256,-1.6032336323178362
2.039313370912576,19.67948563050581,-0.0706305626175906,1.8283786242350057,-1.5470739057191827
2.0259850849792365,19.33505209308664,-0.06966718404914347,1.7972375591246434,-1.4934396191839985
2.0128430123922687,18.996468139003937,-0.06867042212946417,1.766804062798533,-1.4421638600388107
1.9998929552596953,18.66360198384366,-0.06764596873972854,1.7370502020465304,-1.3930939079259606
1.9871396957155882,18.336327014332536,-0.06659886856666002,1.7079494770179215,-1.3460898109318193
1.9745871118459055,18.014521524771418,-0.06553359321947633,1.679476728888582,-1.3010231240941477
1.962238280387039,17.698068470332736,-0.0644541063475381,1.6516080546764933,-1.2577757897261683
1.9500955677956684,17.386855235925857,-0.06336392093004847,1.6243207285538106,-1.216239141842991
1.9381607110814723,17.08077341945134,-0.062266149745698045,1.5975931290726855,-1.1763130193971747
1.9264348896159786,16.77971862837008,-0.06116354989107809,1.5714046717826742,-1.137904975093147
1.9149187889770047,16.483590288607488,-0.06005856209812185,1.5457357467709258,-1.100929568311845
1.903612657755225,16.19229146489742,-0.05895334549955818,1.5205676607034746,-1.065307732184562
1.8925163581343214,15.905728691746763,-0.0578498084046902,1.49588258298765,-1.0309662061479137
1.8816385638616901,15.623814234595557,-0.05665328920195547,1.4716380186039926,-0.9950227834531653
1.8709864413535642,15.34646337657541,-0.05547431614673725,1.447844697397539,-0.9606625144499268
1.86055659837983,15.073591866258688,-0.05431350462941273,1.4244869901468977,-0.9277973794619606
1.8503455383572596,14.805118356185726,-0.053171337713432756,1.4015499579895576,-0.8963451787871753
1.8403496839609015,14.540964275353893,-0.052048182248234,1.379019313924472,-0.8662290865027441
1.8305653978491496,14.281053708778007,-0.050944303138626114,1.3568813868743261,-0.8373772430525762
1.8209890008323248,14.025313283654594,-0.049859875985846194,1.335123088108967,-0.8097223828559087
1.8116167877761946,13.77367206169858,-0.04879499828920709,1.3137318798490702,-0.7832014935777046
1.8024450414981539,13.526061437253848,-0.04774969937437891,1.292695745884964,-0.7577555040566173
1.7934700448841223,13.282415040809095,-0.0467239491943757,1.2720031640598015,-0.7333289982004039
1.7846880914281282,13.042668647577894,-0.04571766613187857,1.2516430804791623,-0.7098699524369699
1.7760954943735534,12.806760090826899,-0.04473072391627529,1.2316048853208026,-0.6873294945561108
1.7676885946147403,12.574629179659183,-0.043762957755444386,1.2118783901288182,-0.665661681996326
1.7594637674997649,12.346217620980774,-0.04281416977061038,1.1924538064860244,-0.6448232978261563
1.7514174286593855,12.121468945397734,-0.04188413381233065,1.1733217259670254,-0.6247736628432212
1.7435460389731816,11.900328436809048,-0.04097259972665814,1.1544731012823057,-0.605474462369052
1.7358461087715522,11.6827430654768,-0.04007929713259801,1.1358992285308327,-0.5868895864561235
1.7283142013612804,11.468661424370278,-0.03920393876500122,1.1175917304851704,-0.5689849823471107
1.7209469359526703,11.258033668594479,-0.0383462234308946,1.0995425408390358,-0.5517285181370292
1.7137409900576615,11.050811457726269,-0.03750583862183034,1.0817438893526452,-0.5350898566880353
1.706693101420682,10.846947900893333,-0.036682462820058444,1.064188287836137,-0.5190403389355543
1.6998000695372264,10.646397504441893,-0.03587576753210455,1.0468685169158802,-0.5035528758042292
1.6930587568091142,10.449116122049286,-0.03508541907960391,1.0297776135326075,-0.4886018480239232
1.6864660893800274,10.255060907146898,-0.03431108017394172,1.0129088591241036,-0.47416301320056814
1.6800190576901617,10.064190267527486,-0.0335524112983272,0.996255768448643,-0.46021341955479467
1.6737211682406712,9.87666663944248,-0.0327411618542068,0.9776771587619498,-0.4893262402614755
1.6675729474922845,9.692662547082403,-0.03197695128670491,0.9592080239757048,-0.5199484857235025
1.6615655851590327,9.512157462035677,-0.03125844169489196,0.9408455028319439,-0.5519704389742206
1.6556905279807368,9.335131388764157,-0.03058426544506411,0.9225868473946005,-0.5852845024689607
1.6499394849762459,9.16156484341586,-0.02995302933905149,0.9044294194295639,-0.6197849566127338
1.6443044319442652,8.99143883328819,-0.029363318366006426,0.8863706871775034,-0.65536772209652
1.6387776152882911,8.824734836867574,-0.028813699065299955,0.8684082225131962,-0.6919301250245798
1.6333515552371916,8.66143478437247,-0.02830272252522233,0.8505396984879053,-0.7293706638109895
1.6280190485285557,8.501521038726967,-0.02782892703936709,0.8327628872542556,-0.7675887768114762
1.6227731706180295,8.344976376892085,-0.02739084043985454,0.8150756583760792,-0.8064846096363367
1.6176072774744734,8.191783971481112,-0.02698698212389464,0.797475977528907,-0.8459587810613511
1.6125150070178838,8.041927372583846,-0.026615864787576677,0.7799619056002001,-0.8859121464157056
1.607490280254637,7.895390489722626,-0.026275995878178447,0.7625315982021004,-0.9262455572784394
1.60252730216271,7.752157573860146,-0.025965878773684378,0.7451833056134974,-0.9668596162571645
1.5976205623781317,7.612213199375464,-0.0256840136955627,0.7279153731726178,-1.0076544255540263
1.5927648357330293,7.475542245920174,-0.025428898358146764,0.710726242146219,-1.0485293279431982
1.5879551826952647,7.342129880061126,-0.025199028355163654,0.6936144511069063,-1.0893826386907057
1.5831869497598272,7.2119615366096355,-0.02499289728101992,0.6765786378561713,-1.130111366839984
1.5784557698429018,7.085022899529225,-0.02480899658135267,0.6596175419376084,-1.1706109241642038
1.573757562730889,6.961299882304864,-0.024645815124043444,0.6427300077925063,-1.21077481994787
1.569088535638664,6.840778607645788,-0.024501838478326866,0.6259149886188068,-1.2504943396043715
1.564445183934076,6.723445386381581,-0.024375547885756226,0.6091715510044212,-1.2896582049619172
1.5598242920891865,6.609286695396516,-0.02426541890255716,0.5924988804173159,-1.328152213856735
1.55522293492306,6.498289154430328,-0.024169919688245816,0.5758962876478114,-1.365858856458887
1.5506384792062042,6.390439501554006,-0.024087508910237653,0.5593632163134695,-1.4026569055224996
1.5460685857030292,6.285724567106595,-0.024016633228446552,0.5428992515540162,-1.438420977499359
1.5415112117361662,6.184131245852949,-0.02395572431747835,0.5265041300633013,-1.473021061184711
1.5369646143652047,6.08564646709231,-0.02390319537685185,0.510177751627639,-1.5063220102807084
1.532427354282601,5.9902571624129735,-0.023857437071609436,0.4939201923653737,-1.538182995973077
1.5278983005413247,5.89795023074857,-0.023816812836562753,0.4777317198915141,-1.5684569153311854
1.5233766362424785,5.808712500345788,-0.02377965346708171,0.4616128106640962,-1.5969897510778484
1.518861865326887,5.7225306872011465,-0.02374425090756451,0.4455641698058253,-1.6236198780585689
1.5143538206328189,5.639391349464713,-0.023708851135257124,0.4295867537355888,-1.6481773116088143
1.5098526734029192,5.559280837240834,-0.02367164602158254,0.4136817959894554,-1.670482893028661
1.5053589444475302,5.48218523713922,-0.023630764035144615,0.39785083665912563,-1.690347407608954
1.5008735171993908,5.408090310843626,-0.023584259629477838,0.38209575592607753,-1.7075706312315675
1.4963976529269019,5.336981426869819,-0.023530101133565278,0.3664188122192535,-1.72194030266166
1.4919330084105873,5.268843484579978,-0.023466156932903583,0.3508226855685609,-1.7332310205126473
1.4874816564312576,5.203660829408928,-0.023390179691617562,0.33531052675828815,-1.7412030668575538
1.483046109470246,5.141417158142168,-0.023299788319028947,0.31988601289182667,-1.7456011641080023
1.4786293470842673,5.082095412972862,-0.02319244732285264,0.3045534099429868,-1.7461531788438955
1.4742348474932356,5.0256776629660465,-0.023065443109059572,0.28931764276033456,-1.7425687968536512
1.4698666240137839,4.9721449714912325,-0.0229158566746451,0.2741843727640292,-1.7345382093333883
1.465529267091898,4.921477248178427,-0.022740531976784092,0.2591600831602457,-1.7217308733105028
1.4612279928470016,4.873653084053053,-0.022536039022127453,0.24425217079105732,-1.7037944432614602
1.4569686992559268,4.828649568782904,-0.02229863035760514,0.2294690425789291,-1.6803540204425569
1.4527580314089645,4.786442089533477,-0.02202418908410386,0.2148202126782053,-1.6510119386307394
1.4486034577108053,4.74700411194048,-0.021708165633361594,0.20031639356385578,-1.6153484097203308
1.4445133595570874,4.7103069454140964,-0.021345499142617498,0.18596956987175506,-1.572923503830433
1.4404971380240619,4.676319497745581,-0.020930516994492495,0.17179303716524458,-1.5232811550297283
1.4365653426809304,4.64500802830052,-0.020456802406891537,0.15780137804593963,-1.4659561893849835
1.4327298301268643,4.6163359156429244,-0.019917013951700698,0.1440103341392735,-1.4004857935821975
1.4290039638486554,4.59026346509966,-0.019302631082076263,0.13043651368455397,-1.3264274007084802
1.4254028734330753,4.566747795436985,-0.01860358381876605,0.1170968511857175,-1.243385655236172
1.421943801559746,4.545742861943715,-0.01780769905838439,0.10400771190132455,-1.1510518325523877
1.4186465839214826,4.527199694646459,-0.016899855028600568,0.09118352280664671,-1.0492595134973792
1.4155343339614652,4.5110669497017035,-0.015860670866318146,0.07863484503289905,-0.9380596772254497
1.4126344469391845,4.497291874320922,-0.01466445568400728,0.06636594844901546,-0.8178150775800416
1.4099801068961635,4.485821737837117,-0.013275965821476318,0.05437233032787783,-0.6893051084086546
1.4076126009619687,4.476605621189417,-0.011645149275311252,0.04263942385843945,-0.5538152569577586
1.4055850019401621,4.469596079189596,-0.0096979983226514,0.03114522877124057,-0.4131599055347838
1.403968514521524,4.464749390067745,-0.007317658715645791,0.0198725514587871,-0.26956456759572206
1.4028657515949252,4.4620210122553665,-0.004290372090657831,0.00884721498730038,-0.12533797534818222
