x,y,v_x,v_y,omega
2.375,32.48,0.0,2.923076923076923,-5.428571428571429
2.373824941459079,31.902043978961515,-0.011750585409207566,2.856483287307888,-5.096565956367557
2.370466273136908,31.337144579246154,-0.021836097812503605,2.7925107098457396,-4.794812551214876
2.3652344493001523,30.78479459058478,-0.030482140555053258,2.7309891767679657,-4.51971582451831
2.358398133660313,30.244519232926745,-0.03788101584334283,2.6717643998124183,-4.2681886726472404
2.3501903141682834,29.715873210340256,-0.04419717907695331,2.614695826052446,-4.037569899593216
2.340813426325901,29.19843813028094,-0.049571699346868954,2.5596549745407375,-3.82555687498437
2.3304436636291785,28.691820229384845,-0.05412592762035554,2.506524034420185,-3.6301501687319155
2.319234617997409,28.19564835852925,-0.05796452869734023,2.4551946741357753,-3.449607792143546
2.3073203652335317,27.709572188851872,-0.06117799894143106,2.405567022638014,-3.2824071934940964
2.2948180887456973,27.233260607395877,-0.063844765936914,2.357548791921948,-3.1272135498312092
2.2818303175105337,26.766400276538274,-0.06603294641472175,2.311054516654087,-2.982853198778772
2.268446840521777,26.308694335718734,-0.06780182347284595,2.2660048915412982,-2.84829128761234
2.254746348957218,25.859861227476816,-0.06920309217274254,2.222326190877882,-2.7226128988266827
2.240797848419036,25.419633632624038,-0.07028191320907601,2.179949757649917,-2.605007054183609
2.226661876405535,24.9877575016706,-0.07107780692593767,2.138811551884445,-2.4947531119856814
2.212391554308758,24.56399117150654,-0.07162541404183523,2.0988517497561556,-2.3912091619160454
2.1980334984333325,24.148104557889113,-0.07195514471241742,2.060014386418131,-2.2938020933755783
2.183628610587171,23.73987841557831,-0.0720937337491958,2.022247036689865,-2.2020190707546243
2.1692127655393083,23.339103659041463,-0.07206471672943407,1.9855005286785938,-2.1154001954962283
2.154817409943713,22.9455807375559,-0.07188883922651655,1.9497286861770242,-2.0335321724516264
2.1404700850865908,22.559119059307328,-0.07158440934470678,1.9148880963087025,-1.9560428286888785
2.126194883945521,22.179536459735473,-0.07116760206598734,1.8809378994098729,-1.8825963579902512
2.112012851485137,21.80665870993791,-0.07065272253785393,1.8478395985657419,-1.8128891848607194
2.097942335802076,21.440319061423658,-0.07005243429275611,1.8155568865767688,-1.7466463588345031
2.0839992966280794,21.080357823922938,-0.06937795744720952,1.7840554884304325,-1.6836184038954587
2.0701975767688183,20.72662197331924,-0.06863924114540362,1.7533030176065467,-1.623578559467335
2.0565491412683308,20.37896478708278,-0.0678451138594695,1.7232688447580962,-1.5663203591191273
2.0430642884210695,20.037245504857815,-0.06700341461314428,1.6939239774915138,-1.5116555012207895
2.0297518361859037,19.701329012096085,-0.0661211077385126,1.6652409501257897,-1.4594119725592845
2.0166192870729023,19.371085544839186,-0.06520438339150367,1.6371937224431954,-1.4094323916142646
2.0036729741609127,19.046390413938937,-0.06425874572839277,1.6097575865593163,-1.3615725429835468
1.9909181905508244,18.72712374716906,-0.06328909037248794,1.5829090811394437,-1.3157000784934445
1.9783593042566654,18.413170247827654,-0.062299772569102435,1.5566259122746033,-1.271693363952783
1.9659998602766624,18.104418968559635,-0.061294667230928426,1.530886880405565,-1.2294404534145371
1.9538426713626345,17.800763099244207,-0.06027722190935025,1.5056718127487536,-1.1888381752799284
1.9418898988131637,17.502099767895785,-0.059250503585358806,1.4809615007354278,-1.1497913166862135
1.9301554387992512,17.2083328231217,-0.05809409655376527,1.456707947005427,-1.1086236212535334
1.918651200019735,16.919369509362884,-0.05694829124139486,1.4329251905827478,-1.0693290423630835
1.9073749274017948,16.635117344183413,-0.05581443493800792,1.4095964612119483,-1.0318002233600638
1.8963241170736678,16.355487122592493,-0.05469366834326184,1.386705754697275,-0.9959371271026934
1.8854960552876625,16.080392768247112,-0.05358694951679101,1.3642377887565167,-0.9616464575820022
1.8748878528252408,15.809751193179931,-0.05249507510742503,1.3421779619152931,-0.9288411333478664
1.8644964753963542,15.5434821654687,-0.051418699181443504,1.3205123151970148,-0.8974398075640854
1.8543187704851918,15.281508184310365,-0.050358349930178264,1.2992274963863415,-0.8673664300853823
1.8443514910418872,15.02375436200531,-0.04931444450286973,1.2783107266641973,-0.8385498474508083
1.8345913163735257,14.770148312395836,-0.048287302180742994,1.2577497694305475,-0.810923437130033
1.8250348705472335,14.520620045338038,-0.0472771560821799,1.237532901147445,-0.7844247727490918
1.8156787385824054,14.275101866818343,-0.04628416356610077,1.2176488840495263,-0.7589953173669228
1.8065194806777167,14.033528284355153,-0.04530841548078553,1.1980869405823529,-0.7345801421791694
1.797553644690841,13.795835917352825,-0.04434994438797421,1.1788367294409248,-0.7111276682961768
1.7887777770643574,13.561963412099587,-0.043408731876860056,1.15988832309147,-0.6885894294821365
1.7801884323697472,13.331851361123505,-0.042484715069241646,1.1412321866693687,-0.6669198539556453
1.7717821816222843,13.105442226641077,-0.04157779240538785,1.1228591581549,-0.6460760635417535
1.7635556195027575,12.882680267851935,-0.040687828789880386,1.1047604297365234,-0.6260176886346938
1.7555053706070045,12.663511471850416,-0.039814660167650895,1.0869275302786752,-0.6067066975813404
1.7476280948309928,12.447883487940782,-0.03895809759246481,1.0693523088176837,-0.5881072392301895
1.7399204919874376,12.235745565157469,-0.038117930843086525,1.0520269190154317,-0.5701854975111332
1.7323793057395118,12.027048492805338,-0.037293931636170806,1.0349438045058779,-0.552909557019164
1.7250013269279487,11.821744543847295,-0.03648585647946143,1.0180956850745653,-0.536249278671811
1.7177833963595974,11.619787420978259,-0.03569344920404988,1.0014755436158083,-0.52017618459685
1.7107224071181748,11.421132205235036,-0.03491644321017732,0.9850766138164374,-0.5046633514847333
1.7038219211113932,11.225919348788743,-0.03408841685763851,0.9670519506464789,-0.5264392932875867
1.6970827134755668,11.0343001695433,-0.03330365950062561,0.9491398418079424,-0.5499470978981194
1.6904962283576699,10.846252461419006,-0.03256119167834356,0.9313372394349896,-0.575073536597307
1.6840541110169172,10.66175461575866,-0.03185998172918529,0.9136412171684627,-0.6017080008355012
1.6777482176904677,10.480785597472455,-0.031198951535308987,0.8960489656936013,-0.6297422526236464
1.6715706243618549,10.303324922033788,-0.03057698175081916,0.8785577886930546,-0.6590701808465329
1.6655136345318056,10.12935263324416,-0.029992916549673617,0.8611650992032072,-0.6895875624767384
1.6595697860842307,9.958849281687382,-0.029445567926075406,0.8438684163645691,-0.7211918276797408
1.6537318573339306,9.791795903794952,-0.02893371957692391,0.8266653625597381,-0.753781827805096
1.6479928723369515,9.628174001445455,-0.02845613039286669,0.8095536609352508,-0.7872576052554313
1.642346105539506,9.467965522021277,-0.028011537581588333,0.7925311333065378,-0.8215201642141492
1.6367850858369302,9.3111528388458,-0.02759865944416993,0.7755956984482205,-0.8564712411938777
1.6313036001102503,9.15771873192346,-0.02721619782262814,0.7587453707751818,-0.8920130743405094
1.6258956963045805,9.007646368903618,-0.026862840234071483,0.7419782594232449,-0.9280481703916919
1.6205556861107464,8.860919286187098,-0.0265372617042681,0.7252925677419683,-0.9644790681433587
1.615278147309242,8.717521370091298,-0.026238126310777595,0.7086865932160511,-1.0012080972226978
1.6100579258338508,8.57743683798607,-0.025964088443132437,0.6921587278362272,-1.03813713090016
1.6048901376110543,8.440650219307912,-0.025713793784832815,0.6757074589453593,-1.075167331595913
1.59977017023066,8.307146336354293,-0.02548588001911194,0.6593313705908309,-1.1121988876467015
1.5946936845029984,8.176910284753173,-0.025278977257503478,0.6430291454203544,-1.1491307397964312
1.589656615958532,8.049927413494629,-0.025091708187162796,0.6267995671650873,-1.185860295756997
1.5846551763468537,7.92618330440196,-0.0249226879296196,0.6106415237615959,-1.2222831310539184
1.5796858551938788,7.805663750908511,-0.02477052360012762,0.5945540111728711,-1.2582926742232923
1.574745421478568,7.688354735993379,-0.024633813552979063,0.5785361379784536,-1.2937798742615716
1.569830925493869,7.574242409114039,-0.02451114629401324,0.5625871308149379,-1.3286328480471483
1.5649397009607666,7.463313061956452,-0.024401099037009787,0.546706340760926,-1.3627365052524203
1.5600693674695008,7.355553102802848,-0.024302235875648507,0.5308932507751044,-1.395972148047412
1.5552178333282196,7.2509490292940555,-0.024213105537162022,0.5151474843128078,-1.4282170426624785
1.550383298906742,7.149487399336227,-0.024132238677615114,0.4994688152654639,-1.459343959631036
1.5455642605717994,7.05115479987078,-0.024058144671812255,0.48385717938901746,-1.489220679278687
1.540759515320314,6.955937813190669,-0.023989307843041593,0.46831268741208115,-1.5177094587707325
1.5359681662291031,6.863822980445214,-0.023924183069066136,0.4528356400424727,-1.544666456788721
1.5311896288531168,6.774796761928748,-0.02386119069079762,0.43742654512219414,-1.5699411116977413
1.526423638720165,6.688845493694934,-0.02379871063872152,0.4220861372159355,-1.5933754689185247
1.5216702600883816,6.605955339977662,-0.023735075679112178,0.40681539995677723,-1.61480345317451
1.5169298961537672,6.526112240830528,-0.023668563667032187,0.3916155915145437,-1.6340500814057322
1.5122033009195062,6.449301854319444,-0.02359738867557722,0.37648827359629244,-1.650930612518405
1.5074915929669332,6.375509492516521,-0.02351969085015237,0.36143534443292424,-1.6652496309009595
1.5027962714007363,6.304720050448456,-0.023433524811817985,0.34645907624773076,-1.6768000619708747
1.4981192342791982,6.236917927050023,-0.023336846403561543,0.33156215773661796,-1.685362120190985
1.4934627998852719,6.172086937065629,-0.023227497535702215,0.3167477421073016,-1.6907021933967237
1.4888297312478607,6.110210212733641,-0.0231031888384112,0.30201950121258975,-1.6925716724657052
1.4842232643874478,6.051270093987373,-0.022961479765717857,0.2873816862500977,-1.6907057431442245
1.479647140839996,5.995248005826838,-0.02279975570879845,0.272839195355248,-1.6848221683855968
1.4751056451136386,5.942124321477607,-0.022615201554778006,0.2583976481370547,-1.674620106534277
1.470603647863019,5.891878209991656,-0.02240477095141794,0.24406346672244555,-1.6597790355362612
1.466146655740204,5.84448746711216,-0.02216515027672917,0.22984396207251068,-1.6399578895730667
1.4617408691210259,5.799928328600341,-0.021892715915053977,0.21574742304566846,-1.6147945671354687
1.457393249247049,5.758175265929619,-0.021583482824715998,0.20178320366155353,-1.583906045748557
1.4531115968234456,5.719200765472646,-0.021233041411315066,0.1879618009081721,-1.5468894484235998
1.4489046448650544,5.682975094308791,-0.020836478172596963,0.17429491073036685,-1.5033245643090352
1.4447821697387233,5.649466058949415,-0.02038827309071526,0.1607954428634121,-1.4527785492009828
1.4407551261576668,5.61863876815335,-0.019882162719851194,0.14747746509724868,-1.394813842722849
1.4368358147470182,5.590455418290897,-0.019310951386633312,0.13435603352728637,-1.329000760444563
1.4330380953737345,5.564875130240065,-0.01866624234620382,0.12144684698102393,-1.254936761657477
1.4293776667685087,5.541853881300945,-0.01793804370605322,0.10876564241018466,-1.1722750256031098
1.4258724447213669,5.5213445941182435,-0.01711417676536693,0.09632722941681052,-1.080765548403532
1.4225430898828502,5.503297464937905,-0.016179371619800324,0.08414406238658709,-0.9803121059866899
1.4194137659284616,5.487660628192614,-0.015113867924085169,0.07222430506630707,-0.8710472220368652
1.4165132559941236,5.474381244804761,-0.0138912314192937,0.060569528812219456,-0.7534230199685165
1.4138766424023543,5.4634070291327745,-0.012474904498398477,0.04917262790763635,-0.6283059206297
1.4115478952775669,5.454688025195303,-0.010812566749477014,0.038017411467098104,-0.4970453369144645
1.4095840379708862,5.448177992422245,-0.00882600631732987,0.027082916263492938,-0.36146326652889904
1.408062564321083,5.443833801753641,-0.0063887301807019296,0.016358990422561368,-0.22369645132406363
1.4070982924111852,5.441608324631051,-0.003253988918274933,0.005895780803349373,-0.08583963361195515
