x,y,v_x,v_y,omega
2.375,32.48,0.0,2.564102564102564,-5.673469387755102
2.3741640712649175,32.022967182296625,-0.009288097056471167,2.5140398548237526,-5.390901934610858
2.371754933011666,31.57480381046837,-0.01748010575743909,2.465553165490224,-5.128805263102952
2.367958946673087,31.13523390344585,-0.024697520226771054,2.4185569125377597,-4.885208106945319
2.362941930940861,30.70399627957444,-0.031047099020181657,2.372972241589029,-4.658367826102637
2.35685163388624,30.28084341141635,-0.03662286825338352,2.328726293500866,-4.4467397024072115
2.3498198721231502,29.86554040330374,-0.04150781800316963,2.2857515744170107,-4.248950927077132
2.3419643874557643,29.457864074529965,-0.045775344967784806,2.243985411958302,-4.063778472650686
2.3333904628428486,29.057602133965407,-0.04949048406461275,2.203369483203453,-3.89013019714737
2.3241923325549196,28.664552434219082,-0.05271096357904479,2.163849402866801,-3.727028650451828
2.3144544157422198,28.27852229535891,-0.055488112117618234,2.1253743622462236,-3.573597149748433
2.304252398000996,27.89932788974602,-0.057867640562643825,2.0878968112303338,-3.4290477680902467
2.2936541817143317,27.526793680803394,-0.05989031817807246,2.051372177021089,-3.29267094221224
2.2827207227903945,27.16075190958239,-0.06159255875456427,2.0157586143233615,-3.1638264557902764
2.271506768799169,26.801042123856075,-0.06300693003683248,1.9810167826357035,-3.0419355950233924
2.260061511319114,26.447510745189607,-0.06416259751933114,1.9471096469917122,-2.926474306617348
2.2484291634688685,26.100010670042803,-0.0650857119278408,1.914002299083892,-2.8169672154770837
2.236649472053106,25.75840090146916,-0.06579974824730277,1.8816617961788056,-2.7129823818497028
2.224758172445348,25.422546208406846,-0.0663258029500053,1.850057015624681,-2.614126696221403
2.2127873932230604,25.092316809923688,-0.06668285507541022,1.8191585230770706,-2.5200418256914614
2.200766016628446,24.767588082091365,-0.06688799597586234,1.7889384528376504,-2.430400638404447
2.188720000124918,24.44824028543262,-0.06695663184111618,1.759370398926169,-2.3449040433822756
2.1766726636319707,24.1341583111168,-0.06690266252496291,1.7304293156940975,-2.2632781921333174
2.164644946431739,23.825231444279076,-0.0667386396998298,1.7020914269472716,-2.185271996027443
2.152655637233766,23.521353143012703,-0.06647590694432025,1.6743341426790443,-2.1106549198576623
2.1407215804477464,23.222420831734944,-0.06612472401145399,1.6471359826294119,-2.0392150174596244
2.1288578613367912,22.928335707759853,-0.06569437722137735,1.6204765059827024,-1.9707571798922123
2.1170779723972033,22.63900256002745,-0.06519327766293569,1.5943362465995319,-1.905101570629164
2.1053939630275416,22.354329599040984,-0.06462904866663821,1.5686966532501008,-1.8420822255830434
2.093816574303625,22.074228297154505,-0.06400860382132549,1.5435400343774341,-1.7815457986697918
2.0823553604618,21.79861323843302,-0.0633382166433925,1.518849506972381,-1.7233504360999543
2.0710187985058957,21.527401977378553,-0.06262358286665899,1.494608949188374,-1.6673647647141814
2.0598183202845344,21.260518856928353,-0.06182617514846733,1.4707590558138681,-1.6112120567559776
2.048763243404326,20.99789073506507,-0.061008012409400916,1.4473311871114738,-1.5574388584104422
2.0378569975149787,20.739442925782306,-0.06017249747223403,1.4243111382525926,-1.5059175245579197
2.0271024303685925,20.485103245037493,-0.05932269304317185,1.4016853144675592,-1.4565285522459168
2.0165018661105245,20.23480190395088,-0.05846135426869566,1.37944069760591,-1.4091599777566055
2.0060571580013535,19.988471407824804,-0.05759095805542252,1.3575648149060877,-1.3637068243616486
1.9957697361218678,19.746046460601093,-0.05671372949442063,1.336045709801797,-1.3200705959993566
1.9856406505550037,19.507463874404216,-0.055831665692959255,1.3148719146079209,-1.2781588126042303
1.9756706104871813,19.272662483844638,-0.05494655728284436,1.2940324249429698,-1.23788458325766
1.9658600196257023,19.041583064781584,-0.05406000784470044,1.2735166757576544,-1.1991662137179055
1.9562090082881631,18.814168257266846,-0.053173451461290794,1.2533145188505155,-1.1619268452335225
1.946717462483567,18.590362492411742,-0.0522881685897769,1.2334162017617634,-1.126094121852351
1.9373850502724783,18.37011192293807,-0.05140530042231892,1.2138123479456926,-1.0915998837126153
1.9282112456647045,18.153364357191222,-0.0505258618862793,1.1944939381303605,-1.0583798840475485
1.9191953502872094,17.940069196409226,-0.04965075341922087,1.1754522927807478,-1.026373527853726
1.910336513031912,17.730177375055998,-0.048780771639638544,1.156679055588441,-0.9955236303689754
1.9016337478723908,17.523641304040503,-0.04791661902170976,1.138166177917064,-0.9657761936809819
1.8930859500200377,17.32041481665552,-0.047058912671103445,1.1199059041383068,-0.9370801999448461
1.8846919105736388,17.120453117081205,-0.046208192288882746,1.1018907577985126,-0.9093874198288954
1.876450329801493,16.923712731308903,-0.04536492740162812,1.0841135285604395,-0.8826522349348015
1.8683598291818293,16.730151460350246,-0.04452952392796683,1.0665672598690588,-0.856831473052091
1.8604189623152974,16.53972833560556,-0.04370233014461057,1.049245237294127,-0.831884255209815
1.8526262248125014,16.352403576273566,-0.042883642108677025,1.0321409775058097,-0.8077718535807299
1.844980063249853,16.168138548692184,-0.04207370858741738,1.0152482178428754,-0.7844575593768759
1.837478883278258,15.98689572750709,-0.04127273554141438,0.9985609064359453,-0.7619065599509112
1.830127009925819,15.808865593800459,-0.040414746152356434,0.9795516903044198,-0.7899904861538057
1.8229255891311693,15.63424734801368,-0.039601040454859016,0.9606510406597902,-0.8194965854715828
1.8158667686300407,15.463021695312403,-0.038830298446569864,0.9418562115766231,-0.8503127180633725
1.8089429365026932,15.295169824968845,-0.038101169635071236,0.9231645700184581,-0.8823285507280122
1.8021467263143383,15.13067339031453,-0.037412276902205555,0.9045735928072558,-0.915435312780042
1.7954710215951128,14.96951448920246,-0.03676221997807498,0.8860808639935128,-0.9495255542264153
1.788908959727741,14.811675644906732,-0.03614957854827995,0.8676840726257015,-0.9844929052028293
1.7824539353070246,14.657139787387553,-0.0355729150152378,0.8493810109207418,-1.0202318356134843
1.776099603031793,14.505890234849048,-0.03503077693177816,0.831169572840414,-1.0566374138948766
1.7698398801868969,14.357910675516028,-0.03452169912262342,0.813047753082023,-1.0936050637925563
1.7636689487702482,14.213185149554072,-0.034044205506807326,0.7950136464952748,-1.1310303179992192
1.757581257317797,14.071698031054783,-0.03359681063153811,0.7770654479412771,-1.168808567452526
1.751571522477668,13.933434010004817,-0.03317802092544977,0.7592014526138877,-1.2068348050310818
1.7456347303834854,13.798378074153213,-0.03278633567657976,0.7414200568483819,-1.2450033623164152
1.739766137876197,13.666515490686571,-0.03242024773773555,0.7237197594476588,-1.2832076380068513
1.7339612736234786,13.537831787615698,-0.03207824395913615,0.7060991635620597,-1.3213398164751313
1.7282159391860787,13.412312734770225,-0.03175880534530565,0.6885569791654144,-1.3592905748547213
1.7225262100812908,13.289944324289383,-0.031460406930118784,0.6710920261772869,-1.396948776919205
1.7168884368951247,13.170712750487354,-0.031181517360614423,0.653703238289691,-1.4342011518842936
1.71129924649677,13.05460438896035,-0.030920598176659753,0.6363896675659192,-1.4709319561122542
1.705755543411596,12.941605774789338,-0.03067610276971731,0.6191504898897637,-1.507022615533679
1.7002545114123406,12.831703579677267,-0.0304464749997866,0.6019850113554679,-1.5423513464216219
1.6947936153923098,12.724884587842055,-0.030230147445001104,0.584892675702445,-1.5767927519589886
1.6893706035894636,12.621135670466543,-0.030025539253292724,0.5678730729143626,-1.6102173918334455
1.683983510236275,12.520443758483463,-0.029831053559910413,0.5509259491198473,-1.6424913218781663
1.6786306587173354,12.422795813446992,-0.029645074428308528,0.5340512179520656,-1.6734756005567175
1.673310665324947,12.328178796212072,-0.029465963264896856,0.517248973547037,-1.7030257588744877
1.6680224437125843,12.236579633108104,-0.029292054650242948,0.5005195053859404,-1.7309912300997365
1.662765210157228,12.147985179254011,-0.02912165152038551,0.48386331521507125,-1.75721473551303
1.657538489754434,12.062382178616886,-0.028953019621765913,0.46728113630855267,-1.7815316223015445
1.6523421236848246,11.97975722036552,-0.02878438115167304,0.4507739553732696,-1.803769149713519
1.6471762777077301,11.900096691013012,-0.02861390748271044,0.43434303743237884,-1.8237457197442402
1.6420414520574071,11.823386721778498,-0.02843971085421252,0.4179899540622228,-1.84127004901873
1.6369384929399622,11.749613130527269,-0.028259834895175646,0.4017166153958817,-1.8561402792825958
1.631868605855479,11.678761357570849,-0.028072243821304705,0.3855253063420987,-1.8681430251747797
1.626833371000581,11.610816394525397,-0.027874810122006925,0.36941872749626864,-1.8770523599671118
1.621834761042817,11.54576270533974,-0.027665300519815313,0.35340004123326624,-1.8826287430472648
1.6168751616012433,11.483584138517465,-0.027441359942112963,0.3374729234586776,-1.8846178975664762
1.6119573948194383,11.424263829476764,-0.02720049318905284,0.3216416214379745,-1.882749653545206
1.6070847464808957,11.367784091927735,-0.02694004390586605,0.3059110179956925,-1.8767367817905016
1.6022609971967543,11.31412629711565,-0.02665717036237269,0.2902867021385782,-1.866273858601584
1.5974904582988834,11.263270739805872,-0.026348817391746316,0.27477504574782663,-1.8510362223852759
1.592778013207873,11.215196490010076,-0.02601168361947951,0.259383285316557,-1.830679113764198
1.5881291652317242,11.169881229733278,-0.025642182782177114,0.24411960664785434,-1.8048371345056111
1.5835500930126036,11.127301074544405,-0.025236397430272145,0.2289932287840601,-1.7731242232231685
1.5790477152165385,11.087430380669762,-0.024790022526008614,0.21401448093420164,-1.7351344351053366
1.574629766619216,11.050241539768052,-0.024298295222017242,0.19919486241813067,-1.6904439395459991
1.570304888584023,11.01570476583829,-0.023755905169016954,0.18454707013476615,-1.6386148275067955
1.5660827382226437,10.98378788221373,-0.023156876624087157,0.17008497013814966,-1.5792015669851123
1.5619741225408852,10.95445612180339,-0.022494408728782292,0.15582347886563103,-1.5117612785549808
1.557991167028458,10.927671961262554,-0.02176065252041043,0.14177830492140855,-1.4358694364126297
1.5541475331240608,10.903395020212976,-0.02094639086178027,0.12796548451834558,-1.3511431232085291
1.5504587068258266,10.881582070290463,-0.020040568007487273,0.11440062573181296,-1.257274505088338
1.546942393031236,10.862187214888028,-0.0190295852657426,0.10109776762857237,-1.1540775257580407
1.5436190694132907,10.845162315460517,-0.017896232711427845,0.08806778156597808,-1.0415504237000452
1.5405127835009038,10.830457744710472,-0.01661805520398306,0.07531633787894532,-0.919954502189261
1.537652323468142,10.818023520251934,-0.015164834048926818,0.06284171166035596,-0.789903845906939
1.5350729708174415,10.80781077568648,-0.013494639847742726,0.05063322795578501,-0.652449181783848
1.532819192977264,10.79977329533494,-0.011547336154229579,0.038672109283546745,-0.5091211362861223
1.5309490074603425,10.793868366009534,-0.00923250292267722,0.026938216554324275,-0.3618790380650414
1.5295420051286355,10.790055165553117,-0.006400856318510326,0.01543067740585135,-0.21290600306642773
1.5287191491577947,10.788285163589894,-0.002741987801945258,0.004236011074407162,-0.06422375570352182
