x,y,v_x,v_y,omega
2.375,32.48,0.0,2.564102564102564,-2.4897959183673475
2.374577773311345,31.997707961368818,-0.004444491459523353,2.5126557372782843,-2.3600798571601924
2.373363512065016,31.52503429440975,-0.00833720587025823,2.4628565465013765,-2.240227861323868
2.371455940258128,31.06167412169382,-0.011742497360144667,2.4146189557715707,-2.1292511585558453
2.368942326417915,30.607338338182885,-0.014716595694725144,2.367862975922486,-2.0262790474133174
2.365899920048362,30.16175251454594,-0.01730873451109736,2.3225141149926904,-1.9305428121882275
2.3623971900407965,29.724655898927622,-0.019562107673800216,2.2785028915159398,-1.8413620836913331
2.358494894989781,29.29580050605765,-0.021514682336894856,2.235764401852206,-1.7581332363655091
2.35424701041554,28.874950284134382,-0.023199892128796674,2.1942379341821727,-1.6803194870054707
2.3497015338397795,28.461880351202556,-0.024647229721314626,2.1538666229949337,-1.607442420379707
2.3449011853209667,28.056376293824794,-0.02588275468724171,2.1145971388762446,-1.5390747154056952
2.3398840182921883,27.65823352175736,-0.02692952982621249,2.0763794092020045,-1.474833884665944
2.3346839532514974,27.267256673113533,-0.027807996917903154,2.0391663659961865,-1.4143768718641676
2.3293312449450596,26.88325906515734,-0.028536301044601663,2.002913717753208,-1.3573953777842565
2.3238528920882042,26.50606218643574,-0.029130571132822112,1.9675797424741632,-1.3036118065868416
2.3182729973328904,26.135495226444203,-0.02960516313363736,1.9331250995420173,-1.2527757417709118
2.3126130840669914,25.771394639441937,-0.02997287124424969,1.8995126583765698,-1.204660875563045
2.3068923756844844,25.413603739398877,-0.03024511172950809,1.866707342076699,-1.159062327448706
2.3011280421661855,25.06197232337563,-0.030432083199953337,1.8346759844837732,-1.1157942974876018
2.29533541813357,24.716356320916823,-0.030542906617049993,1.8033871992931552,-1.0746880083265034
2.289528195963384,24.376617467283396,-0.030585747805961464,1.7728112600060644,-1.035589896734832
2.2837185970615574,24.042622998565477,-0.030567924844846956,1.7429199896562295,-0.9983600212805394
2.277917523977703,23.71424536690813,-0.030496002353621286,1.7136866593685076,-0.962870657631012
2.2721346956848425,23.39136197425139,-0.03037587441332731,1.6850858949129899,-0.9290050570644334
2.266378768043516,23.073854923136146,-0.030212837600638774,1.657093590510576,-0.896656347240745
2.260657441207213,22.761610783261112,-0.030011655413073032,1.6296868292266429,-0.8657265572142214
2.2549775555005773,22.454520372595383,-0.02977661518309568,1.6028438093600035,-0.8361257511589857
2.249345177107489,22.152478551958033,-0.02951157842835889,1.576543776296261,-0.8077712573965131
2.243765674738416,21.85538403207172,-0.02922002545662003,1.5507669593491524,-0.7805869811197974
2.238243788301313,21.563139192183208,-0.02890509493393746,1.525494513161531,-0.7545027907517403
2.2327836904746796,21.275649909421247,-0.028569619030622766,1.5007084632801473,-0.7294539691964822
2.2273890419722933,20.992825398131806,-0.028216154678710078,1.4763916555560637,-0.7053807223760067
2.2220662722911304,20.71457887667253,-0.027812999859847747,1.4525190966468413,-0.680961879445668
2.2168207638713824,20.440826563042414,-0.027402878242761348,1.429084204722785,-0.6576107826990737
2.21165369968223,20.171486724503154,-0.02698727111673795,1.4060719904273429,-0.6352684849456425
2.2065659964325866,19.906480414346344,-0.02656749993214061,1.3834681164864393,-0.613879906661725
2.20155833340049,19.64573135139512,-0.02614474251098429,1.361258861947492,-0.593393541838182
2.1966311783437407,19.38916580607885,-0.025720047560055588,1.3394310887501035,-0.5737611891821113
2.191784810796459,19.136712492654688,-0.025294347674487936,1.3179722104515805,-0.5549377062348789
2.1870193430226137,18.888302467181944,-0.024868470997569024,1.2968701629457116,-0.536880784226827
2.182334738867941,18.643869030884535,-0.024443151683197772,1.276113377027037,-0.5195507417174082
2.177730830725444,18.40334763856376,-0.024019039290454545,1.2556907526653192,-0.5029103352717852
2.173207334806487,18.166675811748263,-0.02359670722488278,1.2355916348662082,-0.4869245856043406
2.1687638648889602,17.93379305629056,-0.023176660328029695,1.2158057910043363,-0.47156061777888203
2.1643999446957918,17.704640784140338,-0.02275934170532279,1.1963233895243548,-0.4567875141970133
2.160115019040921,17.479162239043706,-0.02234513887226477,1.1771349799138644,-0.44257617923230785
2.155908463865502,17.2573024259352,-0.021934389290036632,1.1582314738598556,-0.42889921448038915
2.151779595274342,17.039008043805325,-0.02152738535375534,1.1396041275072637,-0.4157308036954145
2.147727677671213,16.8242274218414,-0.021124378889707696,1.121244524744601,-0.40304660657317287
2.1437519310815736,16.612910458653154,-0.02072558521176102,1.10314456144744,-0.3908236606212713
2.1398515377421914,16.405008564407147,-0.020331186781735774,1.0852964306158182,-0.37904029042877874
2.1360256480291224,16.20047460570573,-0.019941336513728678,1.067692608346484,-0.3676760237121658
2.1322733857882965,15.999262853057207,-0.019556160758122457,1.0503258405853384,-0.35671151357224734
2.1285938531265365,15.801328930793698,-0.019175761997244627,1.0331891306094871,-0.34612846644884454
2.1249861347150762,15.606629769302554,-0.01880022128128564,1.0162757271920386,-0.3359095753066655
2.121449301652494,15.415123559445721,-0.018429600430106382,0.9995791134062052,-0.32603845762803413
2.1179849700891484,15.22696744439342,-0.018037047605110403,0.9810115713548418,-0.3576849298414171
2.114591913048997,15.042328855141132,-0.017679342291216014,0.9625525260376555,-0.3907792396632862
2.111263585060078,14.861187445669593,-0.017355689171096155,0.9441991526101369,-0.42521621548583277
2.1079935967333983,14.683523396343077,-0.017065240583423496,0.9259487350374145,-0.46089261649268154
2.1047757242066796,14.509317393560714,-0.016807101803092077,0.9077986626716573,-0.4977069072273768
2.1016039176298804,14.3385506100234,-0.016580335847421693,0.8897464271948136,-0.5355590350327669
2.0984723087796846,14.171204685547334,-0.016383967838849822,0.8717896199216808,-0.5743502094288254
2.0953752178846035,14.00726170835599,-0.01621698895148059,0.8539259294608907,-0.6139826824852362
2.092307159737457,13.846704196782468,-0.016078359965849123,0.8361531397340793,-0.6543595292264978
2.0892628491676333,13.689515081313878,-0.015967014453346966,0.8184691283563422,-0.6953844270809906
2.0862372059417185,13.535677686908539,-0.015881861608913625,0.8008718653840771,-0.7369614333509292
2.0832253591578302,13.385175715515295,-0.015821788747804644,0.7833594124395439,-0.7789947596368196
2.080222651196239,13.237993228722168,-0.015785663479470417,0.7659299222249724,-0.821388542097305
2.077224641286654,13.094114630458723,-0.015772335568793885,0.7485816384428761,-0.8640466063623392
2.0742271087508684,12.953524649673021,-0.01578063849210979,0.7313128961434556,-0.9068722258435838
2.0712260559783275,12.816208322899548,-0.01580939069253088,0.7141221225246701,-0.9497678720998093
2.068217711191607,12.682150976629202,-0.015857396536103838,0.697007838215801,-0.9926349558157469
2.065198531058796,12.551338209385982,-0.015923446967171993,0.6799686590812407,-1.035373556839078
2.062165203210405,12.423755873407412,-0.01600631985799271,0.6630032985879056,-1.0778821415906987
2.0591146487197065,12.299390055816772,-0.01610478004409984,0.6461105707872499,-1.1200572660166204
2.0560440246073757,12.178227059164694,-0.016217579033065754,0.6292893939714778,-1.161793262084357
2.0529507264340703,12.060253381205431,-0.016343454370148,0.612538795073414,-1.2029819056408575
2.049832391048131,11.945455693758834,-0.016481128639740047,0.5958579148907748,-1.2435120632414995
2.046686899560087,11.833820820492498,-0.016629308076513746,0.5792460142285439,-1.2832693153290362
2.043512380621135,11.725335713439321,-0.016786680754563778,0.5627024810680509,-1.3221355528867187
2.040307214089369,11.619987428043451,-0.016951914316651436,0.5462268388884794,-1.3599885444107065
2.0370700351754114,11.517763096501852,-0.01712365319869361,0.5298187562862584,-1.3967014697439153
2.033799739168336,11.418649899138913,-0.017300515296835114,0.5134780580604663,-1.4321424169887362
2.030495486853651,11.322635033517116,-0.017481088015642514,0.49720473795845554,-1.4661738383740024
2.027156710747694,11.229705680947013,-0.017663923626006727,0.48099897330579,-1.4986519606000148
2.0237831222874685,11.139848970013983,-0.01784753385005394,0.46486114177875854,-1.5294261448373299
2.020374720131849,11.053051936686426,-0.01803038357751706,0.44879184061657545,-1.5583381912307706
2.0169317997496674,10.969301480509497,-0.018210883603342942,0.4327919086142472,-1.5852215824910574
2.0134549644927002,10.888584316318962,-0.018387382259467754,0.41686245128610183,-1.6099006609897415
2.0099451383775966,10.810886920830608,-0.018558155794254894,0.4010048696439436,-1.6321897337789246
2.006403580830746,10.736195473370703,-0.01872139733049122,0.38522089309190866,-1.6518921002391649
2.0028319036847497,10.664495789911918,-0.018875204206307613,0.3695126170005805,-1.6687989977690767
1.9992320907553256,10.595773249466532,-0.019017563471844308,0.35388254558241716,-1.6826884622911256
1.995606520374248,10.5300127117656,-0.01914633527634164,0.33833364074317124,-1.6933241026854287
1.9919579913088374,10.467198425021106,-0.01925923383324076,0.3228693776199327,-1.700453792052549
1.9882897525635157,10.407313922432838,-0.019353805591199532,0.3074938075197312,-1.7038082846423999
1.9846055376370584,10.35034190597127,-0.01942740416098229,0.2922116289178276,-1.7030997763863573
1.980909603904689,10.296264115857007,-0.019477161442905837,0.2770282670217802,-1.6980204407228818
1.9772067779136473,10.245061184091053,-0.019499954252269684,0.2619499620935319,-1.6882409919964447
1.9735025075346146,10.196712470407881,-0.019492365527023374,0.24698386615036688,-1.6734093593361614
1.9698029221156301,10.151195879188215,-0.01945063888333888,0.23213814668821753,-1.6531495992719907
1.9661149020661732,10.108487656278957,-0.019370624795154813,0.21742209446186145,-1.6270612422660085
1.9624461596997995,10.06856216547624,-0.019247715903514758,0.20284622977726355,-1.5947193667455182
1.958805333754931,10.031391645865725,-0.019076767726682143,0.1884223977018601,-1.555675838323655
1.9552021009127445,9.996945953629684,-0.018851999033175748,0.17416383636172478,-1.509462361539486
1.9516473090351156,9.965192295831912,-0.018566862836600643,0.16008519308849312,-1.4555962932640345
1.9481531390830682,9.936094969798006,-0.018213873500742023,0.1462024493736903,-1.393590593758895
1.9447333062969516,9.909615130975336,-0.017784366353115227,0.13253269612809931,-1.3229698766784677
1.9414033171381604,9.885710625707176,-0.01726815110784612,0.11909367511570426,-1.243295278027277
1.9381808082154648,9.864335944143217,-0.01665299544684433,0.10590297292598012,-1.1542017420655613
1.9350860093950284,9.84544237232575,-0.01592383424196017,0.09297673041579556,-1.0554520779804055
1.9321423994433091,9.828978447537192,-0.015061533670872944,0.08032774104270161,-0.9470121010901186
1.92937766518669,9.814890834698822,-0.014040932188275266,0.06796292041382297,-0.8291488026510685
1.926825145263793,9.803125713111033,-0.012827698579061412,0.05588046472078658,-0.7025458970181695
1.9245260611167172,9.793630628821653,-0.011373187179631615,0.044067790956896676,-0.5684142153806064
1.922533084423662,9.786356415787221,-0.009605514852526288,0.032502872563422144,-0.4285461629312275
1.9209164546199953,9.781258011697357,-0.00741164097554603,0.021164538908818153,-0.28523225054864126
1.9197764152381893,9.778291061628302,-0.004588773569780158,0.010066514449660845,-0.14095017306477423
1.919282371633281,9.777391289510273,-0.0006116854292549725,-0.0005952289967172866,0.0021555240459019687
