x,y,v_x,v_y,omega
2.375,32.48,0.0,3.282051282051282,-2.979591836734694
2.374400786952565,31.8959380216058,-0.006657922749278036,3.2075262556620108,-2.7961863675409333
2.3726893103778783,31.32503061376854,-0.012358483636129129,3.135889386974214,-2.6296239964268904
2.3700260605421097,30.766773862036892,-0.017233181205746562,3.066963410044085,-2.477895889310712
2.366549617074778,30.220694442756006,-0.02139396843126843,3.000585693076885,-2.3392763271851247
2.3623798804432714,29.68634712875718,-0.02493643858547309,2.9366066846878485,-2.212277407783407
2.357620781062601,29.1633125561154,-0.027942443421974904,2.874888566887473,-2.09561180309651
2.3523625583237484,28.651195217801508,-0.03048225367638931,2.815304081044668,-1.9881620012427887
2.346683684099185,28.149621655538112,-0.032616348818758516,2.757735499659715,-1.8889547944719831
2.3406524912434885,27.658238825599998,-0.03439690513342329,2.7020737218749025,-1.797140032012572
2.3343285564246,27.176712617913804,-0.035869037298672656,2.6482174746383618,-1.7119728558509852
2.3277638776705563,26.70472651078351,-0.037071837746257386,2.5960726045871465,-1.6327987932077717
2.321003879818372,26.2419803460302,-0.038039249500236294,2.5455514482273993,-1.5590412017312052
2.3140882752373617,25.788189211388904,-0.0388008013998788,2.496572270009206,-1.4901906599588295
2.30705180248296,25.343082418730294,-0.03938222920458193,2.4490587595309226,-1.4257959722049818
2.29992486169644,24.906402568132474,-0.0398060017567541,2.4029395804448557,-1.365456518123043
2.292734062426539,24.477904689066204,-0.04009176790881081,2.358147964735919,-1.3088157261312863
2.285502696973641,24.05735545101399,-0.040256737123386566,2.314621346955351,-1.255555489268339
2.278251150237222,23.64453243675051,-0.040316004392382906,2.2723010337500154,-1.2053913738586939
2.270997255296529,23.239223472293318,-0.04028282828197947,2.2311319046631835,-1.1580684971749369
2.2637566025040576,22.841226008209027,-0.040168869412151774,2.1910621407178743,-1.113357971295592
2.256542808666141,22.450346547547205,-0.03998439545358379,2.1520429777468144,-1.0710538275286592
2.2493677518805937,22.066400116186344,-0.0397384577191699,2.114028481818311,-1.0309703498522877
2.2422417767619116,21.689209771823425,-0.03943904359951707,2.076975344436337,-0.9929397574105063
2.2351738740811937,21.318606148231382,-0.03909320840846206,2.0408426954752787,-0.956810185666445
2.228171838256941,20.954427031753866,-0.03870718963879103,2.0055919320526576,-0.9224439237356478
2.22124240563518,20.596516967311363,-0.03828650615855272,1.9711865617529387,-0.8897158720003802
2.2143913760770584,20.244726891461834,-0.03783604448724017,1.9375920587973854,-0.8585121895856149
2.207623720016388,19.898913790297897,-0.03736013396465107,1.904775731913005,-0.8287291058549757
2.2009436728478855,19.55894038017449,-0.03686261235204713,1.8727066027915027,-0.8002718739193473
2.194354818250355,19.224674809449784,-0.0363468831760648,1.8413552941497013,-0.7730538473713002
2.187860161830528,18.89599037959054,-0.03581596593313183,1.8106939265085746,-0.7469956641702147
2.1814621962866694,18.572765284143685,-0.03527254010974019,1.7806960229009252,-0.7220245238920847
2.1751629591314856,18.25488236421064,-0.0347189838367461,1.7513364207995683,-0.6980735464950075
2.1689640838770012,17.942228879181968,-0.034157407879743334,1.7225911906301312,-0.6750812023943413
2.1628668454666102,17.634696291598573,-0.03358968556904702,1.6944375602965047,-0.6529908050382719
2.1568722006383783,17.332180065103557,-0.03301747918908791,1.66685384520366,-0.6317500583646372
2.1509808238165475,17.034579474537068,-0.0324422632756947,1.6398193833128931,-0.6113106525360847
2.145193139052936,16.74179742730606,-0.03186534520887521,1.6133144748093649,-0.5916279022202364
2.1395093484748378,16.45374029523306,-0.03128788343666548,1.5873203260017588,-0.5726604224271945
2.1339294576396446,16.170317756153043,-0.030710903621037452,1.5618189971095489,-0.5543698375574028
2.128453298147477,15.891442644586906,-0.03013531295860201,1.5367933536252893,-0.5367205198644338
2.123080547820566,15.617030810873516,-0.029561912895959826,1.5122270209679294,-0.51967935401302
2.1178107487211184,15.347000988191208,-0.028991410431236535,1.488104342168814,-0.5032155248237695
2.1126462538699693,15.081275221934334,-0.02839186569264596,1.4644041717964513,-0.486340231465459
2.107588815278107,14.81977816480985,-0.027801896439157637,1.4411186851422322,-0.47017405251042493
2.102636694089062,14.562436411485422,-0.027221672328007176,1.41823412957363,-0.4546792713705215
2.097788125310431,14.309178980266903,-0.026651314101228434,1.3957373284098917,-0.4398205554725909
2.0930413260770395,14.059937212166489,-0.026090899603117786,1.3736156504835961,-0.42556478146897797
2.088394502891998,13.814644675278082,-0.0255404691195666,1.3518569816098223,-0.4118808749769945
2.0838458579607364,13.573237074129022,-0.02500003011667407,1.3304496978241922,-0.3987396634997952
2.0793935947200204,13.33565216370122,-0.024469561446836294,1.3093826402625062,-0.3861137413188143
2.075035922652385,13.101829667836736,-0.023949017082446247,1.28864509156508,-0.37397734527025894
2.07077106146624,12.871711201763027,-0.02343832943028029,1.2682267536983414,-0.3623062404270095
2.066597244712903,12.645240198491642,-0.022937412273458697,1.2481177270948327,-0.35107761480424743
2.0625127229038727,12.422361838861253,-0.022446163382437094,1.2283084910205886,-0.34026998229362215
2.0585157661845987,12.20302298501166,-0.021964466831715008,1.2087898850859893,-0.32986309310800327
2.0546046666148166,11.98717211708988,-0.021492195054752406,1.1895530918226953,-0.31983785108791773
2.0507777400999587,11.774759273002868,-0.021029210665892202,1.1705896202552097,-0.3101762372825762
2.0470333280132933,11.565735991043805,-0.020575368074832824,1.151891290401048,-0.3008612392737772
2.0433697985440893,11.36005525523025,-0.020130514916325302,1.1334502186384605,-0.29187678576066045
2.0397855478032487,11.157671443203121,-0.01969449331523612,1.1152588038852085,-0.28320768596789675
2.0362790007144382,10.958540276545207,-0.01926714100487903,1.097309714536064,-0.27483957348001314
2.0328486117156905,10.762618773387015,-0.01884829231453987,1.079595876110529,-0.2667588541406474
2.029492865293749,10.569865203176146,-0.01843777904036689,1.0621104595657882,-0.2589526576880432
2.026210276371014,10.380239043494242,-0.018035431212247592,1.0448468702331326,-0.2514087928274206
2.022999390562799,10.193700938812743,-0.01764107776791792,1.0277987373390685,-0.244115705467321
2.0198587843206965,10.010212661085472,-0.01725454714432943,1.010959904075051,-0.23706243987094142
2.0167870649761372,9.82973707208231,-0.016875667795217063,0.9943244181823082,-0.23023860249509817
2.013785916167849,9.652455922432818,-0.016470430074651002,0.9754661334787097,-0.27154694635846055
2.010853985411611,9.478560161153784,-0.016106578327996373,0.956708991843877,-0.3139610877450384
2.0079839441516394,9.308031807224818,-0.015782769005019733,0.9380504962557383,-0.35738317815807713
2.0051687071303976,9.140853320497076,-0.015497642342114504,0.9194882451636165,-0.40171661304632467
2.002401435055531,8.977007584714045,-0.015249825156400729,0.9010199302033933,-0.4468658195116637
1.999675536792521,8.816477890913507,-0.01503793332148894,0.8826433342470095,-0.4927360442402519
1.996984671138777,8.65924792115031,-0.014860573942332336,0.8643563297884952,-0.539233140714155
1.9943227482319978,8.505301732478912,-0.014716347244103636,0.8461568776714733,-0.586263354729288
1.9916839306431466,8.35462374113354,-0.014603848187577127,0.8280430261660094,-0.6337331072059723
1.9890626342023703,8.207198706842071,-0.01452166782104785,0.8100129104058635,-0.6815487732299353
1.9864535286046043,8.063011717207484,-0.014468394376353094,0.7920647522006633,-0.7296164562034009
1.9838515378404682,7.9220481720877025,-0.014442614114048982,0.774196860241339,-0.7778417559171708
1.981251840497385,7.784293767901058,-0.014442911920208084,0.7564076307213913,-0.8261295292743178
1.9786498699756512,7.6497344817800155,-0.01446787165461101,0.7386955484012911,-0.8743836423031862
1.9760413146644817,7.518356555490524,-0.014516076247271666,0.721059188148623,-0.9225067119905798
1.9734221181238771,7.390146479027816,-0.0145861075372246,0.7034972169925738,-0.9703998363439403
1.9707884793195425,7.265090973792049,-0.014676545844271846,0.6860083967381748,-1.0179623109524427
1.968136852960078,7.143176975238202,-0.014785969260889646,0.6685915871934451,-1.0650913301596259
1.9654639499883066,7.024391614884362,-0.014912952647680396,0.6512457500714359,-1.1116816707826787
1.9627667382819747,6.908722201550393,-0.01505606631156385,0.6339699536393152,-1.157625356113981
1.9600424436232198,6.796156201685008,-0.015213874341268321,0.616763378198282,-1.2028112977171457
1.9572885510012477,6.686681218622926,-0.015384932569532968,0.5996253224915066,-1.2471249122808732
1.9545028063186782,6.580284970594942,-0.015567786125681726,0.5825552111527503,-1.290447710517969
1.9516832185791466,6.476955267291842,-0.01576096653578208,0.5655526033261509,-1.3326568547928745
1.9488280626420948,6.376679984757747,-0.01596298832034762,0.5486172026082461,-1.373624681828927
1.9459358826404416,6.279447038359169,-0.016172345031356353,0.5317488684870751,-1.4132181864875097
1.9430054961681211,6.185244353542078,-0.016387504661091564,0.5149476294806027,-1.4512984622286402
1.9400359993575909,6.0940598340500785,-0.016606904344800166,0.4982136982082726,-1.4877200934629835
1.9370267729825104,6.0058813272314175,-0.016828944267207154,0.48154748866573593,-1.5223304946001652
1.9339774897382256,5.920696586010219,-0.017051980669289896,0.4649496360142383,-1.5549691902062113
1.9308881228727386,5.838493227037045,-0.017274317836120594,0.4484210192432493,-1.5854670303330494
1.9277589563639064,5.759258684464534,-0.01749419892868235,0.43196278711798064,-1.6136453348198323
1.9245905968651524,5.682980158714493,-0.017709795501917053,0.4155763878824747,-1.639314960256448
1.9213839876725225,5.609644559512262,-0.017919195527303887,0.3992636032534231,-1.6622752834439707
1.9181404250011442,5.5392384423617,-0.018120389710232766,0.3830265873083535,-1.6823130957329853
1.9148615768998893,5.4717479375192255,-0.018311255859266844,0.3668679109413663,-1.699201403786942
1.9115495051803455,5.407158670398264,-0.018489541024553843,0.35079061262485656,-1.712698134424965
1.9082066907914867,5.345455672197957,-0.01865284107387562,0.3347982562674369,-1.7225447447186484
1.9048360631366101,5.286623279405564,-0.018798577313643712,0.318894996981356,-1.7284647441437468
1.901441033906902,5.230645020678423,-0.0189239696831137,0.30308565554243405,-1.7301621443402577
1.8980255361004155,5.177503489481371,-0.019026005944513848,0.2873758022025932,-1.7273198654151514
1.8945940690123078,5.127180200761764,-0.01910140614557162,0.27177185023747713,-1.7195981479448659
1.8911517501313222,5.079655429922955,-0.019146581420933416,0.25628115908262833,-1.7066330501651525
1.8877043750736247,5.034908032467207,-0.019157585886818235,0.24091214598124086,-1.6880351550882562
1.884258486952386,4.992915243013506,-0.019130059904720807,0.22567440350433493,-1.6633886795429675
1.8808214569596304,4.953652453099668,-0.019059162237008622,0.21057881776054233,-1.6322512767505382
1.8774015784916673,4.917092968475394,-0.018939487407025016,0.19563767806471022,-1.5941549710206975
1.8740081779911606,4.883207748822816,-0.01876496259860564,0.18086476251948166,-1.5486088787529741
1.8706517469930786,4.85196513650784,-0.018528715157861392,0.1662753743135746,-1.4951046832918753
1.867344101961817,4.823330586794711,-0.018222896300598927,0.15188628916562275,-1.4331262795554873
1.8640985819218212,4.797266420936303,-0.017838437477132443,0.13771555370557834,-1.3621656286659514
1.8609302995042345,4.773731636899939,-0.01736470049605465,0.1237820466984538,-1.281747690296445
1.8578564703422833,4.752681831368026,-0.016788956858959665,0.11010468143391244,-1.1914682955832814
1.8548968611922305,4.7340693112788195,-0.01609558925273692,0.09670109733504138,-1.0910497683782228
1.8520744226975516,4.717843500501463,-0.015264838465916182,0.08358568908001768,-0.9804193387269033
1.8494162147662019,4.703951765841527,-0.014270805215750712,0.0707669182525962,-0.859813343633619
1.8469548021136144,4.692340766808723,-0.013078224257442771,0.058244182111897205,-0.7299027507218321
1.844730417889422,4.6829583122262335,-0.011637156011360932,0.04600531324911566,-0.5919179555295361
1.8427944333083879,4.675755368179878,-0.009873783777908152,0.03402739837706648,-0.44771979201028367
1.84121530308325,4.670687096451147,-0.007672107612510297,0.022286731942161613,-0.2997268343923396
1.840090546033276,4.667709927641166,-0.004825192942760767,0.010792921502086161,-0.150595334161117
1.8395835089096328,4.666762575418737,-0.0008085528754946808,-0.00026678569732862915,-0.0026456288238332626
