x,y,v_x,v_y,omega
2.375,32.48,0.0,2.0,-4.326530612244898
2.3741955804704187,32.02456366671867,-0.006994952431140376,1.9603159415767588,-4.11008141985508
2.3718782764283293,31.578111872545637,-0.013155517500074279,1.9218735729713494,-3.909265322918461
2.368229319085925,31.14036676820158,-0.01857454634691878,1.884605595237828,-3.7225772400923187
2.3634098815558597,30.711065379509883,-0.02333360608843286,1.8484499586030287,-3.5486867562882596
2.357563497687557,30.289958465224984,-0.027504514505502783,1.8133492960482644,-3.3864146644354585
2.3508181549096654,29.87680949600023,-0.031150640084860334,1.7792504363408992,-3.2347130880125654
2.343288110403045,29.471393737779685,-0.03432800779879015,1.7461039829681986,-3.092648569590221
2.335075471538812,29.073497425708812,-0.037086243194544975,1.7138639480828557,-2.9593876284154086
2.3262715747285796,28.682917016924666,-0.03946938124225644,1.6824874326488681,-2.8341843828631506
2.3169581913072252,28.29945851242441,-0.041516561552130724,1.651934345614242,-2.7163699072041796
2.3072085845409123,27.922936839711728,-0.043262627720156405,1.6221671562351463,-2.6053430509371216
2.2970884381236063,27.553175289152882,-0.04473864547380729,1.593150674711317,-2.5005624961853234
2.2866566734373817,27.19000499799196,-0.045972351797712606,1.5648518571227972,-2.401539866849191
2.2759661702830223,26.833264476820137,-0.04698854519671653,1.537239631327845,-2.307833734239023
2.2650644036410914,26.482799173999553,-0.0478094256026808,1.5102847410250513,-2.2190443892595084
2.2539940072229805,26.138461074134725,-0.04845489107654511,1.4839596056256315,-2.1348092720160388
2.2428201223814246,25.80011380958328,-0.0487093249369828,1.4581905209086719,-2.0498637826758164
2.231600707345388,25.467626578766648,-0.04885080581116465,1.433002790540309,-1.9692804918768774
2.2203603336126254,25.140868353325114,-0.04889157447372453,1.408373082864307,-1.8927785662361685
2.2091209001189855,24.81971332962613,-0.04884262981879559,1.3842792971268851,-1.8200987057775546
2.1979019037700263,24.50404065521382,-0.04871386017215578,1.3607004803714309,-1.7510012285931704
2.186720681482617,24.193734173581678,-0.048514159718363446,1.3376167512124297,-1.6852643491799064
2.175592626950336,23.88868218576461,-0.04825153186668484,1.3150092298055878,-1.6226826284980986
2.1645313849548686,23.58877722739473,-0.04793318113737853,1.2928599734107482,-1.5630655765599382
2.1535490257056726,23.293915859995977,-0.04756559494258841,1.271151917013149,-1.5062363907335172
2.1426562013945776,23.003998475408693,-0.04715461645823785,1.249868818528453,-1.452030815002622
2.1318622868943873,22.718929112338472,-0.04670550963037339,1.228995208169153,-1.4002961072006674
2.1211755063057205,22.438615284115535,-0.04622301722759764,1.2085163415955174,-1.3508901027800313
2.110603046859746,22.162967816832918,-0.045711412737397594,1.1884181565141634,-1.3036803650195126
2.100151161512293,21.891900697105214,-0.04517454680566998,1.1686872324223947,-1.258543412741398
2.0898252614138073,21.625330928755503,-0.04461588883334105,1.1493107532272986,-1.215364017629923
2.0796299993069463,21.36317839779734,-0.044038564269798276,1.1302764724958358,-1.1740345641353211
2.069569344786914,21.10536574513195,-0.043445388078307064,1.111572681116244,-1.134454465729633
2.0596466522567907,20.851818246428756,-0.042838894792331786,1.0931881771724299,-1.096529631966876
2.0498647223194264,20.602463698700944,-0.04222136553257291,1.0751122378520035,-1.0601719814037878
2.040225857267347,20.35723231312703,-0.041594852311596694,1.057334593225496,-1.025298995968991
2.0307319112612494,20.11605661370492,-0.04096119991533911,1.0398454017493701,-0.9918333128374681
2.0213843357249384,19.87887134135747,-0.04032206561779987,1.0226352273588992,-0.9597023502816519
2.0121842204289173,19.645613363137855,-0.03967893695629533,1.005695018029052,-0.9288379643371919
2.003132330685487,19.4162215862099,-0.03903314776918676,0.9890160856923284,-0.8991761334464689
1.9942350229555819,19.190760894318572,-0.038334745534336204,0.9715116698844118,-0.8922608868555754
1.9854962363668984,18.96931041294379,-0.037654703062909384,0.9541446898963041,-0.8881246084638591
1.976911623333711,18.751839022448713,-0.036994105921330414,0.9369108796261233,-0.8866190966592935
1.9684766091153294,18.53831656310831,-0.03635384380372724,0.9198061581165059,-0.8876012068770144
1.9601864350360843,18.32871379357094,-0.03573462645057756,0.9028266204692925,-0.8909324958353909
1.9520361981862477,18.123002351331213,-0.03513699833060989,0.8859685294413977,-0.8964788816026745
1.9440208878776626,17.921154715061967,-0.03456135217882639,0.8692283076824948,-0.904110317989177
1.9361354191073739,17.723144168661854,-0.034007941475858956,0.8526025305793542,-0.9137004818384221
1.928374663263764,17.52894476688253,-0.03347689194683509,0.8360879196756391,-0.9251264718587493
1.9207334762924615,17.33853130240626,-0.03296821215144749,0.8196813366397311,-0.9382685176949903
1.9132067245234878,17.151879274250664,-0.03248180323093173,0.8033797777567657,-0.953009697988563
1.9057893083466386,16.96896485738231,-0.032017467872105514,0.7871803689245469,-0.9692356662139775
1.8984761839088482,16.7897648734253,-0.03157491854346183,0.771080361136412,-0.9868343831106107
1.8912623829951987,16.614256762354305,-0.03115378505349199,0.7550771264374777,-1.0056958545508423
1.8841430312442033,16.442418555064428,-0.030753621476901704,0.7391681543440479,-1.02571187369935
1.877113364837994,16.274228846712138,-0.030373912490135158,0.7233510487193452,-1.046775766323532
1.8701687457989644,16.10966677072266,-0.030014079153602144,0.7076235251021845,-1.0687821381115816
1.8633046760162697,15.9487119733597,-0.029673484174177426,0.6919834084887806,-1.091626622842521
1.8565168101182836,15.791344588752754,-0.029351436677875486,0.6764286315716166,-1.1152056302312467
1.8498009673006353,15.637545214276042,-0.02904719651906585,0.6609572334432606,-1.1394160922410528
1.8431531422137903,15.487294886170684,-0.028759978149151433,0.6455673587772436,-1.1641552066157628
1.836569515009249,15.34057505529849,-0.02848895406425277,0.6302572575026832,-1.189320176333054
1.8300464606393292,15.197367562911335,-0.02823325784809175,0.6150252849943167,-1.2148079436192982
1.8235805575021633,15.057654616314405,-0.027991986822915576,0.5998699028050724,-1.2405149170936784
1.8171685955209682,14.92141876429477,-0.02776420431791018,0.5847896799743602,-1.26633669052492
1.810807583744884,14.78864287217824,-0.027548941561084894,0.5697832949519921,-1.2921677515870977
1.804494757557701,14.659310096367467,-0.027345199197026986,0.5548495381851666,-1.3179011788911803
1.7982275855806868,14.533403858202366,-0.027151948429183427,0.5399873154244058,-1.343428325445853
1.792003776356472,14.410907816969967,-0.026968131781380546,0.5251956518138556,-1.3686384865646235
1.785821284902668,14.291805841874531,-0.02679266346908922,0.5104736968421091,-1.3934185500865142
1.7796783192265837,14.176081982759872,-0.026624429366426363,0.49582073024187445,-1.4176526266156588
1.773573346896196,14.06372043935389,-0.026462286549988386,0.4812361689405712,-1.4412216573126153
1.7675051017674919,13.954705528780082,-0.02630506239526577,0.4667195751794998,-1.4640029965902697
1.7614725909745532,13.849021651051707,-0.026151553195505352,0.452270665936814,-1.485869966884829
1.7554751022964377,13.746653252230903,-0.026000522266369678,0.437889323809323,-1.5066913824953196
1.7495122120241706,13.64758478489684,-0.025850697492472794,0.42357560953034945,-1.5263310393248544
1.74358379346221,13.551800665523405,-0.025700768263706614,0.409329776325591,-1.5446471672308837
1.73769002621178,13.459285228317299,-0.025549381740032823,0.39515228633619864,-1.5614918416247479
1.7318314063987956,13.370022675011324,-0.025395138372875804,0.3810438293679408,-1.576710350989263
1.7260087580270167,13.283997020044463,-0.02523658659911398,0.36700534425691933,-1.5901405171587208
1.7202232456580226,13.2011920304898,-0.02507221660952867,0.353038043174945,-1.6016119656027954
1.7144763886440864,13.12159116001326,-0.02490045307687449,0.33914343922973894,-1.6109453436802863
1.7087700771687464,13.045177476061294,-0.024719646708691416,0.3253233777438895,-1.6179514860311597
1.703106590383722,12.971933579384725,-0.024528064465434832,0.31158007161756796,-1.622430528170634
1.697488616971016,12.90184151491226,-0.024323878253746843,0.2979161411864689,-1.6241709722427606
1.6919192785073427,12.834882672894544,-0.02410515186515082,0.284334658967575,-1.6229487132186187
1.6864021560668605,12.771037679156425,-0.0238698258781729,0.2708391996247497,-1.6185260402069832
1.680941320571233,12.710286273233297,-0.023615700170762973,0.2574338953589663,-1.610650636869519
1.6755413674887065,12.652607173146887,-0.02334041359033629,0.24412349669678,-1.599054618463459
1.6702074566044627,12.597977925626907,-0.02304142018569842,0.23091343825956306,-1.5834536625775684
1.6649453577457285,12.546374740753905,-0.02271596119459856,0.21780990846218173,-1.5635463187524148
1.6597615035669384,12.497772310355238,-0.0223610316644448,0.20481992109143568,-1.5390136225281343
1.6546630508139675,12.452143610134605,-0.021973340100519632,0.19195138517492616,-1.5095191971689317
1.6496579519418644,12.40945968660943,-0.0215492587873324,0.17921316721789632,-1.4747101084872418
1.6447550396368826,12.369689431692336,-0.021084761255988335,0.16661513640901354,-1.4342188544722405
1.6399641278177843,12.332799350499442,-0.02057534151878021,0.15416817831178983,-1.3876670343513198
1.6352961342664596,12.298753332134144,-0.02001590675360807,0.141884155299506,-1.334671466348806
1.6307632324883454,12.26751243934683,-0.019400630447384725,0.12977578198148154,-1.2748538249631811
1.6263790442447261,12.23903474177543,-0.01872274558408684,0.11785637081328981,-1.207855255079115
1.622158890243591,12.213275229545225,-0.017974245730131275,0.10613938771025197,-1.1333578742093797
1.6181201259830105,12.190185859490455,-0.017145443492310036,0.09463774320077613,-1.051115512018806
1.6142826046324412,12.16971580381352,-0.016224307382204744,0.08336274094648619,-0.9609962262025894
1.6106693320143552,12.151811985685203,-0.015195454514195253,0.07232263408237159,-0.8630385500976572
1.6073074147216557,12.136419985660329,-0.014038608900583175,0.061520844394807,-0.7575210471115621
1.604229459225248,12.1234853606516,-0.012726221502962369,0.05095415568108664,-0.6450389300180694
1.6014756765572102,12.112955285890052,-0.011219714740843639,0.04061171181061679,-0.5265704672434509
1.5990971442024717,12.104780132082283,-0.009463175300361306,0.030476582170003496,-0.403499816993335
1.5971612044211574,12.098913982818026,-0.0073710836675880635,0.020533411432226444,-0.27754802083446595
1.5957618933611213,12.095311664967682,-0.004796838593595363,0.010791091614251755,-0.15056416245074905
1.595048986379378,12.093913456411997,-0.0014023525519986416,0.0013672436525844524,-0.024178085213301892
