x,y,v_x,v_y,omega
2.375,32.48,0.0,2.717948717948718,-4.816326530612245
2.373709902475102,31.86239677839769,-0.011218239346936883,2.6525140785930765,-4.502695820779034
2.370033628508836,31.259527918529958,-0.020749360359726965,2.5898238333002332,-4.219571745644208
2.3643312742736575,30.670783836018753,-0.028836328641824786,2.5296899276667766,-3.963097815193785
2.3569114300223295,30.09559609800027,-0.03568405615233116,2.4719425768417596,-3.7299958779462568
2.3480391739853013,29.533433498963905,-0.04146599634356696,2.4164278495614178,-3.5174669529301257
2.337942695109808,28.983798644652946,-0.04632947213898497,2.363005666186071,-3.3231111566198144
2.326818805055087,28.446224958767765,-0.050400006597717414,2.311548124119846,-3.1448626393155723
2.314837545110934,27.920274044726167,-0.05378486248187371,2.261938084937528,-2.9809364097214326
2.302146051689188,27.405533348079075,-0.056575949881133535,2.214067972863272,-2.8297846412608307
2.2888718114837086,26.901614075458358,-0.05885222581868772,2.1678387455777424,-2.6900605892677927
2.2751254119579993,26.40814933393475,-0.060681683100522625,2.1231590068014627,-2.5605886534839764
2.261002872792642,25.924792460955086,-0.062123005293888506,2.0799442364999585,-2.4403394297432786
2.24658762804766,25.451215520022462,-0.06322694901030337,2.0381161194359114,-2.3284088329489596
2.2319522161288052,24.98710794128399,-0.06403750245800018,1.9976019565507859,-2.224000558228018
2.2171597244841568,24.53217528942419,-0.0645928596693795,1.9583341465779276,-2.126411291475039
2.202265027760501,24.086138143896278,-0.06492624227545253,1.9202497275778292,-2.0350181939578196
2.187315851505328,23.64873107868683,-0.0650665947260508,1.883289969895644,-1.9492682753871045
2.172353688091244,23.219701730598267,-0.06503917409207047,1.847400013483166,-1.868669341213284
2.1574145871171972,22.798809946523825,-0.0648660517692078,1.812528543685892,-1.7927822569617278
2.1425298389108933,22.385827001438628,-0.06456654132908503,1.778627500533218,-1.7212143182501272
2.127726566766127,21.980534879883912,-0.06415756427758179,1.745651817333855,-1.653613552121826
2.1130282410762025,21.582725614614894,-0.06365396346088918,1.7135591850054597,-1.5896638053146768
2.098455126473681,21.192200676844465,-0.06306877221321473,1.6823098390851974,-1.529080499492768
2.0840246713800314,20.808770413167885,-0.06241344599242966,1.6518663667981237,-1.471606953414136
2.0697518479444423,20.43225352481533,-0.061698062143128195,1.6221935319197276,-1.4170111883681131
2.0556494491588135,20.062476585365395,-0.06093149251451328,1.5932581154710277,-1.3650831466836892
2.0417283489353872,19.69927359347416,-0.060121552906585114,1.5650287705396984,-1.3156322642346048
2.0279977300914354,19.342485557542318,-0.05927513269299906,1.5374758897371916,-1.2684853470857118
2.0144652844750857,18.991960109564108,-0.058398307449169164,1.5105714839863889,-1.2234847100888817
2.0011373888656414,18.647551145684055,-0.05749643698078392,1.4842890714923487,-1.1804865416269954
1.9880432750979717,18.309122083300092,-0.05636542186851647,1.4585723405420936,-1.1336771395070653
1.9752088532787355,17.976541706676887,-0.05523824612484108,1.433430934442295,-1.0892567079736195
1.9626329448844833,17.649680302865498,-0.054117479042570464,1.4088421421784556,-1.0470724729279959
1.9503138238476876,17.3284132488161,-0.05300531258173917,1.3847844147728374,-1.0069832817409377
1.9382492979820887,17.012620752695497,-0.0519036079886876,1.361237290623713,-0.9688585802124733
1.9264367803484626,16.702187611716564,-0.05081393665153861,1.338181326584417,-0.9325774915110121
1.9148733518010057,16.397002985218705,-0.04973761593504238,1.3155980342665405,-0.8980279857619371
1.903555815795263,16.096960181851006,-0.048675740636634476,1.2934698211047446,-0.8651061303416246
1.8924807464008644,15.801956459810686,-0.04762921061900585,1.2717799357676174,-0.8337154121337113
1.8816445303431448,15.511892839180245,-0.04659875510029373,1.2505124175405546,-0.8037661240472179
1.8710434037943915,15.22667392548858,-0.045584954019299954,1.229652049343491,-0.7751748090033389
1.8606734845457606,14.946207743694984,-0.04458825683835941,1.2091843140790675,-0.7478637553883798
1.8505308001129306,14.670405581861754,-0.04360899909929467,1.1890953540359726,-0.721760538660679
1.8406113122606849,14.399181843841323,-0.04264741700718921,1.1693719330982093,-0.696797604403129
1.83091093837248,14.132453910358588,-0.04170366028154977,1.1500014015342643,-0.672911888641876
1.8214255700394406,13.870142007918638,-0.04077780348401092,1.1309716631609563,-0.650044471715948
1.81215108919816,13.61216908501516,-0.039869856005385736,1.112271144695376,-0.6281402623905166
1.8030833821072592,13.358460695155813,-0.0389797708720117,1.0938887671250563,-0.6071477092656108
1.7942183514181564,13.10894488625815,-0.03810745251149127,1.075813918941561,-0.5870185368486949
1.7855519265652584,12.863552096003808,-0.03725276360066525,1.0580364310962116,-0.5677075039390322
1.7770800726742646,12.622215052769622,-0.03641553110362908,1.0405465535488942,-0.5491721822188997
1.7687987981639794,12.38486868178293,-0.03559555159450228,1.0233349332919,-0.5313727531655281
1.7607041611965653,12.151450016174177,-0.034792595948229546,1.0063925937407243,-0.5142718215916536
1.752792275113158,11.921898112623825,-0.034006413472704874,0.9897109153927642,-0.497834244294799
1.7450660375731104,11.69626365544394,-0.03317826078857631,0.972327842693216,-0.501277203348698
1.737526422014203,11.474612260506593,-0.0323836136367067,0.9550755915445708,-0.5072197355669052
1.7301657006215532,11.25691429544312,-0.03162265934285744,0.9379501916160468,-0.5155256695958463
1.7229761186731427,11.043141021838931,-0.03089544455636298,0.9209478397247406,-0.5260633840499429
1.7159499254472004,10.833264557720959,-0.03020188784313463,0.9040648917358919,-0.5387054810166299
1.709079402350988,10.627257841838098,-0.029541791254363476,0.8872978550716059,-0.5533284736439306
1.7023568884976024,10.425094599598605,-0.028914850948991686,0.8706433817935458,-0.5698124864301684
1.6957748039401892,10.226749310536029,-0.028320666941556157,0.8540982622288587,-0.5880409669032747
1.689325670757191,10.032197177181814,-0.02775875204103744,0.8376594191121436,-0.6079004074353842
1.6830021321677777,9.841414095228657,-0.02722854004081933,0.8213239022196639,-0.6292800759874457
1.676796969843389,9.654376624873741,-0.026729393214733423,0.8050888834752604,-0.6520717546187819
1.6707031195692155,9.471061963235368,-0.026260609169385603,0.7889516525105948,-0.6761694846281607
1.6647136853984086,9.291447917740122,-0.025821427098498093,0.77290961266546,-0.7014693172161655
1.6588219524317878,9.115512880380642,-0.025411033480814162,0.7569602774169834,-0.7278690685735374
1.6530213983466897,8.94323580274628,-0.025028567259168022,0.7411012672296526,-0.7552680783067162
1.647305703790408,8.774596171730426,-0.02467312453458641,0.7253303068212437,-0.7835669701098866
1.641668761746272,8.60957398581904,-0.024343762805729082,0.7096452228429809,-0.812667413582289
1.6361046859738484,8.448149731864898,-0.024039504780561355,0.6940439419756406,-0.8424718860700469
1.630607818618941,8.290304362251309,-0.023759341783852608,0.6785244894468754,-0.8728834333829407
1.6251727370839966,8.136019272347351,-0.023502236780879246,0.6630849879788437,-0.9038054281979224
1.6197942602452224,7.98527627815416,-0.02326712703454818,0.6477236571793261,-0.935141324912141
1.6144674540990978,7.838057594038229,-0.02305292641001554,0.6324388133939757,-0.9667944096481533
1.609187636918108,7.694345810443064,-0.022858527337722048,0.6172288700422515,-0.9986675440420563
1.6039503839933746,7.5541238714647285,-0.022682802442566527,0.6020923384650074,-1.0306629013606152
1.5987515320404593,7.41737505216971,-0.022524605843655753,0.5870278293177577,-1.0626816933951444
1.5935871833439876,7.2840829355248715,-0.022382774125662388,0.5720340545504197,-1.0946238864668913
1.5884537097169227,7.154231388799047,-0.022256126979250456,0.5571098300219763,-1.1263879047499492
1.583347756351321,7.0278045392836965,-0.02214346750424267,0.54225407880715,-1.157870318972246
1.5782662456393404,6.904786749165744,-0.02204358216515424,0.5274658352620064,-1.1889655183919874
1.5732063810461479,6.785162589369055,-0.02195524038434613,0.5127442499265976,-1.2195653637653383
1.5681656511203195,6.6689168121616085,-0.021877193753292775,0.4980885953555309,-1.2495588188207285
1.563141833732408,6.556034322302796,-0.021808174837243,0.4834982729819503,-1.2788315575362006
1.5581330006387033,6.446500146479103,-0.02174689554279571,0.46897282113712,-1.3072655442798387
1.553137522474957,6.34029940074614,-0.02169204501152057,0.4545119243668915,-1.3347385836221306
1.548154074294136,6.237417255660013,-0.02164228699561951,0.44011542420814276,-1.3611238363678724
1.543181641773323,6.1378388987405685,-0.021596256663621128,0.4257833316131196,-1.3862892980917998
1.5382195282278728,6.041549493862711,-0.02155255677507662,0.41151584123780394,-1.4100972362090365
1.5332673625861437,5.948534137118504,-0.021509753153001812,0.3973133478422512,-1.432403581387833
1.528325108495865,5.858777808631704,-0.021466369371161625,0.3831764650864476,-1.4530572689467403
1.5233930747537885,5.772265319736633,-0.02142088055993896,0.3691060470446167,-1.4718995258140122
1.5184719272741987,5.6889812548540775,-0.02137170621910165,0.35510321280370083,-1.4887630987263853
1.5135627028396066,5.608909907307591,-0.021317201907786586,0.34116937455705243,-1.5034714196989944
1.5086668249092217,5.532035208223736,-0.021255649660776622,0.32730626965039894,-1.5158377055412116
1.503786121798444,5.458340647549658,-0.021185246954680957,0.3135159970806949,-1.5256639895178792
1.4989228475867566,5.387809186102203,-0.02110409401651554,0.2998010589841418,-1.5327400854418494
1.494079706163606,5.3204231574371335,-0.021010179228272675,0.2861644076686313,-1.5368424879380809
1.4892598788842806,5.256164158200821,-0.020901362331077974,0.2726094987340956,-1.5377332179308505
1.4844670563835793,5.19501292550904,-0.020775355066323598,0.2591403507596479,-1.5351586304291978
1.4797054751888816,5.136949199804942,-0.02062969880061175,0.24576161188467205,-1.5288482136645145
1.474979959893167,5.081951571606478,-0.020461738553428137,0.23247863331934868,-1.5185134263756281
1.4702959718036048,5.0299973106043545,-0.02026859266015606,0.21929754930779874,-1.5038466461685684
1.4656596651899187,4.981062175779606,-0.020047117024072626,0.2062253622117629,-1.48452034021446
1.4610779525465856,4.935120205675155,-0.019793862483171977,0.19327003000086568,-1.4601866256029825
1.4565585806989407,4.8921434888307544,-0.019505023148522316,0.18044055125479228,-1.4304774683467298
1.452110220198498,4.852101915904633,-0.019176372507501035,0.16774703940714217,-1.3950058885077705
1.4477425713870482,4.814962917497205,-0.018803182374669797,0.1552007728313503,-1.3533687095841163
1.4434664919593012,4.780691195651929,-0.01838011699704309,0.14281419973625295,-1.3051516333876596
1.4392941531441918,4.749248463116306,-0.01790109009086549,0.13060086579089608,-1.2499377614363079
1.4352392352878671,4.720593213588675,-0.017359065181523373,0.11857521705807272,-1.1873211436672235
1.4313171795255106,4.694680559366038,-0.016745767534619163,0.10675221096486058,-1.1169275218631984
1.4275455217760016,4.671462190847695,-0.01605125637415562,0.09514664571637946,-1.0384450994599652
1.4239443507075782,4.650886534892759,-0.015263274655612537,0.08377210171784777,-0.9516687172429534
1.42053695607762,4.6328992123613695,-0.014366243865762393,0.07263939855509514,-0.8565607272165146
1.4173507733826545,4.617443907593238,-0.013339692612199553,0.06175455595039695,-0.7533299871471898
1.414418794271644,4.604463736142684,-0.012155777918326713,0.051116500141381103,-0.6425246254441254
1.4117817194212243,4.593903075582634,-0.01077530773749638,0.04071533081557434,-0.5251216156737218
1.4094913408783398,4.58570950952133,-0.009141027418022035,0.030533069717497814,-0.4025751815783834
1.4076161834603431,4.579834855281685,-0.007164689260209174,0.02055088019246372,-0.2767623382561812
1.4062523920907801,4.576232664318347,-0.004694366127294814,0.010772519488727797,-0.1497560869638309
1.405553901455355,4.574842872174358,-0.0013794654850960118,0.001312629589431116,-0.023405799344686035
