x,y,v_x,v_y,omega
2.375,32.48,0.0,2.1025641025641026,-8.0
2.3734568383424177,32.001453378132204,-0.01341879702245596,2.058710870199299,-7.580701032687151
2.369017767168476,31.532812774059963,-0.025181821881384833,2.0164248173854276,-7.193644865545712
2.3620411359381865,31.073729716120763,-0.035484536642872024,1.975601773390217,-6.835493176334987
2.3528433308053582,30.623878469314842,-0.04449637755563196,1.936148198835172,-6.503332222596339
2.34170429623196,30.182953762355602,-0.05236479264783228,1.8979796877669375,-6.194608743802691
2.3288722122839247,29.750668829125974,-0.059218546030736285,1.8610197316211095,-5.907077154074256
2.314567478516235,29.32675371040219,-0.06517044325352309,1.8251986920639691,-5.638755740263311
2.2989861240995917,28.91095377252355,-0.0703195951520677,1.7904529416633432,-5.3878901028782105
2.2823027399463385,28.503028408091716,-0.07475331052839713,1.756724140352598,-5.152922467201623
2.2646730101320225,28.102749890363697,-0.0785486878569583,1.7239586224997416,-4.932465785940065
2.246235905503652,27.709902358192743,-0.0817739610853945,1.6921068746390022,-4.725281778649442
2.227115591020446,27.324280912492636,-0.0844896431163976,1.661123087970611,-4.530262225327412
2.207423089359811,26.94569080849467,-0.0867495017586863,1.6309647728812589,-4.346412965082842
2.187257736102626,26.573946730715328,-0.08860139612988015,1.601592425199997,-4.172840155209608
2.1667084559865057,26.208872139695348,-0.09008799618420799,1.572969235843302,-4.008738428283088
2.1458548849813557,25.850298681313877,-0.09124740386057714,1.54506083703905,-3.8533806502232335
2.1247683590684505,25.49806565090695,-0.09211369103425081,1.5178350795429283,-3.706109034479864
2.1035127874164026,25.152019505591774,-0.09271736680964336,1.4912618362411922,-3.566327409493914
2.082197921199861,24.812030780679045,-0.09262929594288975,1.465161858652129,-3.4236283972228025
2.0609214955405935,24.477975399427677,-0.09238310109422186,1.4396675435336679,-3.288314833995165
2.039717794768499,24.14971698272123,-0.09199690561964334,1.4147534713050132,-3.1599062961301447
2.018617149635326,23.82712483240138,-0.09148696510360181,1.3903956619110416,-3.0379597228484148
1.997646343974373,23.510073612469554,-0.09086786673077062,1.366571467930955,-2.922066028019401
1.9768289781420938,23.19844305373227,-0.09015270572383023,1.3432594776106541,-2.8118470636672286
1.9561857941842002,22.89211767973594,-0.08935324173611274,1.3204394267052562,-2.7069528939397394
1.9357349670506736,22.590986552075954,-0.0884800376858595,1.2980921181641758,-2.6070593436770335
1.9154923656512297,22.294943033373293,-0.08754258317886923,1.276199348815467,-2.5118657903535957
1.89547178708221,22.0038845663936,-0.08654940437782435,1.2547438423122812,-2.4210931721393956
1.8756851669567023,21.717712467942736,-0.08550816193093753,1.2337091876952433,-2.3344821882360276
1.8561427684229321,21.436331736312468,-0.08442573836271614,1.2130797830027222,-2.251791670581192
1.8368533521539887,21.159650871172897,-0.08330831614983526,1.1928407834283534,-2.1727971085510607
1.817824329328439,20.887581704916542,-0.08216144755059768,1.1729780535834295,-2.0972893104855648
1.799061899390938,20.620039244555137,-0.08099011712332398,1.1534781234722848,-2.0250731877667745
1.7805711741800447,20.35694152335506,-0.07979879775400851,1.1343281478327087,-1.955966648837542
1.762356289833225,20.098209461473154,-0.07859150091398899,1.1155158685316995,-1.8897995919919526
1.7444205077231925,19.84376673492187,-0.07737182178194661,1.0970295797403211,-1.8264129870308516
1.7267663055424898,19.59353965225305,-0.07614297978938075,1.0788580956407348,-1.7656580369801267
1.7093954595321446,19.34745703840328,-0.0749078550831872,1.0609907204442122,-1.7073954120380448
1.6923091187432753,19.105450125192213,-0.07366902134176205,1.0434172205216041,-1.6514945487690746
1.6755078721259067,18.86745244800844,-0.07242877533100928,1.026127798467724,-1.5978330083108725
1.6589918091554212,18.63339974825669,-0.07118916354277588,1.0091130689387924,-1.5462958880218356
1.6427605746327314,18.403229881175186,-0.06995200621974561,0.9923640361177565,-1.4967752815802708
1.6268275482791452,18.1770235637001,-0.06859604902883089,0.9746474201873385,-1.4730770302455682
1.611203045603118,17.954874914063787,-0.06726919163227539,0.9570799679545355,-1.4527152057602362
1.595880271614767,17.736750182294386,-0.06597232130990598,0.939656830040239,-1.435513582717268
1.5808522506848866,17.52261670790959,-0.06470612155862036,0.9223733820014751,-1.421302505747482
1.5661118714625308,17.31244286952923,-0.06347108907055983,0.905225212610329,-1.4099184318268185
1.5516519280404704,17.10619803708046,-0.06226754938213938,0.88820811303114,-1.4012034960772854
1.5374651576626044,16.90385252639546,-0.06109567129495809,0.8713180668384329,-1.395005098920172
1.5235442752451358,16.705377556014277,-0.059955480161290174,0.8545512408240322,-1.39117551258079
1.5098820049628747,16.510745206016566,-0.058846870119240995,0.8379039765473639,-1.3895715050682005
1.4964711091332605,16.319928378715982,-0.057769615355664154,0.8213727825881385,-1.390053979862467
1.4833044146134808,16.132900761059815,-0.05672338046850701,0.8049543274654898,-1.3924876296370579
1.4703748369102556,15.949636788584172,-0.055707729994321505,0.7886454331922724,-1.396740602426084
1.4576754021873717,15.770111610781733,-0.05472213716119043,0.772443069437642,-1.4026841787159048
1.4451992673427787,15.594301057744744,-0.05376599192222713,0.7563443482753075,-1.4101924579989564
1.4329397383149152,15.422181607950698,-0.052838608320064796,0.7403465194990064,-1.4191420533750065
1.4208902867668511,15.253730357061865,-0.05193923122831936,0.724446966490844,-1.429411792821866
1.4090445652867316,15.088924987612714,-0.05106704251184922,0.7086432026322229,-1.4408824257842476
1.3973964212338421,14.927743739461121,-0.050221166643712095,0.6929328682512037,-1.4534363337462102
1.3859399093513203,14.770165380880236,-0.049400675812999444,0.677313728104327,-1.4669572434596383
1.3746693032590944,14.616169180167784,-0.04860459455418266,0.6617836693952659,-1.481329941498621
1.3635791059339655,14.46573487764855,-0.047831903925200446,0.6463407003371892,-1.496439988797451
1.3526640592778716,14.31884265794367,-0.04708154525822557,0.6309829492704855,-1.5121734338083184
1.3419191528702339,14.175473122377017,-0.04635242350384128,0.6157086643525742,-1.528416522883628
1.3313396319958786,14.035607261384644,-0.04564341018620406,0.6005162138419823,-1.5450554064472966
1.3209210050363465,13.899226426787266,-0.04495334598364047,0.5854040870047768,-1.5619758394694578
1.3106590503094389,13.766312303778761,-0.044281042945990355,0.5703708956778824,-1.5790628746999724
1.300549822439614,13.636846882474753,-0.0436252863568348,0.5554153765308765,-1.5962005470484089
1.2905896583403453,13.510812428855004,-0.04298483624550029,0.5405363940756311,-1.6132715474224386
1.2807751828888199,13.388191454920904,-0.04235842855037349,0.525732944481761,-1.6301568842540288
1.2711033143733983,13.268966687874986,-0.04174477593155278,0.5110041602653463,-1.6467355308551768
1.2615712697951464,13.153121038112644,-0.04114256822715805,0.4963493159289319,-1.6628840566548764
1.2521765701065017,13.040637565796935,-0.04055047254366622,0.481767834642457,-1.6784762402804285
1.2429170454728469,12.931499445765272,-0.039967132966376204,0.4672592960676469,-1.6933826623647177
1.2337908406464955,12.825689930491599,-0.03939116987146124,0.45282344544254416,-1.7074702758947178
1.224796420547443,12.723192310799,-0.03882117881595048,0.4384602040583184,-1.7206019518765454
1.215932576151336,12.623989873985415,-0.03825572897628532,0.42416968127720694,-1.7326359980947774
1.2071984307926,12.528065858988839,-0.03769336109967923,0.4099521882582543,-1.7434256488106321
1.1985934469997404,12.435403408177887,-0.037132584925188235,0.3958082535761063,-1.752818523405864
1.1901174339907072,12.345985515308893,-0.03657187602292649,0.3817386409368787,-1.760656052279636
1.1817705559692322,12.259794969141648,-0.03600967198990001,0.3677443692130915,-1.7667728688035622
1.1735533413785575,12.176814292153086,-0.03544436792901014,0.35382673503527395,-1.7709961669177465
1.1654666932875501,12.097025673732325,-0.03487431112322831,0.3399873381887157,-1.7731450251217544
1.157511901106517,12.020410897182995,-0.03429779479880045,0.32622811006632685,-1.7730296993367027
1.149690653857112,11.946951259802383,-0.033713050848197194,0.31255134541726093,-1.7704508896064544
1.142005055253939,11.876627485255646,-0.03311824135330881,0.29895973759782807,-1.7651989891701976
1.134457640896773,11.809419627423477,-0.032511448709003146,0.28545641746453065,-1.7570533294957391
1.1270513979246595,11.745306964882914,-0.03189066409198506,0.2720449959316512,-1.7457814419958029
1.1197897875506457,11.684267885198139,-0.031253773942916875,0.258729610022902,-1.7311383671673377
1.1126767709848702,11.62627975827212,-0.03059854402034974,0.24551497194249045,-1.7128660559163014
1.1057168393734302,11.57131879817291,-0.029922600426954403,0.23240642022453126,-1.690692927403678
1.0989150485449766,11.51935991314543,-0.029223406776991367,0.2194099713187985,-1.6643336749946414
1.0922770595875806,11.470376544016315,-0.028498236330799915,0.20653236893438265,-1.633489449696788
1.085809186607535,11.424340491989337,-0.027744137408726242,0.1937811269523752,-1.5978486026967504
1.079518453498845,11.381221738041617,-0.026957889623361417,0.18116455954955193,-1.5570882402847157
1.0734126622529612,11.340988257945522,-0.026135947297366388,0.16869178911215219,-1.5108769418827814
1.0675004763784919,11.303605839594578,-0.025274364654539905,0.15637271828735375,-1.4588791223046216
1.061791524556476,11.26903791310351,-0.024368694667338542,0.14421794685236408,-1.4007616897277648
1.0562965319951847,11.23724540942812,-0.02341384934389018,0.13223860684668534,-1.3362038645458283
1.0510274904691288,11.208186670334985,-0.022403903056595252,0.12044608091969307,-1.2649112735945458
1.0459978833199426,11.181817441574825,-0.021331811284155122,0.10885156047298936,-1.186635684782128
1.0412229896160878,11.15809099162539,-0.02018900353197367,0.0974653956090463,-1.101201907658429
1.0367203034276467,11.136958408554655,-0.018964789410992645,0.08629619631038643,-1.0085432556692735
1.0325101214998809,11.118369132808198,-0.017645488221753488,0.07534967974577775,-0.9087461597238967
1.0286163781487767,11.10227177435214,-0.01621314961393515,0.06462735030688893,-0.8021023940709873
1.0250678449444837,11.088615220730954,-0.014643660858178491,0.05412528987734379,-0.6891630590987954
1.0218998773789776,11.077349939039504,-0.012903883189701263,0.04383368135264708,-0.5707813147720736
1.0191570211853165,11.068429165617342,-0.01094704023343953,0.03373826144875133,-0.4481216660033816
1.0168971285044828,11.061809283588012,-0.008704200469462723,0.02382593011063322,-0.3226063835168677
1.0151987528430835,11.057447834556886,-0.006064283542704586,0.014099713638285891,-0.19577159585717918
1.014178718743099,11.055294493091491,-0.002805578196289776,0.004624994756440752,-0.06902690357259225
