x,y,v_x,v_y,omega
2.375,32.48,0.0,3.128205128205128,-5.428571428571429
2.3735915038846143,31.831212064834883,-0.013414248717959699,3.0507275876531046,-5.059975160182116
2.3695856497490855,31.198336287827093,-0.024736743048980266,2.976660764802039,-4.729010735006218
2.363388757254014,30.580681940917888,-0.03428128071360491,2.9057615867142057,-4.430708896159959
2.3553466215306056,29.97760676523383,-0.042310488080759774,2.8378115150387075,-4.1608768271926975
2.345754290950321,29.388512172165306,-0.04904504125528672,2.772613180852006,-3.915959681640135
2.3348641015718488,28.812839088381978,-0.054671048063495445,2.709987617084437,-3.692929798788107
2.3228923118672555,28.250064332891423,-0.05934599674215388,2.649771959016104,-3.489197464200503
2.310024606501366,27.699697438040403,-0.06320357817108362,2.5918175157555137,-3.302538574071544
2.2964206810997188,27.16127784428779,-0.06635761613031492,2.5359881390313,-3.13103566166498
2.282218076327119,26.634372412251615,-0.06890528646587375,2.4821588327417516,-2.9730295587355315
2.267535395830249,26.11857320608089,-0.07092976588526981,2.4302145593604174,-2.827079574952858
2.2524750162395484,25.61349551042865,-0.07250242069283236,2.3800492087561347,-2.6919305397023905
2.2371253767009267,25.118776049785147,-0.0736846225321328,2.331564702134365,-2.566485402558855
2.221562919004805,24.634071384088276,-0.07452926028807241,2.284670209264414,-2.4497823593330192
2.2058537363188493,24.159056458672154,-0.07508200338769935,2.2392814613653353,-2.3409756802082975
2.190054978073085,23.693423289972383,-0.07538236085767454,2.195320145299133,-2.239319579965626
2.1742160501301067,23.23687977115019,-0.07546457193259472,2.1527133672931957,-2.144154598603475
2.158379642568113,22.789148584056825,-0.07535835722924925,2.1113931764531415,-2.054896061955983
2.142582611877851,22.349966205833788,-0.07508955410658183,2.071296139956728,-1.9710242723232725
2.1268567398675056,21.919082000009475,-0.0746806555157556,2.0323629631319613,-1.892076143289724
2.1112293878797574,21.496257383268414,-0.07415126817708362,1.9945381486876554,-1.8176380443507887
2.095724061893349,21.081265060181508,-0.07351850312204311,1.957769690235279,-1.747339662406674
2.0803609015815994,20.67388831913128,-0.07279730937081273,1.9220087959573675,-1.6808487207034615
2.065157104332207,20.273920383474287,-0.0720007596710175,1.8872096388711044,-1.617866423032923
2.050127293516438,19.881163812676668,-0.07114029571725622,1.8533291306300421,-1.5581235132091518
2.035283838867231,19.495429948757288,-0.07022593903709967,1.8203267162211765,-1.5013768580179023
2.020637135633255,19.11653840389139,-0.06926647271505118,1.7881641872635474,-1.447406476767567
2.0061958481777546,18.74431658547817,-0.0682695982897154,1.7568055119099844,-1.3960129528803746
1.9919671228532123,18.378599255369103,-0.06724207146782897,1.7262166796049243,-1.3470151731429818
1.977956774277945,18.019228120298163,-0.0661898197251936,1.696365559165953,-1.300248348682104
1.9641694485461147,17.666051450857438,-0.06511804438747405,1.667221768840935,-1.25556227875998
1.9506087663999028,17.318923726628256,-0.06403130938597458,1.6387565571512661,-1.2128198243513444
1.9372774489665332,16.977705305313137,-0.06293361855087716,1.6109426934689353,-1.17189556337429
1.9241774283009998,16.64226211392252,-0.06182848302563265,1.5837543673940593,-1.1326746035691067
1.9113099446673518,16.31246536025532,-0.060718980151966605,1.5571670961030917,-1.0950515324878194
1.898675632228735,15.988191263077027,-0.05960780497771658,1.5311576389282797,-1.058929486983756
1.8862745945918842,15.66932079954621,-0.05849731537324449,1.5057039185080667,-1.0242193270658975
1.8741064714595508,15.355739468571517,-0.05738957160135951,1.4807849479175812,-0.990838901081661
1.862186666179053,15.04733969170292,-0.056132383451000814,1.456355784164305,-0.9543394537530614
1.8505286438064232,14.744017810601672,-0.0548964010502343,1.432424035847567,-0.9195585295106614
1.8391278885529687,14.445671281444728,-0.053682220411236894,1.4089714799328674,-0.8863944462876548
1.827979775717969,14.152201296972756,-0.05249028277923757,1.3859807531335342,-0.8547526810234578
1.8170796020415847,13.863512611294407,-0.05132089509108752,1.3634353009459652,-0.824545285814953
1.8064226120249338,13.579513375014745,-0.05017424792463608,1.3413193302889026,-0.7956903580204053
1.796004020711432,13.300114979962174,-0.049050431251569965,1.3196177654498567,-0.7681115587567221
1.7858190333621158,13.025231912847616,-0.04794944826572697,1.298316207069732,-0.7417376748614798
1.7758628624042145,12.75478161724352,-0.046871227523809636,1.2774008939216737,-0.7165022199438729
1.7661307419856793,12.48868436331918,-0.045815633605096974,1.2568586672625135,-0.6923430706338961
1.7566179404277413,12.226863124813313,-0.04478247647050275,1.2366769375552498,-0.6692021345655841
1.7473197708320876,11.969243462765217,-0.04377151967857991,1.2168436533789988,-0.6470250470056621
1.738231600068222,11.71575341556272,-0.042782487596330236,1.1973472723590652,-0.6257608933701084
1.729348856339427,11.466323394898758,-0.04181507172552789,1.178176733964365,-0.6053619551635565
1.7206670355019602,11.220886087259078,-0.04086893625034771,1.1593214340325988,-0.5857834771350762
1.7121817062912683,10.979376360591633,-0.039943722899098234,1.140771200895465,-0.566983453672893
1.703888514590702,10.74173117583398,-0.03903905520153411,1.122516272986944,-0.5489224326637018
1.6957831868621402,10.50788950299847,-0.03815454221333843,1.1045472778274326,-0.5315633352225686
1.687861532843813,10.27779224153663,-0.037289781770730425,1.0868552122853157,-0.5148712898597679
1.6801194476081731,10.051382144723984,-0.03644436333060212,1.0694314240255884,-0.4988134797936483
1.6725529130617374,9.828603747824744,-0.035617870444976614,1.052267594062407,-0.4833590022458666
1.665157998959172,9.609403299812588,-0.03480988291278802,1.0353557203390726,-0.4684787386688896
1.6579308634954044,9.393728698439162,-0.03401997864690272,1.018688102264978,-0.45414523495712933
1.6508677535320464,9.181529428456162,-0.03324773528984168,1.002257326144548,-0.4403325907838463
1.6439650045077998,8.972756502809972,-0.03249273160774541,0.9860562514382091,-0.42701635728724807
1.6372254456283337,8.767508369465467,-0.03169354343479032,0.9686878756522939,-0.4420446411787119
1.6306496214263302,8.56589549483433,-0.030933353727146923,0.9514347398823568,-0.4590315824253599
1.6242293995023753,8.367894017040854,-0.03021161697718386,0.934293620055497,-0.47786288689635453
1.6179567700901696,8.173480737841587,-0.029527710758109935,0.9172614199375203,-0.49842739971529115
1.611823861425331,7.982633096340596,-0.02888094319273354,0.9003351657862017,-0.5206168544697425
1.605822953611265,7.795329143782645,-0.028270559798371415,0.8835120014323742,-0.5443256305770056
1.5999464911083565,7.611547519336337,-0.027695749753138214,0.866789183770564,-0.5694505178149771
1.5941870939636495,7.431267426782863,-0.027155651625023217,0.8501640786434626,-0.595890487056186
1.5885375678898561,7.254468612029061,-0.026649358601581682,0.8336341571070416,-0.6235464662653947
1.5829909132949456,7.081131341365936,-0.026175923254708033,0.8171969920655963,-0.6523211208369366
1.577540333356663,6.911236380395859,-0.025734361871790356,0.8008502552684778,-0.6821186373571031
1.5721792412300628,6.744764973553078,-0.02532365838154546,0.7845917146627752,-0.7128445098793862
1.566901266470503,6.581698824143118,-0.024942767899977254,0.7684192320987564,-0.7444053277961102
1.5617002607494932,6.42202007482706,-0.024590619919164763,0.7523307613875108,-0.7767085643787498
1.5565703029362914,6.265711288476506,-0.024266121158947277,0.7363243467129891,-0.809662365040788
1.5515057036142057,6.11275542932427,-0.023968158099009325,0.7203981214035416,-0.843175334350971
1.5465010090971425,5.963135844334428,-0.023695599206355066,0.7045503070711582,-0.8771563207908606
1.5415510050090542,5.816836244713311,-0.023447296870676253,0.6887792131299599,-0.9115141982081864
1.5366507194865813,5.673840687480208,-0.023222089057636078,0.673083236709134,-0.9461576428660782
1.5317954260633329,5.5341335570129,-0.023018800687587715,0.6574608629794945,-0.9809949049271743
1.5269806462929432,5.397699546478741,-0.022836244744694163,0.64191066591727,-1.0159335731401216
1.5222021521672777,5.264523639056396,-0.022673223118786945,0.6264313095336274,-1.0508803314133042
1.517455968385951,5.134591088846953,-0.022528527179564158,0.6110215496039381,-1.0857407058659032
1.5127383745337124,5.007887401365156,-0.02240093807985034,0.595680235936972,-1.120418800838676
1.5080459072232617,4.8843983134925,-0.02228922678158473,0.5804063152311789,-1.1548170222252385
1.5033753622627275,4.7641097727630495,-0.022192153794930784,0.5651988345731231,-1.1888357863482315
1.4987237969094367,4.647007915840451,-0.022108468617363538,0.5500569456421177,-1.222373212452746
1.4940885322747606,4.533079046030018,-0.022036908855742627,0.5349799096953313,-1.255324796721176
1.4894671559488406,4.422309609652981,-0.021976199010161943,0.519967103419306,-1.287583065528979
1.484857524918933,4.314686171090504,-0.021925048893718723,0.5050180257471409,-1.3190372054599475
1.4802577688610872,4.210195386282695,-0.02188215165719375,0.4901323057558019,-1.3495726673836508
1.4756662938919827,4.108823974441922,-0.021846181381898522,0.4753097117753738,-1.379070741669116
1.4710817868761425,4.010558687710013,-0.021815790197530063,0.4605501618618537,-1.4074081013718842
1.4665032203935615,3.915386278454722,-0.0217896048746692,0.4458537358075732,-1.434456309993362
1.4619298584842109,3.823293463861603,-0.021766222833433192,0.431220688888811,-1.4600812901829805
1.4573612632991382,3.7342668874325007,-0.021744207500591816,0.41665146757884614,-1.4841427495518884
1.4527973028031926,3.648293076950612,-0.021722082936984487,0.4021467274867555,-1.506493559616862
1.4482381596920746,3.5653583984136468,-0.021698327645092944,0.3877073538176579,-1.5269790838317308
1.4436843417067942,3.4854490053704943,-0.021671367452815945,0.37333448468856434,-1.5454364507447946
1.439136693552137,3.4085507830223456,-0.021639567353442798,0.359029537674749,-1.5616937686225247
1.4345964106529148,3.3346492863661688,-0.021601222162959115,0.3447942400031225,-1.5755692785151088
1.4300650550133043,3.263729671566715,-0.021554545833332276,0.33063066284881887,-1.5868704438706682
1.4255445734813246,3.1957766196440005,-0.02149765923314142,0.31654126022465756,-1.5953929766662418
1.4210373187636702,3.1307742514582344,-0.021428576173089624,0.3025289129731032,-1.6009198029517417
1.4165460735873503,3.0687060328676914,-0.021345187410910436,0.2885969783653956,-1.6032199751831286
1.4120740784662498,3.009554668834017,-0.02124524231385671,0.274749345764827,-1.602047545452227
1.4076250636062992,2.9533019851659255,-0.02112632778091053,0.2609904986931769,-1.5971404237115976
1.4032032855776098,2.8999287965452005,-0.02098584392089357,0.2473255834089775,-1.5882192597998464
1.398813569503715,2.8494147594987957,-0.020820975830485176,0.23376048369965383,-1.5749864095976809
1.3944613576794085,2.8017382091147454,-0.020628660591480275,0.22030190091036211,-1.5571250770184404
1.3901527657492925,2.756875978619803,-0.020405548266767357,0.2069574371366943,-1.5342987691133745
1.3858946478905456,2.714803201553142,-0.020147955149871197,0.193735677783901,-1.5061512675676039
1.3816946728963577,2.6754930973473385,-0.01985180669953608,0.18064626703328648,-1.4723074150442645
1.3775614137333145,2.6389167429082754,-0.019512566281827366,0.16769996571968718,-1.4323751513083984
1.3735044541809038,2.6050428356203064,-0.019125143741131147,0.15490867511812453,-1.3859494279348563
1.3695345177732259,2.57383745758451,-0.01868377442723031,0.14228540141326057,-1.3326189016508956
1.36566362680884,2.545263857481576,-0.01818185380501688,0.1298441233765987,-1.2719766762514837
1.3619053032537989,2.5192822760301397,-0.017611703862042152,0.1175995094942181,-1.2036368452724164
1.3582748298671394,2.4958498543570293,-0.016964233153761287,0.10556641120207931,-1.1272591650672699
1.3547896003060484,2.4749206819627148,-0.01622842933281987,0.09375904017236006,-1.042584758550767
1.3514696036272689,2.456446060880598,-0.01539058665555684,0.08218973203825938,-0.9494860138697974
1.3483381150594553,2.440375079266019,-0.014433113990287382,0.07086723571962057,-0.848033095922169
1.3454227068669298,2.4266555858329184,-0.013332678319480228,0.059794606500391034,-0.738576329846243
1.342756761043793,2.415235603720461,-0.012057281900870938,0.04896712790397169,-0.6218358758284213
1.3403817854129474,2.4060650585002357,-0.010561533630991937,0.038371398002931996,-0.49897521771392206
1.3383510930097076,2.3990973205578108,-0.008778394018910217,0.02798801097252865,-0.3716138095346346
1.3367361532731183,2.394289276537325,-0.006601984424797605,0.017802884460671013,-0.24171661351153906
1.3356399684207603,2.3915965483724655,-0.003837871311945345,0.007842145680839574,-0.11130451135967961
