x,y,v_x,v_y,omega
2.375,32.48,0.0,3.641025641025641,-4.448979591836735
2.3738841933849093,31.797085462360858,-0.011745332790426178,3.547548439386362,-4.132474164480106
2.3707193785272507,31.131526316564276,-0.021568507816510818,3.458337305840805,-3.8499135183792887
2.3658420073078728,30.48254116585407,-0.02977224186115099,3.3730853332139814,-3.5966120684117002
2.3595359155851936,29.84940405311777,-0.03660767100915285,3.291515853483914,-3.3686454975706743
2.3520412080482522,29.231439087554563,-0.04228398727444231,3.213378520865667,-3.162710532696169
2.343561499329495,28.6280157540319,-0.04697610450194864,3.1384460425307643,-2.9760134340640034
2.3342698440509286,28.038544794613724,-0.05083079316717158,3.066511425028991,-2.80618074006719
2.324313615082815,27.462474573796364,-0.053971617023500715,2.997385636206354,-2.651187391438732
2.313818533498491,26.899287855834977,-0.05650292596938058,2.930895605492476,-2.509298522203265
2.3028920109355098,26.348498935580345,-0.05851310100937034,2.8668825024510274,-2.3790220672216846
2.291625932033748,25.809651074458138,-0.060077203219699046,2.8052002462037557,-2.2590699822064426
2.2800989789238106,25.28231420131265,-0.0612591453059598,2.745714207959284,-2.1483263599746416
2.2683785796254945,24.766082844313477,-0.062113478886840164,2.6883000762425304,-2.045821098064675
2.256522546380804,24.26057426535887,-0.06268687105727216,2.632842860121776,-1.950708057552772
2.2445804574110895,23.765426772679188,-0.06301932862393197,2.579236010190638,-1.862246872656737
2.2325948256150747,23.28029819085537,-0.06314521659727622,2.5273806405864,-1.7797877413937655
2.2206020897522225,22.804864470376668,-0.06309410827485211,2.4771848381367727,-1.7027586609071674
2.2086334572541566,22.33881842128979,-0.0628914969679471,2.428563046988251,-1.630654675836761
2.196715622644367,21.88186855753012,-0.06255939366141854,2.381435518903051,-1.5630287908398932
2.1848713813664884,21.43373804024786,-0.062116830316249004,2.335727820910169,-1.4994842640307313
2.1731201554240185,20.994163709904612,-0.061580284867643664,2.291370393229291,-1.439668050463162
2.161478444462796,20.562895198164096,-0.06096404103996281,2.2482981514077447,-1.383265206720205
2.149960213658667,20.13969411167148,-0.060280493740344825,2.2064501274618875,-1.3299941014082042
2.138577227909097,19.724333280737476,-0.059540408886705115,2.1657691455276464,-1.279602303602832
2.127339340291736,19.316596066740395,-0.05875314498025246,2.1262015281258217,-1.2318630433899516
2.1162547414834703,18.916275722751084,-0.05792684247517707,2.0876968296564087,-1.186572156629749
2.1053301757810226,18.523174802487702,-0.05706858597164101,2.050207594168697,-1.1435454407651537
2.0945711284890507,18.13710461323347,-0.056184543417538264,2.013689134823218,-1.1026163605402959
2.0839819887120625,17.757884708811336,-0.055280085813914075,1.9780993327781828,-1.0636340524020635
2.0735661909764946,17.38534241911439,-0.05435989034995944,1.9433984535054378,-1.026461584533613
2.0633263385980283,17.019312413047643,-0.05342802942336835,1.9095489787761288,-0.9909744362367673
2.0532643112796385,16.659636292051715,-0.05248804761231278,1.8765154527599195,-0.9570591660000802
2.04338135906401,16.30616221165796,-0.05154302834167136,1.844264340858569,-0.9246122422694909
2.0336781844584753,15.958744528771756,-0.05059565171659111,1.8127639000488178,-0.8935390148472098
2.024155014292119,15.617243472600919,-0.049648244771371176,1.7819840596442058,-0.8637528081179648
2.0148116626454806,15.281524837341898,-0.04870282519324091,1.7518963115033885,-0.8351741200505921
2.005647586006984,14.951459694911549,-0.047761139422513435,1.722473608816068,-0.8077299132372924
1.9966619316515688,14.62692412616859,-0.04682469589764585,1.693690272688772,-0.781352986186319
1.9878535801016328,14.307798969209014,-0.045894794101681166,1.6655219058330735,-0.7559814147367556
1.9792211824146428,13.993969583445534,-0.04497254997189794,1.6379453127298544,-0.7315580548659838
1.9707631929426463,13.685325628294116,-0.04405891815437911,1.6109384257061017,-0.7080300993523082
1.9624778981238404,13.381760855392468,-0.043154711517262176,1.5844802364165125,-0.685348681770782
1.9543634417932254,13.083172913367079,-0.04226061827868667,1.5585507322717724,-0.6634685221675495
1.946417847436403,12.789463164248307,-0.04137721705628578,1.5331308373995196,-0.6423476095002593
1.938639037756259,12.500536510707832,-0.0405049901031243,1.508202357763388,-0.6219469165686522
1.9310248518753441,12.216301233360742,-0.03964433495913815,1.4837479301006993,-0.6022301437064755
1.923579349467305,11.936669813764329,-0.038729374599166186,1.4597406972299762,-0.581353513550451
1.916305757014133,11.66155775447918,-0.03783475648685558,1.4361757162979214,-0.5613886950428665
1.9092002312311278,11.390882470296095,-0.03696025175530425,1.4130378014187546,-0.5422854005923392
1.9022589758347899,11.124564198386903,-0.03610559452193775,1.3903124292043187,-0.5239966404589691
1.8954782479814485,10.86252587588729,-0.03527048814481307,1.367985702370545,-0.5064784719953696
1.8888543635932225,10.604693024168927,-0.0344546106786201,1.34604431571747,-0.48968977050203716
1.8823837017139622,10.350993639366969,-0.03365761962938355,1.324475524303161,-0.4735920196187237
1.8760627080202092,10.101358088761671,-0.03287915609433144,1.3032671136473464,-0.458149119393578
1.8698878975968087,9.855719012642794,-0.03211884836251488,1.2824073718144995,-0.44332721036652034
1.8638558570733506,9.614011231312734,-0.03137631504230817,1.261885063238756,-0.4290945121757694
1.8579632462058306,9.376171656909428,-0.030651167773692537,1.241689404164484,-0.4154211753493982
1.8522067989776039,9.142139209753065,-0.02994301357606355,1.2218100395866984,-0.40227914507964896
1.8465833242846523,8.91185473894176,-0.029251456876057798,1.2022370215849392,-0.38964203589854257
1.8410897062622544,8.685260946940677,-0.028576101254445138,1.1829607889527884,-0.3774850162808882
1.8357229043031766,8.462302317927026,-0.027916550946373415,1.1639721480330028,-0.36578470229669685
1.8304799528113875,8.242925049669736,-0.02727241212509142,1.1452622546753273,-0.35451905952059837
1.8253579607299186,8.02707698873773,-0.026643293995634698,1.1268225972405357,-0.3436673124823565
1.8203541108767651,7.814707568844764,-0.02602880972176987,1.1086449805801437,-0.3332098610110118
1.8154656591185607,7.605767752151618,-0.025428577206697833,1.0907215109266422,-0.3231282028864825
1.8106899334080957,7.400209973358354,-0.024842219745564217,1.0730445816340286,-0.3134048622674179
1.8060243327085284,7.197988086430392,-0.024269366565672672,1.0556068597129347,-0.30402332341344207
1.801466325824291,6.9990573138123295,-0.02370965326840532,1.0384012731087826,-0.2949679692642642
1.7970134501561992,6.803374197992852,-0.02316272218519192,1.0214209986751983,-0.2862240244780208
1.7926633103960574,6.610896555292861,-0.022628222658406465,1.0046594507983904,-0.27777750256713096
1.7884135771741145,6.421583431757032,-0.022105811256782095,0.9881102706313998,-0.2696151568023262
1.784266500247559,6.235598091183462,-0.021547630075380034,0.9696301564588008,-0.3042230183036935
1.7802213924236643,6.053113939554887,-0.021032452281405482,0.9512556501577772,-0.3401746090364253
1.7762702018845735,5.874111169589369,-0.02055902707744636,0.9329840336897923,-0.37736697225607085
1.7724051170755266,5.698570480478921,-0.020126076175677455,0.9148126937886026,-0.41569893316716744
1.7686185715637435,5.526473058280928,-0.019732297632567654,0.8967391188218509,-0.4550708741572688
1.7649032482056926,5.357800556871659,-0.01937636929428395,0.878760896012566,-0.49538451248787463
1.7612520826943654,5.192535079393846,-0.019056951877579567,0.8608757090170474,-0.5365426794838907
1.7576582665537224,5.030659160130689,-0.018772691708138032,0.8430813358582765,-0.5784491002490111
1.7541152496435652,4.872155746738557,-0.01852222313562175,0.8253756472167879,-0.6210081729123507
1.7506167422346894,4.717008182769995,-0.018304170642018072,0.807756605083879,-0.6641247463813442
1.7471567167112578,4.565200190417432,-0.018117150657262323,0.7902222617851913,-0.7077038955368444
1.7437294089549336,4.41671585340616,-0.017959773093520467,0.7727707593860998,-0.7516506927578669
1.7403293194633929,4.271539599962544,-0.017830642606906602,0.7554003294940588,-0.7958699746048121
1.7369512142544241,4.129656185780281,-0.017728359592764063,0.7381092934771325,-0.8402661024203983
1.7335901256059087,3.9910506769033205,-0.01765152091792322,0.7208960631224645,-0.8847427155259893
1.7302413526816056,3.8557084324391546,-0.017598720390531397,0.7037591417634821,-0.9292024755964081
1.7269004620928212,3.7236150870101454,-0.017568548965095174,0.6866971259103012,-0.9735468006874693
1.7235632884467988,3.5947565328433697,-0.017559594677244047,0.6697087074241845,-1.0176755872659868
1.72022593493402,3.4691189013910773,-0.01757044229937385,0.6527926762841588,-1.0614869184504692
1.7168847740086322,3.3466885443638787,-0.017599672704711102,0.6359479240021413,-1.1048767565105329
1.7135364482189614,3.227452014047202,-0.01764586192340239,0.6191734477523485,-1.1477386174926285
1.710177871248596,3.111396042758031,-0.017707579869916498,0.6024683552915471,-1.1899632256373716
1.706806229232907,2.9985075212832193,-0.017783388716284,0.5858318707590898,-1.2314381450280554
1.7034189824212205,2.888773476122413,-0.017871840880414075,0.5692633414599161,-1.2720473856595138
1.700013867261262,2.782181045337463,-0.01797147659283465,0.5527622457500876,-1.3116709808405247
1.6965888989900755,2.6787174527856905,-0.018080820998602403,0.5363282021633119,-1.3501845325413182
1.6931423748245558,2.578369980486002,-0.018198380743710642,0.5199609799386566,-1.3874587209715854
1.6896728778551422,2.481125938834033,-0.01832263998695693,0.5036605111347049,-1.423358774326686
1.6861792817583483,2.386972634344538,-0.01845205576876858,0.48742690454418564,-1.4577438942763938
1.6826607564578293,2.2958973345555087,-0.018585052657747365,0.47126046165612673,-1.490466632401638
1.679116774879913,2.207887229677901,-0.018720016583477484,0.4551616949502674,-1.521372212426724
1.6755471209682145,2.122929390516756,-0.018855287750192497,0.43913134885126737,-1.5502977927731514
1.6719518991435045,2.0410107221226355,-0.01898915250991064,0.4231704237184268,-1.577071663715554
1.6683315454198155,1.9621179125558648,-0.019119834055235825,0.4072802033002219,-1.6015123733093293
1.6646868404163535,1.8862373760589008,-0.019245481770681232,0.39146228614151796,-1.6234277763706806
1.6610189245377778,1.8133551898335618,-0.0193641590564296,0.37571862149362767,-1.6426140012521717
1.6573293156335656,1.7434570235092792,-0.019473829408963517,0.3600515503409318,-1.6588543301603358
1.6536199294914882,1.6765280602661825,-0.019572340507638834,0.34446385221799464,-1.6719179905847108
1.649893103572023,1.612552908444158,-0.019657406013048394,0.3289587985401524,-1.681558858457702
1.6461516244515368,1.551515502329277,-0.01972658472891157,0.3135402131954447,-1.687514078539288
1.6423987595148852,1.4933989906687835,-0.019777256709526223,0.29821254112553264,-1.6895026150955992
1.638638293526283,1.4381856113370262,-0.01980659580207633,0.2829809255245416,-1.6872237575010487
1.6348745708164834,1.385856550476955,-0.019811537985287158,0.26785129405514546,-1.6803556228280698
1.6311125439629517,1.3363917844080113,-0.01978874468346823,0.25283045403898374,-1.6685537235721344
1.6273578300212899,1.2897699026735516,-0.019734559965604106,0.2379261957974475,-1.651449707471412
1.62361677561228,1.2459679108822606,-0.0196449601292385,0.22314740200560332,-1.6286504339025278
1.6198965325147627,1.2049610126073098,-0.01951549352883591,0.20850415878336315,-1.5997376362981979
1.6162051459182056,1.1667223707425336,-0.019341207487554912,0.19400786084587415,-1.5642685450630687
1.612551658246649,1.13122285067789,-0.019116557476197178,0.17967129772930404,-1.521778028495838
1.6089462326390018,1.098430750893936,-0.01883529102535407,0.1655086999965141,-1.4717830749466185
1.6054003020297554,1.0683115317335847,-0.018490294335136118,0.1515357122177254,-1.413790819872517
1.6019267527729144,1.0408275610794817,-0.018073382052662075,0.13776924203599963,-1.3473118532514294
1.5985401566492263,1.015937907571299,-0.017574998196685093,0.1242271106817248,-1.2718812552207581
1.5952570731523243,0.9935982290064871,-0.016983775454916635,0.11092740052682476,-1.187090687532875
1.592096457227254,0.9737608262261155,-0.01628586586161258,0.0978873655823587,-1.0926357724248268
1.5890802294632485,0.9563749592581345,-0.01546390007528695,0.08512176039638254,-0.9883834535218381
1.5862341014406045,0.9413875445493183,-0.01449534226833326,0.07264049969643695,-0.8744628985555338
1.5835888073035247,0.9287443472133958,-0.013349859174614936,0.060445788050123773,-0.7513783750951144
1.581181990782898,0.9183917003838289,-0.011985051568823884,0.04852944173478434,-0.6201294735276397
1.5790611805609283,0.9102785308567292,-0.010339266557172638,0.036872342761007496,-0.4822992073519139
1.5772887233667734,0.9043578831444137,-0.00831817759182681,0.02545026473706881,-0.34003676820192974
1.5759509996035967,0.9005858091085486,-0.005763125178452206,0.014255777745705613,-0.1958392607328717
1.575181655875647,0.8989108328925006,-0.0023352298525968034,0.003375550844289626,-0.05206738248103443
