x,y,v_x,v_y,omega
2.375,32.48,0.0,4.0,-6.653061224489796
2.3731681615857245,31.730553707019258,-0.019282509623952074,3.8889083471656583,-6.136270644881356
2.3679963911334077,31.001679196011025,-0.03515717934780409,3.7834549266052426,-5.680319892818702
2.360076866588657,30.292348523833393,-0.04820623691272902,3.683183727896136,-5.276027448973955
2.3499013873732006,29.60161545409523,-0.05890407061839244,3.5876906904002794,-4.915842202770718
2.337879775776118,28.928606345779865,-0.06763920935089628,3.496615712919392,-4.593514540426819
2.3243545708609945,28.272512409521575,-0.07473136870303446,3.4096362476941677,-4.30384147694759
2.3096128365869424,27.63258306685925,-0.08044478155014678,3.326462096119782,-4.042467428760141
2.293895705749932,27.008120210359234,-0.08499870094470334,3.24683113019619,-3.8057272368149944
2.277406134720821,26.398473207935318,-0.08857573094067141,3.1705057374239853,-3.5905215755274997
2.2603152351478095,25.803034528213587,-0.09132847509103047,3.0972698385942254,-3.3942173988578577
2.2427674671540467,25.22123588889116,-0.09338487221173528,3.0269263647997113,-3.2145678938916054
2.224884916710608,24.652544849101815,-0.0948525008770896,2.9592951066670845,-3.049647743034421
2.2067708325959523,24.096461781473447,-0.09582206875086956,2.894210868368383,-2.897800479835584
2.18851256194393,23.552517170995422,-0.09637025390199527,2.8315218735055607,-2.7575954579452233
2.1701839951385806,23.020269196826888,-0.09656202825957916,2.7710883809000655,-2.627792505856219
2.1518476087615537,22.499301560359505,-0.09645256518280694,2.712781476651357,-2.50731276003247
2.133556177976738,21.989221528629137,-0.09608881149946415,2.6564820152472555,-2.3952144902386014
2.115354216056006,21.489658166867386,-0.09551078766613619,2.602079687508008,-2.2906729782812856
2.097279187888955,21.00026073783164,-0.0947526667238749,2.549472197078823,-2.19296370314535
2.079362535655219,20.52069724872976,-0.0938436725786088,2.4985645303093564,-2.1014482350639208
2.061630547894622,20.05065312919848,-0.09280883016451502,2.4492683068619794,-2.0155623583579767
2.044105097622352,19.5898300260073,-0.0916695937541167,2.401501200413627,-1.9348060353690524
2.0268042706206284,19.137944702023972,-0.09044437468508097,2.355186420463511,-1.85873489710642
2.0097429013750903,18.694728028556945,-0.08914898579426737,2.3102522476104705,-1.7869530045988595
1.9929330311414442,18.259924061534864,-0.08779701666516623,2.266631615779842,-1.7191066716349095
1.9763843001907884,17.833289193134092,-0.08640015123647443,2.2242617358072105,-1.6548791770930007
1.9601042842839753,17.41459137145405,-0.08496843725629334,2.183083755561669,-1.593986225333632
1.9440987837819668,17.00360938169364,-0.0835105153964275,2.1430424524426694,-1.536172037647392
1.9283720724432456,16.60013218302128,-0.08203381448485023,2.104085954634771,-1.481205977693552
1.912927111837328,16.203958295973692,-0.08054471820901613,2.066165487971451,-1.4288796301398092
1.8977657363722675,15.814895235778991,-0.07904870773899073,2.0292351456569806,-1.3790042650455059
1.8828888131591293,15.432758987490178,-0.07755048397825556,1.9932516784357988,-1.3314086314883358
1.8682963802898502,15.057373519245115,-0.07605407254046816,1.9581743030911836,-1.2859370329707966
1.8539877665639815,14.688570330347783,-0.07456291404762536,1.9239645274070225,-1.242447644618224
1.8399616952461875,14.326188031199397,-0.07307994192915218,1.8905859899444157,-1.2008110383838757
1.826216374055053,13.970071952403156,-0.07160764955647489,1.8580043131738904,-1.1609088876400608
1.812749573262413,13.620073780628132,-0.07014814826078736,1.8261869686684828,-1.1226328268446037
1.7995586935110917,13.276051219050014,-0.06870321754259615,1.79510315320644,-1.085883445580127
1.7866408247292733,12.937867670393409,-0.06727434858180717,1.764723674757815,-1.050569399292351
1.773992797324976,12.605391940784685,-0.06586278198974337,1.7350208474392987,-1.0166066216026548
1.7616112266785735,12.278497962789206,-0.06446954060396921,1.7059683946183821,-0.9839176252210172
1.7494925518103819,11.95706453615431,-0.06309545800857337,1.6775413594331685,-0.9524308803049306
1.7376330689800943,11.640975084911567,-0.06174120336287592,1.6497160220694023,-0.9220802606527324
1.7260289608720776,11.330117429610702,-0.06040730303729933,1.6224698232028445,-0.8928045494312282
1.71467632193257,11.02438357356439,-0.05909415948383241,1.5957812930741226,-0.8645469972547583
1.7035711803493436,10.723669502079368,-0.05780206770802347,1.569629985715573,-0.8372549263868736
1.6927095170995692,10.42787499373625,-0.05653122965802566,1.5439964178962096,-0.8108793756521966
1.682087282435825,10.136903442858824,-0.0552817668024389,1.5188620123924785,-0.7853747813461724
1.671700410132115,9.85066169238473,-0.05405373113134958,1.4942090452295451,-0.7606986900321041
1.6615539829338082,9.569061546730005,-0.05275076569293259,1.4700030142938687,-0.7342247207101463
1.6516520343539889,9.292017850251224,-0.0514802719893762,1.4462464223248748,-0.7089122594155255
1.6419884580904371,9.019446684034591,-0.050241583416432985,1.4229237483765094,-0.6846969684025688
1.6325572766143348,8.75126701332675,-0.04903401106885246,1.4000201538113073,-0.661518748912485
1.6233526448280378,8.487400561486371,-0.04785684983954033,1.3775214445084858,-0.6393214173025388
1.6143688526459121,8.227771690879823,-0.04670938365651743,1.355414035560429,-0.6180524092304591
1.605600326651469,7.972307290266201,-0.04559088996920183,1.3336849182671884,-0.5976625091826528
1.597041630964195,7.720936668251575,-0.044500643581047244,1.31232162925519,-0.578105602923448
1.5886874674322582,7.47359145242401,-0.04343791991302572,1.2913122215612864,-0.5593384506977394
1.5805326752522215,7.230205493809692,-0.04240199777157116,1.270645237536798,-0.5413204792452571
1.5725722301038312,6.9907147763170485,-0.04139216168516831,1.250309683438409,-0.5240135908848697
1.5648012428765101,6.755057330859934,-0.040407703865582234,1.230295005583853,-0.5073819881050105
1.5572149580542323,6.523173153873234,-0.03944792584260433,1.2105910679603562,-0.49139201225422885
1.54980875181676,6.2950041299546236,-0.038512139814998035,1.191188131182928,-0.47601199506638225
1.5425781299076164,6.070493958384997,-0.03759966975493515,1.1720768327078628,-0.4612121218801859
1.5355187253125386,5.849588083297387,-0.036709852298514305,1.1532481682143576,-0.44696430552452115
1.5286262957863486,5.632233627279991,-0.03584203745085504,1.1346934740740127,-0.4332420699406539
1.5218967212611023,5.418379328213707,-0.03499558913068413,1.1164044108342408,-0.42002044270171063
1.5153260011639476,5.207975479157959,-0.034169885576206635,1.0983729476473225,-0.40727585566960833
1.5089102516692323,5.000973871111167,-0.03336431963132405,1.0805913475820605,-0.39498605310119766
1.5026457029060134,4.797327738483695,-0.03257829892887396,1.0630521537597595,-0.38313000657958485
1.49652869613915,4.596991707131757,-0.031811245985476314,1.0457481762606236,-0.3716878362042682
1.4905556809395595,4.399921744810683,-0.03106259822074209,1.028672479750664,-0.36064073752557674
1.4847232123569492,4.2060751139149986,-0.030331807911997685,1.0118183717828748,-0.3499709137555703
1.4790279481063533,4.015410326381293,-0.029618342094273907,0.995179391729807,-0.3396615128296099
1.47347298467624,3.828087652645376,-0.02885495717007514,0.9766382265430114,-0.37186519905112203
1.4680584742889944,3.644277572629065,-0.02813988901145917,0.9582047209971151,-0.4055017504605787
1.4627753735145206,3.463959896534952,-0.027471698088263656,0.9398760799935328,-0.44046471727745734
1.4576149145032071,3.2871149552712424,-0.026848923083457255,0.9216496175191988,-0.47664963864177
1.4525686087767826,3.113723580050628,-0.026270084563114984,0.903522753224124,-0.5139538082293273
1.4476282503584448,2.943767082603607,-0.02573368826149463,0.885493009376086,-0.5522760432272702
1.442785918312973,2.7772272359351042,-0.025238228006628054,0.8675580081870841,-0.5915164556751595
1.4380339787629857,2.614086255553982,-0.024782188309029198,0.8497154695089254,-0.6315762251695658
1.4333650864434537,2.454326781105312,-0.024364046633412215,0.8319632088981411,-0.6723573719148723
1.4287721858530644,2.297931858334916,-0.023982275370684283,0.8142991360534015,-0.7137625290795582
1.4242485120579835,2.1448849213148264,-0.02363534352490388,0.796721253631751,-0.7556947133851234
1.4197875912010194,1.9951697748567412,-0.023321718127352,0.779227656453359,-0.7980570928135413
1.4153832407671252,1.8487705770383975,-0.023039865387325158,0.7618165311081423,-0.8407527502680284
1.411029569654593,1.70567182176487,-0.022788251586698432,0.7444861559816037,-0.88368444196029
1.4067209781002004,1.5658583212830628,-0.022565343722695627,0.7272349017216382,-0.926754349224371
1.4024521575059863,1.429315188563077,-0.022369609900611764,0.7100612321729363,-0.9698638223718723
1.3982180902152623,1.296027819454597,-0.022199519475427802,0.6929637058110725,-1.0129131151044968
1.394014049285958,1.1659818745196695,-0.02205354293830293,0.6759409777144914,-1.055801107886512
1.3898355983104445,1.039163260435437,-0.021930151540787302,0.6589918021195256,-1.0984250185504512
1.3856785913326783,0.9155581108509985,-0.021827816646224227,0.642115035611421,-1.1406800982629028
1.3815391729158422,0.795152766571654,-0.02174500879415795,0.6253096410132729,-1.1824593108121433
1.377413778416737,0.6779337549311215,-0.021680196459577764,0.6085746920449605,-1.22365299299429
1.3732991345270544,0.5638877681974463,-0.021631844484451313,0.591909378835824,-1.2641484936683196
1.3691922601463862,0.45300164084116545,-0.021598412154162142,0.5753130143881844,-1.3038297888216843
1.365090467657562,0.34526232547439406,-0.02157835088609226,0.5587850421041375,-1.342577069736789
1.3609913646816818,0.2406568672464644,-0.021570101491593028,0.5423250445056582,-1.3802663010744087
1.356892856398223,0.13917237645509317,-0.021572090965867576,0.5259327532982759,-1.4167687453945572
1.352793148524956,0.040795999101334246,-0.021582728752731286,0.5096080609517889,-1.451950450321439
1.3486907510632908,-0.05448511491890429,-0.021600402422690932,0.49335103399808605,-1.485671694232722
1.3445844829272875,-0.14668384633499443,-0.0216234726931332,0.477161928276543,-1.5177863860241267
1.3404734775891365,-0.23581314412851384,-0.021650267708455302,0.46104120639206314,-1.5481414141837935
1.3363571898907125,-0.3218860667163099,-0.021679076485482125,0.4449895576899875,-1.5765759401309407
1.3322354041901456,-0.4049158272009805,-0.021708141415222065,0.42900792109602265,-1.6029206305661838
1.3281082440346204,-0.4849158432708123,-0.0217356496955708,0.41309751121801047,-1.626996823500394
1.323976183576241,-0.5618997924116584,-0.021759723550527667,0.397259848159345,-1.648615622754686
1.3198400609773633,-0.6358816731840449,-0.021778409069236157,0.3814967915499781,-1.6675769161726406
1.3157010940859595,-0.7068758734202945,-0.02178966347185589,0.365810579357943,-1.6836683137275321
1.3115608987012508,-0.7748972463086119,-0.021791340577708915,0.3502038720980321,-1.6966640033904348
1.3074215097961777,-0.8399611954522044,-0.0217811742125349,0.3346798030976841,-1.7063235254111548
1.30328540611787,-0.9020837701191553,-0.021756759243334554,0.3192420355017677,-1.7123904700795107
1.2991555386523883,-0.9612817720263678,-0.021715529866998522,0.3038948266793873,-1.7145911108467788
1.2950353635188916,-1.0175728751186668,-0.02165473469612479,0.28864310060799137,-1.7126329950152777
1.2909288799559575,-1.0709757598941465,-0.021571408071602412,0.27349252860757295,-1.7062035296820877
1.286840674186536,-1.1215102638608556,-0.021462336869678356,0.25844961841039266,-1.6949686236380064
1.2827759701097263,-1.1691975496426537,-0.021324021833580172,0.24352181087169175,-1.6785714799616096
1.2787406879859688,-1.214060292012043,-0.021152632100709404,0.22871758249026722,-1.6566316841933766
1.2747415125875592,-1.2561228846050199,-0.0209439510404456,0.21404655006736764,-1.6287448066018728
1.2707859727279947,-1.295411666098886,-0.020693310639180593,0.19951957092071423,-1.5944828447711115
1.2668825347426684,-1.3319551639538503,-0.0203955102589893,0.18514882755258907,-1.5533959895576648
1.2630407135041084,-1.3657843510567318,-0.02004471330480132,0.17094787879354403,-1.505016424026777
1.2592712061401143,-1.396932906216648,-0.01963431157934783,0.15693164920557628,-1.4488651881766292
1.2555860561527692,-1.4254374626970616,-0.019156740919021174,0.14311631374611156,-1.384463593532292
1.2519988597229508,-1.4513378188645305,-0.01860322150012031,0.12951901433253585,-1.311351278573052
1.248525032635488,-1.4746770705437342,-0.01796337942053966,0.11615731913273093,-1.2291137570285997
1.2451821671090542,-1.4955016051191166,-0.017224678752446838,0.10304830797653634,-1.1374231333652653
1.2419905254721197,-1.5138608737707742,-0.016371549004757693,0.09020715151462905,-1.0360962194334247
1.2389737462018355,-1.5298068359413648,-0.015384022261392268,0.07764508185999056,-0.9251737550796878
1.2361598839160313,-1.5433929650195921,-0.014235580747074695,0.06536680317399308,-0.80502104600174
1.233582980320711,-1.5546727524878818,-0.01288972025629627,0.05336780175534044,-0.6764409995577139
1.2312854961702728,-1.563697819517067,-0.011294323432525635,0.04163290381501474,-0.5407715731466267
1.229322219173627,-1.570516160058304,-0.009371750216376967,0.03013910188223854,-0.39991094414694295
1.2277670929516005,-1.5751719349168525,-0.006997999489165917,0.01886905452353436,-0.2561875573258235
1.2267278914159243,-1.5777106630308566,-0.0039409640442665955,0.007854399308055524,-0.1119971236220691
