x,y,v_x,v_y,omega
2.375,32.48,0.0,2.3076923076923075,-3.1020408163265305
2.374426579691189,32.0002401460481,-0.005461145798202313,2.2614491585162466,-2.9410799725467793
2.3727769735097373,31.530035376040033,-0.010249389263240143,2.2166915082272425,-2.7923048152635124
2.3701843127030977,31.06908201142515,-0.014442618419041386,2.1733405357240447,-2.654497855478059
2.3667663986127083,30.617092322337115,-0.018108944346572883,2.1313231698762762,-2.526586805636577
2.3626276135747597,30.17379337862695,-0.02130805601484375,2.090571532125284,-2.4076247598642033
2.3578605690540377,29.738926010641546,-0.02409236799202941,2.051022448688103,-2.296773407566188
2.3525475308475086,29.312243866263568,-0.02650799587967856,2.0126170215783357,-2.1932887661392746
2.346761654553242,28.89351255278556,-0.028595587875238464,1.9753002496408125,-2.096509014359985
2.340568059074177,28.48250885387494,-0.030391035734909574,1.9390206923650828,-2.005844084325638
2.3340247614714777,28.079020013274963,-0.03192608429079449,1.9037301704918386,-1.9207667309414116
2.3271834928087642,27.68284307803837,-0.03322885535409689,1.8693834984280762,-1.8408048471585625
2.32009041158667,27.29378429505239,-0.03432429914203738,1.8359382442955616,-1.765534832992405
2.3127867288388093,26.911658555421447,-0.035234584170922505,1.8033545140943752,-1.6945758587257893
2.3053092568509506,26.536288881956462,-0.03597943476106516,1.771594757000694,-1.627584889142937
2.2976908916996712,26.167505955599083,-0.03657642382254847,1.7406235892600543,-1.564252357318172
2.2899610383241993,25.805147677103953,-0.03704122737242106,1.710407634503105,-1.5042983943308164
2.282145985596475,25.44905876072653,-0.03738784622495478,1.680915378615206,-1.4474695360234886
2.2742692377997424,25.099090357029624,-0.03762879945821055,1.6521170375458014,-1.3935358401479243
2.2663518080326996,24.755099702238276,-0.03777529356124675,1.6239844366575413,-1.3422883574145699
2.2584124782976716,24.416949791847657,-0.03783737058187523,1.5964909003959784,-1.2935369084519206
2.2504680303855764,24.08450907642859,-0.037824038104746195,1.569611151214193,-1.24710812578879
2.2425334511194546,23.75765117778525,-0.037743383477366575,1.5433212168176054,-1.2028437259399312
2.234622115047149,23.43625462380423,-0.037602674354114046,1.5175983449063408,-1.1605989816995608
2.2267459472698423,23.120202600496732,-0.0374084473345235,1.4924209246889022,-1.120241368988817
2.2189272171974768,22.80938464479657,-0.03705564859276602,1.467750081979312,-1.0786725477525325
2.2111856263312095,22.503694395686146,-0.03667378822882469,1.4435856238342222,-1.0390814563425674
2.20352686416356,22.203027471504075,-0.03626680384402992,1.4199088921855225,-1.0013499518807734
2.195955836529718,21.907283315652386,-0.03583822124017888,1.3967021159258084,-0.9653682860309286
2.1884767475823783,21.61636501590804,-0.03539119730591242,1.3739483578298612,-0.9310344142501543
2.181093173253329,21.330179134481497,-0.0349285582088425,1.3516314652801056,-0.8982533694494917
2.173808127130089,21.048635548057028,-0.0344528334410666,1.3297360244767185,-0.8669366933633159
2.1666241195680493,20.77164729711336,-0.033966286197405444,1.308247317843904,-0.8370019196954991
2.1595432107641392,20.499130443880766,-0.03347094050649997,1.2871512843713,-0.8083721037823106
2.152567058435188,20.231003938343115,-0.03296860548351118,1.266434482653969,-0.7809753941009843
2.1456969606714287,19.967189491740733,-0.032460897028483544,1.2460840564163123,-0.7547446414698461
2.1389338944716076,19.707611457072915,-0.031949257255526525,1.2260877023248256,-0.7296170422404055
2.1322785504098527,19.452196716138026,-0.031434971904043575,1.2064336399121898,-0.7055338121820386
2.1257313638347983,19.200874572684896,-0.030919185953615105,1.1871105834509494,-0.6824398881128637
2.1192925429576537,18.953576651281477,-0.03040291763824049,1.1681077156292292,-0.6602836546421604
2.1129620941471767,18.710236801536567,-0.029887071032966943,1.1494146628937136,-0.6390166936654363
2.1067398447152796,18.47079100733738,-0.02937244736605323,1.1310214723366463,-0.6185935544974932
2.1006254634466455,18.23517730079056,-0.02885975519236673,1.1129185900140208,-0.5989715427454924
2.0946184790988673,18.003335680576974,-0.02834961954837763,1.0950968405915553,-0.5801105262164389
2.0887182970757476,17.775208034451385,-0.027842590195621606,1.0775474082235779,-0.5619727563246316
2.0829242144552076,17.55073806563725,-0.027339149047617393,1.0602618185776906,-0.5445227036170155
2.077235433534409,17.329871222884456,-0.026839716864744394,1.043231921925105,-0.5277269061702385
2.0716510740379164,17.112554633973915,-0.026344659292332453,1.0264498772229331,-0.5115538297345068
2.0661701841197724,16.89873704246785,-0.025854292309037925,1.009908137120534,-0.495973738607733
2.0607917502770623,16.688368747518325,-0.025368887145345104,0.9935994338273098,-0.48095857632047445
2.0555183049727113,16.481543831788226,-0.02485440146752134,0.9761616683641343,-0.493496155334654
2.0503501349729722,16.278368494090948,-0.024366265196658507,0.958841547800432,-0.5080662135720735
2.045281695698274,16.078818376822205,-0.02390458503856651,0.9416357595209371,-0.5245531104206401
2.0403074318188725,15.882869804258409,-0.023469356670019047,0.9245411220390436,-0.5428443988080774
2.0354217995855914,15.690499755599138,-0.023060474123132994,0.9075545794778284,-0.5628305768925278
2.030619287267214,15.501685839123429,-0.022677738432841755,0.8906731964813018,-0.5844048477776939
2.0258944338437734,15.316406267371477,-0.02232086559992438,0.873894153537272,-0.6074628863005799
2.02124184609442,15.134639833267013,-0.021989493917728895,0.8572147426957233,-0.6319026119669272
2.0166562142088553,14.956365887098709,-0.021683190706694454,0.8406323636690642,-0.6576239671302119
2.0121323260424675,14.781564314281642,-0.02140145849700102,0.82414452030301,-0.6845286995246478
2.007665080127189,14.610215513821853,-0.021143740696127334,0.8077488174092792,-0.7125201482710241
2.003249497542747,14.442300377408738,-0.02090942677475005,0.7914429579537035,-0.7415030324763451
1.9988807327462677,14.27780026906104,-0.020697857001242412,0.7752247405958205,-0.771383241544008
1.9945540834521767,14.116697005252728,-0.02050832675200409,0.7590920575785614,-0.802067626300468
1.9902649996489117,13.958972835445202,-0.020340090421949827,0.7430428929692983,-0.8334637900267436
1.9860090918341555,13.804610422951512,-0.02019236495667886,0.7270753212563055,-0.8654798784583798
1.9817821385460672,13.653592826057295,-0.020064333025115295,0.7111875063076653,-0.8980243677852288
1.9775800932643137,13.50590347932119,-0.01995514584872703,0.6953777007028455,-0.9310058496421373
1.9733990907516163,13.361526174975072,-0.01986392570077222,0.679644245450649,-0.964332812032821
1.9692354529039673,13.220445044341094,-0.019789768086361965,0.6639855701110341,-0.9979134150712143
1.9650856941756982,13.082644539178474,-0.01973174361143814,0.6484001933424984,-1.031655260356725
1.9609465266441655,12.948109412867868,-0.019688899546017814,0.632886723901372,-1.065465152721308
1.9568148647779906,12.816824701335147,-0.01966026108421948,0.6174438621245618,-1.099248852996278
1.9526878299725814,12.688775703609089,-0.01964483230062815,0.6020704019331291,-1.132910820344409
1.9485627549170743,12.563947961899043,-0.019641596799440296,0.5867652334006577,-1.1663539425872007
1.9444371878579338,12.442327241068504,-0.019649518049515906,0.5715273459378172,-1.1994792528273515
1.9403088968262692,12.32389950736897,-0.019667539394909853,0.5563558321529781,-1.232185630521588
1.9361758738985095,12.208650906284781,-0.019694583726609934,0.541249892458348,-1.2643694849984404
1.9320363395635285,12.096567739323937,-0.01972955279701971,0.5262088405020594,-1.295924419238868
1.9278887472736579,11.987636439571713,-0.019771326154129864,0.511232109519145,-1.3267408715449345
1.9237317882624125,11.881843545802798,-0.019818759667252946,0.4963192597086094,-1.356705732513777
1.9195643967182408,11.779175674923582,-0.01987068361057434,0.481469986760104,-1.385701934512775
1.9153857554113571,11.679619492488182,-0.019925900264506604,0.4666841316722876,-1.4136080106206317
1.911195301879863,11.58316168099985,-0.019983180987820075,0.4519616920260938,-1.4402976197638822
1.90699273529205,11.4897889056726,-0.020041262705636664,0.4373028349000966,-1.465639034548484
1.902778024114264,11.399487777285657,-0.020098843749468798,0.422707911642217,-1.4894945880759123
1.8985514147281544,11.312244811715281,-0.020154578975383575,0.4081774747423232,-1.5117200758639961
1.8943134411578797,11.22804638567353,-0.02020707407485111,0.39371229708389893,-1.5321641088962152
1.8900649360871609,11.146878688121301,-0.0202548789796134,0.3793133938897136,-1.5506674138455454
1.8858070433684069,11.068727666752725,-0.020296480246614852,0.3649820477157718,-1.5670620767272452
1.8815412322519398,10.993578968869269,-0.02033029229116623,0.35071983688859015,-1.581170726726103
1.8772693135932534,10.92141787587477,-0.02035464731537177,0.33652866782091734,-1.5928056578571879
1.872993458331029,10.852229230527513,-0.020367783753432147,0.322410811676768,-1.6017678876558685
1.8687162185693702,10.785997355983827,-0.020367833024270636,0.3083689458821435,-1.6078461545416
1.8644405516458278,10.722705965562923,-0.02035280434279897,0.2944062009836134,-1.6108158592761606
1.8601698476243163,10.662338062060183,-0.020320567290644756,0.2805262133282047,-1.6104379616387547
1.8559079607218971,10.604875825345779,-0.02026883178001339,0.26673318395184764,-1.606457851929514
1.8516592452650138,10.550300486922932,-0.02019512495220977,0.25303194388479455,-1.5986042294321987
1.8474285968807318,10.498592190110497,-0.020096764421902762,0.2394280257574636,-1.5865880383090254
1.8432214997721812,10.449729834596937,-0.019970827088104878,0.22592774103832608,-1.5701015381495151
1.8390440811208413,10.403690904347652,-0.01981411244846485,0.21253826133582557,-1.5488176252667227
1.8349031739273087,10.360451278326579,-0.01962309891851249,0.19926770076964054,-1.5223895771435618
1.8308063899879774,10.31998502435468,-0.019393890979878856,0.18612519420083534,-1.4904514737103478
1.8267622052745092,10.282264177876886,-0.019122153910295547,0.173120962730526,-1.4526196658737798
1.8227800608446816,10.247258509744753,-0.018803031135682182,0.16026635281360138,-1.4084958281060527
1.8188704837444967,10.214935290768736,-0.01843103648512509,0.1475738279103758,-1.3576723661200285
1.8150452344515875,10.185259066330328,-0.017999909161627792,0.13505688102684887,-1.2997412735875806
1.811317490729924,10.158191462502558,-0.017502411997071487,0.12272982209477336,-1.2343079615410333
1.807702083077058,10.133691056704524,-0.01693004183974868,0.11060737598172404,-1.1610121199644003
1.8042158054654402,10.111713361453365,-0.01627260208042121,0.09870400736265937,-1.0795582558302796
1.8008778387275797,10.092210988720964,-0.015517557327775057,0.08703287580306135,-0.9897589885558121
1.7977103456955317,10.075134081194122,-0.01464904297744397,0.07560433873829542,-0.8915939753291082
1.7947393317663427,10.060431104979738,-0.013646327776737148,0.06442400616060827,-0.785285427774607
1.7919959199659976,10.048050072100846,-0.012481403655121839,0.05349059268597494,-0.6713856852621798
1.7895182832382055,10.037940153737683,-0.011115136609563474,0.04279434410606257,-0.5508607392070524
1.787354660216895,10.030053376395916,-0.009490796926727893,0.03231782105361042,-0.42513482830048
1.7855683477084567,10.024345522935487,-0.0075217031536355524,0.022042688093332027,-0.296040482092062
1.7842471950979812,10.020774056377864,-0.005060702660416798,0.011971279122147887,-0.1656118111369336
1.7835288042819712,10.019285650159734,-0.0017811146349151364,0.0022040181933701674,-0.03569964444444032
