x,y,v_x,v_y,omega
2.375,32.48,0.0,2.1538461538461537,-2.612244897959184
2.3746007521026073,32.05327561548264,-0.0039924789739271245,2.1133976913274304,-2.4892116524470547
2.373448494227478,31.634525785613622,-0.007530099777368022,2.074100607362724,-2.374481095750816
2.371629405020083,31.22352573802105,-0.010660792296583479,2.0358998685630136,-2.2673064903241213
2.369220623720702,30.82006134977977,-0.013427020697223253,1.9987440138497719,-2.1670216602654286
2.3662912745128475,30.423928463459468,-0.01586647138132106,1.9625848493532543,-2.0730310296122103
2.362903362823884,30.034932260861982,-0.01801264550831375,1.9273771766215937,-1.9848010421080142
2.359112561210974,29.65288668823741,-0.019895370620787736,1.8930785496241724,-1.901852750364383
2.3549688997999776,29.2776139275985,-0.0215412434891772,1.8596490567648836,-1.8237553980795738
2.350517374020476,28.90894390945035,-0.022974014305837342,1.8270511247166157,-1.750120848142829
2.345798480516928,28.546713862841102,-0.024214920729643832,1.7952493413758837,-1.680598733359896
2.3408486905501142,28.190767899139725,-0.025282978938490384,1.7642102956378678,-1.614872226211976
2.3357008688828302,27.840956626373508,-0.026195237734352502,1.7339024320243108,-1.5526543403180055
2.3303846450273147,27.497136791323765,-0.026967000820802146,1.7042959184731263,-1.4936846897526086
2.3249267427850766,27.15917094689348,-0.02761202160157985,1.6753625258297444,-1.437726643592022
2.319351273204572,26.82692714253305,-0.028142674203466347,1.6470755177745262,-1.3845648224284275
2.3136799953957237,26.50027863574713,-0.02857010388501592,1.6194095500846644,-1.3340028914397564
2.3079325490535494,26.179103622911846,-0.028904359536726716,1.5923405782682034,-1.2858616111940793
2.3021266620405463,25.86328498781238,-0.029154510593303987,1.5658457727264303,-1.239977112921695
2.2962783359459276,25.552710066469498,-0.02932875035288369,1.5399034407023957,-1.1961993696803248
2.2904020121684745,25.247270426963205,-0.029434487421645818,1.5144929543605274,-1.1543908388135917
2.2845107207495983,24.9468616630854,-0.02947842676711762,1.4895946844175192,-1.1144252544784734
2.2786218744756233,24.65138462971824,-0.029410035972632663,1.4651756492540957,-1.0743133670581533
2.2727507102505196,24.360743766792904,-0.029301606278402715,1.44123297999927,-1.0360423222093917
2.2669048063540966,24.07484550208348,-0.02915743268582527,1.4177496670949583,-0.9995057946058061
2.2610909230483274,23.793599587341376,-0.02898140037186865,1.3947094803260622,-0.9646047612593687
2.2553150805277005,23.516918946934815,-0.028777024834400776,1.3720969237395393,-0.9312469203979983
2.249582629258743,23.244719535192132,-0.028547487855171208,1.3498971936873287,-0.8993461627700956
2.2438983134984563,22.97692020184948,-0.028295669747701317,1.328096139739175,-0.8688220900962673
2.238266328693555,22.713442565052045,-0.028024178301311455,1.3066802282351782,-0.8395995759749207
2.232690373385055,22.454210891401612,-0.027735374783686043,1.2856365082691543,-0.8116083650636696
2.2271736961745106,22.199151982583405,-0.02743139732175847,1.26495257991291,-0.7847827068119511
2.22171913824799,21.948195068141256,-0.02711418194344442,1.244616564508584,-0.7590610204199484
2.2163291719006315,21.701271704003247,-0.026785481530142808,1.22461707687153,-0.7343855880517549
2.211005935457483,21.458315676390093,-0.026446882901340108,1.2049431992599826,-0.7107022736426581
2.2057512649445927,21.219262910766076,-0.026099822227565923,1.185584456980158,-0.6879602649166042
2.2005667228272463,20.984051385517397,-0.025745598945899013,1.1665307955066397,-0.6661118364747721
2.195453624099374,20.752621050065933,-0.025385388332821272,1.1477725590080095,-0.6451121320335804
2.1904130599788796,20.52491374714745,-0.025020252872123176,1.1293004701768323,-0.6249189640837224
2.185445919437619,20.300873139002626,-0.024651152540485805,1.1111056112714026,-0.605492629413864
2.1805529087715656,20.08044463724707,-0.024278954120048157,1.093179406284165,-0.586795739095982
2.175734569396011,19.863575336202796,-0.02390443963549502,1.0755136041585671,-0.5687930616661616
2.170991294032184,19.65021394948871,-0.023528314002779608,1.0581002629822969,-0.5514513783569406
2.1663233414351697,19.44031074968143,-0.02315121196736124,1.0409317350905243,-0.5347393493466626
2.1617308497982686,19.233817510870587,-0.02277370440164759,1.0240006530179102,-0.5186273900892558
2.1572138489556982,19.03068745394451,-0.022396304024057907,1.0072999162428518,-0.5030875568756822
2.1527722714937263,18.83087519445305,-0.022019470595659174,0.9908226786717269,-0.48809344085713047
2.148408221442207,18.63451671862596,-0.021621029919532804,0.9727620795991739,-0.5092477470464425
2.14412112335573,18.441759002592836,-0.021249950945241562,0.9548150807320904,-0.5321497465083646
2.1399055263783966,18.252579634499988,-0.02090601882808978,0.9369786001964081,-0.5566877862358188
2.1357560315175,18.066956806760174,-0.020588929780879228,0.9192496772016893,-0.5827527519729282
2.1316673086620805,17.88486929227956,-0.020298298773313173,0.9016254676044549,-0.6102378299407685
2.12763411212422,17.706296421531945,-0.0200336666052902,0.8841032398717399,-0.639038273799659
2.1236512948240214,17.531218060401407,-0.019794506396697293,0.8666803714336052,-0.669051175907802
2.1197138212311,17.35961458871646,-0.019580229532516046,0.8493543454158963,-0.7001752419423007
2.1158167791680014,17.19146687940016,-0.01939019109847048,0.8321227477471158,-0.7323105679480871
2.1119553905742503,17.026756278161855,-0.019223694839040937,0.8149832646359195,-0.7653584188728945
2.1081250213237044,16.865464583656415,-0.01907999766641787,0.7979336804184746,-0.7992210076318911
2.1043211901824783,16.707574028036788,-0.018958313745844745,0.7809718757777729,-0.8338012737236219
2.1005395769899162,16.553067257825013,-0.018857818179774093,0.764095826340014,-0.8690026603890979
2.096776030140908,16.40192731502537,-0.018777650310307682,0.7473036016563954,-0.9047288892677454
2.093026573444229,16.25413761840152,-0.018716916656483756,0.7305933645821365,-0.940883731456919
2.0892874124285723,16.10968194483647,-0.01867469350008324,0.7139633710683528,-0.9773707738251416
2.0855549401654914,15.968544410690978,-0.01865002913072359,0.6974119703865674,-1.0140931793624184
2.081825742676613,15.830709453071297,-0.01864194575806294,0.6809376058102563,-1.0509534402730392
2.078096603991215,15.696161810911974,-0.018649441095915945,0.6645388157829623,-1.0878531224263286
2.0743645109196285,15.56488650577285,-0.01867148961995115,0.6482142356082641,-1.1246925996778012
2.0706266576078973,15.436868822241689,-0.018707043497360062,0.6319625997033652,-1.1613707764560737
2.0668804499398195,15.312094287824813,-0.018755033183419013,0.6157827444653897,-1.197784796878567
2.0631235098538614,15.190548652197496,-0.018814367676160657,0.5996736118077817,-1.2338297385103778
2.059353679644607,15.072217865673352,-0.01888393441638242,0.5836342534336603,-1.2693982887146602
2.05556902632138,14.95708805673761,-0.018962598815887834,0.5676638359237679,-1.304380401358558
2.0517678461005793,14.845145508472335,-0.01904920339212057,0.5517616467289751,-1.3386629314355314
2.047948669113153,14.736376633682298,-0.01914256648213911,0.5359271011714027,-1.372129244942754
2.0441102644146283,14.63076794850772,-0.019241480503111783,0.5201597505743637,-1.4046588011117884
2.040251645392307,14.528306044284307,-0.019344709720095336,0.5044592916597908,-1.436126703833873
2.036372075672829,14.428977557381035,-0.019450987474689874,0.488825577372932,-1.4664032188515954
2.032471075643348,14.332769136711924,-0.019559012820116264,0.4732586293181847,-1.4953532530128781
2.0285484297114174,14.239667408578374,-0.019667446499194968,0.45775865201733235,-1.5228357916113655
2.024604194442353,14.149658938453396,-0.019774906191446655,0.4423260492324604,-1.5487032895854813
2.0206387077288204,14.062730189267082,-0.019879960943876913,0.42696144263068037,-1.572801012140797
2.016652599165764,13.978867475693356,-0.019981124686692164,0.4116656931065861,-1.594966320232911
2.012646801825105,13.898056913870604,-0.02007684871989354,0.39643992512093124,-1.6150278963537075
2.0086225656492176,13.820284365912535,-0.02016551303898,0.3812855544597599,-1.632804906279965
2.0045814727105915,13.745535378479975,-0.020245416347280186,0.36620431986583296,-1.6481060929821199
2.000525454618072,13.673795114589268,-0.020314764577913594,0.3511983190412443,-1.6607287999152962
1.996456812388392,13.605048277728901,-0.02037165771889084,0.33627004956241635,-1.6704579226598708
1.9923782391466347,13.539279027244735,-0.020414074698679844,0.32142245527926366,-1.6770647906851865
1.988292846072358,13.476470883839003,-0.020439856044089794,0.30665897877806503,-1.6803059853697655
1.9842041920715938,13.416606623915708,-0.02044668396354933,0.29198362045487236,-1.6799221070369053
1.9801163177321892,13.359668161405654,-0.020432059430496606,0.27740100464566986,-1.675636513687963
1.9760337842157718,13.305636415636222,-0.02039327573367803,0.262916453048637,-1.667154068833398
1.9719617178616393,13.254491163802562,-0.020327387807645692,0.24853606528797229,-1.654159957504266
1.967905861437706,13.206210876692825,-0.020231176431689056,0.23426680580939832,-1.6363186613201548
1.9638726331898904,13.160772536590237,-0.020101106046467032,0.22011659521648377,-1.6132732299416008
1.9598691951437264,13.11815143682525,-0.019933274415173934,0.20609440243339422,-1.5846450538856982
1.9559035325486576,13.07832096344299,-0.019723351535512513,0.19221033138920166,-1.5500344418419338
1.9519845470050585,13.04125236112452,-0.01946650390047718,0.17847569179550343,-1.5090224473054774
1.948122166805384,13.006914488206228,-0.019157298096268323,0.16490303738744103,-1.4611745921695494
1.9443274795661163,12.975273569879516,-0.018789574296410327,0.15150614587967906,-1.4060474213809633
1.9406128946753727,12.946292965101904,-0.018356274611025108,0.138299901896443,-1.343199218260939
1.9369923470048147,12.919932972261183,-0.01784920209455333,0.12530002651077027,-1.2722067349393444
1.9334815596666124,12.896150712098024,-0.017258671287470433,0.11252257512083387,-1.1926904393669369
1.9300983938382905,12.874900144299875,-0.01657298699575014,0.09998310286063966,-1.1043514608759302
1.9268633302115665,12.856132295475287,-0.015777649271488236,0.0876953853852523,-1.0070238432809038
1.9238001531824287,12.839795795731114,-0.014854121019889968,0.07566961205649358,-0.9007451798648273
1.920936951479717,12.825837824432956,-0.013777896007227666,0.06391010092507932,-0.7858457355715284
1.9183076183499088,12.81420552078465,-0.012515435290853801,0.052412935557981905,-0.6630482431717433
1.915954156315081,12.804847760221463,-0.01101918505742444,0.0411646700739069,-0.5335547349077243
1.913930348879503,12.797716828972444,-0.009218889298355635,0.030144642416289516,-0.3990729422104982
1.9123080888678443,12.792768743490349,-0.0070037108182311614,0.019336212404665612,-0.26171261997387363
1.9111905517473913,12.7899589161355,-0.0041716603862987315,0.00876206114383159,-0.12368437841992438
