x,y,v_x,v_y,omega
2.375,32.48,0.0,2.2051282051282053,-6.653061224489796
2.373627050716311,31.978200025906386,-0.011938689423381322,2.1583498304684015,-6.2911178471290015
2.3696831410321066,31.48696596183557,-0.0223561773957865,2.11325072666914,-5.9580996812513725
2.363496936796532,31.005923921921326,-0.03143690291356137,2.069723533454717,-5.65093034908376
2.355357535106885,30.53472352442165,-0.039340503083367076,2.0276712274120365,-5.3669301625583
2.3455197311286433,30.073035673913015,-0.0462056184665597,1.9870057335326181,-5.103756250959695
2.334208486860994,29.620550635622678,-0.052153027339086125,1.9476467733398628,-4.859353097293916
2.3216227405779652,29.176976352938425,-0.057288244687254006,1.9095209021753923,-4.631911422844606
2.307938668027779,28.742036968815746,-0.06170369053175569,1.8725606988913879,-4.4198338184822745
2.293312485085338,28.315471519330508,-0.0654805089677338,1.8367040792411062,-4.221705866755901
2.2778828648394844,27.897032773524643,-0.06869010186577393,1.80189371037511,-4.036271761450807
2.2617730289136757,27.48648619834988,-0.07139542792386767,1.7680765085358723,-3.862413632917261
2.245092562330153,27.083609031217406,-0.07365210758502277,1.7352032056595341,-3.699133943633155
2.2279389928162363,26.68818944562506,-0.07550936644903769,1.7032279734043625,-3.5455404404227338
2.210399168655966,26.30002579772119,-0.07701084364026803,1.6721080953249325,-3.4008332457435273
2.1925504636632946,25.918925943599845,-0.07819528673078874,1.6418036796432796,-3.264293746552999
2.1744618333294876,25.544706618700165,-0.07909715095448888,1.6122774064409227,-3.13527500000518
2.156194742473896,25.177192871977624,-0.0797471173550062,1.5834943041898515,-3.01319342401265
2.1378039816459546,24.816217548582745,-0.08017254201839438,1.5554215514178078,-2.8975215801245833
2.1193383869639475,24.461620815668503,-0.08039784652079669,1.528028300010385,-2.787781888192797
2.1008414759356064,24.113249726686355,-0.08044485807347321,1.5012855172256607,-2.6835411384464756
2.0823520100100836,23.770957820149537,-0.08033310649629001,1.475165843964082,-2.5844056880531583
2.063943257949509,23.434615759974594,-0.07974299837827574,1.4495477227745446,-2.4819833147191166
2.045680344890702,23.104099340920747,-0.07906494126352011,1.4245080950849869,-2.384796561268973
2.027582180648149,22.779278199867107,-0.07831039997607316,1.4000235662510123,-2.292509567186028
2.009665179273415,22.460027210563336,-0.07748961197813907,1.3760719929122207,-2.2048121527913866
1.9919435260985021,22.14622620574449,-0.076611719977622,1.3526323968168643,-2.1214175394269037
1.9744294160245142,21.837759718225197,-0.0756848893614029,1.329684885959603,-2.042060299944719
1.957133266330957,21.534516739376947,-0.07471641232170224,1.3072105822860283,-1.9664945133931926
1.9400639068801404,21.23639049355375,-0.07371280029409547,1.2851915553070066,-1.8944921010775095
1.923228750243326,20.943278227173497,-0.07267986611298671,1.2636107610430174,-1.8258413240051155
1.9066339439729207,20.65508101128823,-0.07162279710792846,1.2424519857853782,-1.7603454241708858
1.890284506981659,20.371703556587708,-0.07054622020739083,1.2216997942191739,-1.697821394252498
1.8741844517599338,20.093054039879647,-0.0694542599815244,1.201339481503111,-1.63809886212134
1.8583368939615896,19.81904394117805,-0.06835059043886066,1.1813570289455189,-1.5810190781691882
1.8427441507126527,19.54958789060958,-0.06723848129102494,1.1617390629542208,-1.5264339948401229
1.8274078288432927,19.28460352441809,-0.06612083931210426,1.1424728169717855,-1.4742054289696744
1.8123289041079114,19.024011349410536,-0.0650002453433865,1.1235460961373787,-1.4242042985935608
1.7975077923391862,18.767734615243832,-0.0638789874281365,1.1049472444426403,-1.3763099268174115
1.782944413377046,18.515699194003133,-0.06275909050351675,1.086665114172162,-1.3304094061543166
1.7686382485210914,18.267833466567772,-0.061642343026522994,1.0686890374396478,-1.2863970174540358
1.7545883921733492,18.024068215302577,-0.060530320866888476,1.0510087996490425,-1.2441736981791955
1.7407935982660887,17.784336522649433,-0.059424408761462974,1.033614614726102,-1.2036465553409066
1.727252322005571,17.548573675228198,-0.058325819590864664,1.0164971019803113,-1.1647284188984812
1.7139627574060166,17.316717073086416,-0.05723561170960961,0.9996472644699341,-1.1273374318635498
1.7009228710378967,17.088706143765606,-0.05615470453490862,0.9830564687545117,-1.0913966737349425
1.6881412471075072,16.864617496503154,-0.054989851381523375,0.965540463962455,-1.080222133863634
1.6756238024350798,16.644541496913405,-0.05385749359610536,0.9481638802962302,-1.0719613850113718
1.6633630103351618,16.428446582345224,-0.0527580898814426,0.9309223333401307,-1.0664575962864973
1.6513512579975196,16.21630217606129,-0.0516919304458809,0.9138116343462581,-1.0635594591831106
1.639580883572611,16.008078643361085,-0.05065915150984642,0.8968277804381505,-1.0631207951892838
1.6280442100535084,15.803747249870735,-0.04965974865626144,0.8799669455648791,-1.0650001819222699
1.6167335762101043,15.603280121832295,-0.04869358911247107,0.863225472160685,-1.0690605960379056
1.6056413648120986,15.406650208234758,-0.04776042304409898,0.8465998634700569,-1.07516907126287
1.5947600283595456,15.213831244637895,-0.04685989393462463,0.8300867765026834,-1.0831963699870701
1.5840821125234519,15.024797718547582,-0.045991548118363056,0.8136830155869929,-1.0930166669300327
1.5736002774840196,14.839524836208145,-0.045154843528875645,0.7973855264950731,-1.1045072434605046
1.563307317340445,14.657988490682907,-0.044349157719597465,0.7811913911156815,-1.1175481912030645
1.5531961777537038,14.480165231099182,-0.04357379520858866,0.7650978226558565,-1.1320221236099246
1.5432599719723183,14.306032232937891,-0.04282799419476271,0.7491021613553712,-1.1478138942105827
1.533491995380723,14.135567269251297,-0.04211093268867511,0.733201870701962,-1.1648103202768476
1.5238857387003777,13.968748682694589,-0.04142173409693648,0.7173945341389718,-1.1828999106561562
1.5144348999652464,13.805555358258612,-0.04075947229551063,0.7016778522608126,-1.2019725965320958
1.5051333953855557,13.645966696591636,-0.04012317622353873,0.6860496404955112,-1.2219194638676387
1.495975369206874,13.489962587797724,-0.03951183402586472,0.6705078272776271,-1.242632486273676
1.4869552026654538,13.337523385598107,-0.03892439676909366,0.6550504527190515,-1.2640042570228585
1.47806752213544,13.188629881739601,-0.03835978175276513,0.6396756677896915,-1.2859277188962732
1.4693072065589579,13.043263280530926,-0.03781687543403717,0.624381734024867,-1.3082958905078357
1.4606693942462146,12.901405173383196,-0.03729453598112274,0.6091670237814689,-1.3310015876981547
1.452149489129615,12.763037513225203,-0.03679159546756981,0.5940300210706416,-1.3539371385257122
1.4437431665534706,12.628142588656964,-0.03630686171629421,0.5789693230010213,-1.3769940903082047
1.4354463786792082,12.496702997696392,-0.035839119799028846,0.5639836418735152,-1.4000629070806256
1.4272553595850668,12.368701620963662,-0.035387133193506226,0.5490718079763232,-1.4230326557390405
1.419166630139135,12.24412159413557,-0.03494964459720456,0.5342327731375268,-1.445790679030239
1.4111770027252823,12.122946279488001,-0.03452537639281879,0.5194656151022208,-1.468222253428076
1.4032835859030857,12.005159236327867,-0.034113030756718066,0.5047695428119838,-1.4902102298084978
1.3954837890853542,11.890744190096676,-0.0337112893974683,0.49014390267664104,-1.5116346546989614
1.3877753273203437,11.779684999905545,-0.033318812906971654,0.47558818594190166,-1.5323723697373746
1.3801562262703309,11.671965624235977,-0.03293423970183435,0.4611020372717425,-1.5522965868357341
1.372624827483999,11.567570084511356,-0.03255618452713791,0.44668526468147624,-1.571276436411647
1.3651797940671708,11.466482426210696,-0.0321832364887589,0.43233785097642985,-1.589176485937674
1.3578201168649953,11.368686677158113,-0.03181395657363759,0.4180599668721098,-1.6058562259795386
1.3505451212789015,11.274166802578439,-0.031446874609785735,0.403851985994623,-1.621169520872023
1.3433544748537236,11.182906656460812,-0.031080485609152886,0.3897145019847489,-1.6349640212476888
1.3362481957846255,11.094889928717745,-0.0307132454264826,0.3756483479549705,-1.6470805358334355
1.329226662510182,11.010100087566784,-0.030343565655634692,0.3616546185751186,-1.6573523603270341
1.322290624577614,10.928520316495572,-0.029969807671043694,0.34773469508759985,-1.6656045618498558
1.3154412149893302,10.850133445099363,-0.029590275705338065,0.33389027357509626,-1.671653218569406
1.308679964267345,10.774921873004114,-0.02920320883366328,0.3201233968183821,-1.6753046157739182
1.302008816504885,10.702867486010373,-0.02880677170946722,0.30643649008370494,-1.676354402211741
1.2954301477140253,10.633951563517439,-0.02839904386322669,0.2928324011591882,-1.674586714233771
1.288946786826631,10.5681546762201,-0.02797800733150539,0.2793144449046128,-1.6697732806958956
1.2825620397662738,10.505456573022155,-0.027541532323775878,0.2658864524688404,-1.6616725293932901
1.2762797170856957,10.445836056097768,-0.027087360550816765,0.2525528251345245,-1.650028727001679
1.2701041657646528,10.38927084307818,-0.026613085719121413,0.23931859242712708,-1.6345712004917172
1.2640403058969512,10.335737415483802,-0.02611613052176221,0.22618947361094655,-1.6150137107311313
1.258093673179182,10.285210852815446,-0.025593719197969815,0.2131719408965035,-1.5910540812557257
1.2522704683717665,10.237664652243442,-0.025042844344773857,0.20027328146874102,-1.5623742308144268
1.2465776152739507,10.193070534707413,-0.02446022607101622,0.1875016536271749,-1.5286408225467696
1.2410228292986125,10.151398239630506,-0.02384226067105527,0.17486612965028508,-1.4895068326144956
1.2356146995447448,10.112615312597196,-0.02318495457996918,0.1623767141176283,-1.44461446594221
1.2303627884937818,10.076686893566997,-0.022483837167535277,0.15004432092756986,-1.3936000174848184
1.2252777553333143,10.043575517920267,-0.021733842488703352,0.1378806846961553,-1.336101505668419
1.2203715118010345,10.01324094936302,-0.020929144748511985,0.12589817232340192,-1.2717701979744145
1.2156574239032985,9.985640072961097,-0.02006292392745314,0.114109448562895,-1.2002874999109008
1.2111505797494833,9.960726888588692,-0.019127025236157464,0.10252693728409809,-1.1213890419134456
1.2068681543300406,9.938452659285822,-0.018111456672039696,0.0911620131756391,-1.0348980408691821
1.202829918225068,9.918766282774694,-0.017003639892940944,0.08002386952982211,-0.9407698256933267
1.1990589617252307,9.901614960618993,-0.015787286192598993,0.06911806225887897,-0.8391481830524706
1.1955827431136128,9.886945222861854,-0.014440701734512746,0.058444874759716756,-0.7304308467007936
1.1924346288694734,9.874704297551581,-0.012934204736265139,0.04799795402525993,-0.6153346362551562
1.189656199074099,9.864841646579396,-0.011226054353946038,0.0377642283415568,-0.49493963103545735
1.1873008280508026,9.85731014650041,-0.009255432805152917,0.027727076693097857,-0.3706784604581632
1.1854397504535503,9.852065707478275,-0.006927850649215079,0.017876740890685423,-0.24422915478146462
1.1841746089512828,9.849062269064756,-0.004073379805284857,0.008240114879053587,-0.1172799521452213
