x,y,v_x,v_y,omega
2.375,32.48,0.0,3.3846153846153846,-2.7346938775510203
2.374289317585666,31.81160877707794,-0.007106824143340034,3.2992968446051734,-2.544019540294991
2.37227204235659,31.159903490382355,-0.013065928147419255,3.2177560223506934,-2.373355759281981
2.3691599080377377,30.524154673847637,-0.01805541504110338,3.1397321429964693,-2.2199973912819653
2.3651320138999252,29.90368260868396,-0.022223526337021515,3.064988508640287,-2.081669328500896
2.3603402495764145,29.29785279121116,-0.025694116898084825,2.993309666087744,-1.9564491787564422
2.354913734277416,28.70607192581308,-0.02857103609190354,2.9244989878930276,-1.8427053418889083
2.3489624654747074,28.127784367693405,-0.030941651935182703,2.858376593303741,-1.7390471321300256
2.342580330309147,27.562468953240433,-0.032879699720418765,2.794777551225978,-1.6442843855458513
2.3358476008141316,27.00963616621397,-0.03444759522973749,2.7335503190386685,-1.5573945810091445
2.3288330091539358,26.4688255963049,-0.03569832137221887,2.6745553800520265,-1.4774959466964124
2.321595479687949,25.939603653364664,-0.036676973287646415,2.617664049350307,-1.4038253604180484
2.314185579485801,25.42156150610971,-0.037422028733836925,2.5627574231992143,-1.3357201088815756
2.3066467369596895,24.914313218639453,-0.03796639652727844,2.5097254515033875,-1.2726027683447494
2.2990162688152544,24.417494061865252,-0.03833828491707338,2.4584661162386245,-1.2139686217274563
2.291326247995113,23.930758980085873,-0.038561923284339376,2.4088847015551598,-1.1593751459492443
2.2836042392757334,23.45378119558036,-0.03865816390945685,2.3608931434999763,-1.1084331960875944
2.2758739243533443,22.986250936315464,-0.03864498531443258,2.3144094491489504,-1.0607995859282047
2.268155634367188,22.527874273754758,-0.03853791454713222,2.2693571764581306,-1.0161708221335515
2.2604668046639853,22.07837205936869,-0.03835038248489547,2.225664967402578,-0.9742777950227045
2.252822364054391,21.637478949826296,-0.0380940236110438,2.1832661280213177,-0.9348812654500204
2.2452350687316835,21.204942512037427,-0.037778929616030646,2.1420982498673977,-0.8977680164979182
2.2377157893215798,20.78052240024029,-0.03741386448501033,2.102102868103958,-0.8627475622041734
2.2302737581361103,20.363989598218378,-0.0370064473696823,2.0632251521151566,-0.8296493245231822
2.2229167825553864,19.955125720503396,-0.03656330843755916,2.025413625034638,-0.7983202051041322
2.2156514295122336,19.553722367094956,-0.03609022199396503,1.9886199090497874,-0.7686224909844712
2.2084831852688436,19.159580526816953,-0.035592220439935866,1.9527984937302565,-0.7404320435156844
2.201416594021823,18.772510024947458,-0.03507369203027018,1.9179065249646852,-0.7136367282105487
2.1944553783283447,18.392329011213107,-0.03453846490451273,1.8839036123787904,-0.6881350500833303
2.1876025438919773,18.01886348463941,-0.03398987945916105,1.8507516533582125,-0.6638349647302288
2.1808604708665102,17.651946852101933,-0.03343085079550963,1.8184146720165517,-0.6406528400929138
2.1742309935168405,17.291419517736493,-0.03286392270119067,1.786858671637834,-0.6185125477443196
2.167715469807311,16.93712850064398,-0.03229131439410307,1.7560514992872984,-0.5973446657785167
2.161314842261245,16.588927078572418,-0.031714961066554415,1.7259627214283495,-0.5770857780928058
2.155029691243769,16.246674455478615,-0.03113654910820678,1.6965635095096623,-0.5576778571151544
2.148860281657624,15.910235451067926,-0.030557546753245856,1.6678265345972112,-0.5390677189307823
2.142806603903744,15.579480210585857,-0.029979230785551654,1.6397258702235002,-0.5212065413608593
2.136868409841005,15.254283933292278,-0.029402709841839424,1.6122369027122667,-0.5040494368951582
2.1310452443794476,14.93452661818976,-0.0288289447737353,1.5853362483129174,-0.4875550735210918
2.125336473255767,14.620092825703846,-0.028258766463070246,1.5590016765462322,-0.4716853374583344
2.1197413074666325,14.310871454126968,-0.027692891428275714,1.5332120392225357,-0.4564050326296005
2.1142588247726084,14.006755529740058,-0.027131935511961455,1.5079472046465525,-0.44168161239756787
2.108887988631497,13.707642009618368,-0.026576425899157957,1.4831879965703427,-0.42748493969484536
2.1036333372934983,13.413432091461303,-0.02597008748082529,1.4589111850003114,-0.41218694515300586
2.098498706692307,13.124030512640882,-0.025376218531088377,1.4351046032038897,-0.39758364787146694
2.093481602733445,12.839344892887897,-0.024794821057528938,1.4117515943259622,-0.3836353223452144
2.0885795352426024,12.559286107975584,-0.024225853850896983,1.3888362547971644,-0.3703049446999896
2.083790025971849,12.283768143336921,-0.0236692388566396,1.3663433915894476,-0.35755797981590104
2.079110615411837,12.012707955943021,-0.023124866743477076,1.3442584823495631,-0.34536218745711333
2.074538868560531,11.746025343889464,-0.022592601769585177,1.3225676381860225,-0.3336874455155574
2.0700723797801808,11.483642823180368,-0.022072286033916987,1.3012575689049315,-0.32250558868396306
2.0657087768578952,11.225485511239075,-0.021563743188939926,1.280315550507982,-0.3117902610561031
2.061445724370869,10.971481016710076,-0.02106678168132165,1.259729394782022,-0.3015167813131646
2.057280926444871,10.721559335149454,-0.02058119757865745,1.2394874208242055,-0.29166201929737395
2.0532121289837044,10.475652750231042,-0.020106777033009133,1.2195784283599096,-0.28220428289977556
2.049237121437837,10.233695740122794,-0.019643298425665617,1.199991672722555,-0.27312321430045405
2.0453537381720697,9.99562488871301,-0.01919053423200561,1.1807168413752882,-0.2643996946982746
2.041559859484816,9.76137880138905,-0.018748252640529223,1.1617440318643129,-0.2560157567549345
2.03785341232517,9.530898025092359,-0.018316218955930955,1.143063731102588,-0.24795450405611769
2.0342323707483345,9.304124972393026,-0.01789419681242786,1.1246667958907304,-0.2402000369619819
2.0306947561450555,9.081003849345016,-0.017481949220361954,1.106544434589352,-0.23273738428110397
2.0272386372763886,8.861480586899702,-0.017079239466304012,1.0886881898637994,-0.22555244025724888
2.023862130141314,8.64550277567048,-0.01668583188444321,1.0710899224284136,-0.218631906407685
2.020563397701379,8.433019603855335,-0.016301492514908564,1.0537417957230373,-0.21196323779592133
2.0173406494836086,8.223981798137068,-0.01592598966279377,1.0366362614596272,-0.20553459336128418
2.014192141080328,8.018341567392952,-0.015559094370013262,1.0197660459815243,-0.199334789963203
2.011116173562259,7.816052549056575,-0.015200580810674325,1.003124137382228,-0.19335325982989535
2.0081110928192536,7.617069757984908,-0.014850226619382503,0.9867037733344598,-0.18758001112973144
2.0051781842220153,7.421524259633117,-0.014478859352997345,0.9687512101834458,-0.21663950870805848
2.0023161611823843,7.229558405508481,-0.014141371043314135,0.9509073310629076,-0.24724356843693754
1.9995183117040107,7.04115074829857,-0.013837123740422435,0.9331692410361874,-0.2792887145352745
1.9967780574533123,6.85628040867557,-0.013565418766560998,0.9155341551938171,-0.31267367795716494
1.9940889653056613,6.67492705368015,-0.013325502709950107,0.8979993947603866,-0.3472991750238481
1.9914447577447032,6.497070875847836,-0.013116572899631343,0.8805623835627714,-0.3830676902411808
1.9888393222150709,6.322692573006478,-0.012937782396691863,0.8632206448508162,-0.41988326241467877
1.9862667195220107,6.151773328675002,-0.012788244533909745,0.8459717984639427,-0.4576512731738746
1.9837211913653514,5.98429479299465,-0.012667037032683008,0.828813558339573,-0.49627823701078194
1.9811971670897761,5.820239064124518,-0.01257320572307123,0.8117437303617551,-0.5356715919233844
1.978689269728483,5.659588670033244,-0.012505767889859291,0.7947602105509817,-0.5757394897339455
1.9761923214130248,5.50232655061825,-0.012463715264721975,0.7778609835989478,-0.6163905851231517
1.9737013482183727,5.348436040082863,-0.012446016681799956,0.7610441217549201,-0.6575338223841359
1.971211584509066,5.197900849500016,-0.012451620411265563,0.7443077840735607,-0.6990782188546867
1.9687184768496664,5.050705049488911,-0.012479456182733255,0.7276502160374906,-0.7409326439307151
1.9662176875406303,4.906833052927997,-0.012528436907626216,0.7110697495716582,-0.7830055924985055
1.9637050978391861,4.766269597623754,-0.01259746010681658,0.6945648034707683,-0.8252049515464811
1.9611768109238064,4.628999728850108,-0.01268540904697992,0.6781338842656908,-0.8674377586281039
1.9586291546604975,4.495008781667536,-0.012791153586109607,0.6617755875600068,-0.9096099507449116
1.956058684229338,4.364282362924161,-0.012913550725485102,0.6454885998737526,-0.9516261021012432
1.9534621846705855,4.236806332832973,-0.013051444862037964,0.6292717010381181,-0.9933891490484756
1.9508366734112355,4.112566786009914,-0.013203667731463562,0.6131237671924709,-1.0348001003850154
1.9481794028352357,3.9915500318462875,-0.013369038028533118,0.5970437744437821,-1.075757731007218
1.9454878629637014,3.8737425740760614,-0.01354636068681144,0.5810308032584952,-1.1161582567141348
1.9427597843154887,3.7591310893833807,-0.01373442579531493,0.565084043668328,-1.1558949877538531
1.9399931410235094,3.647702404878082,-0.013932007124478068,0.5492028013846703,-1.1948579584596555
1.9371861542882565,3.5394434742464718,-0.014137860228050527,0.533386504931424,-1.2329335300590785
1.9343372962573389,3.434341352360967,-0.014350720081125798,0.5176347139236402,-1.2700039634475244
1.9314452944284968,3.332383168104652,-0.01456929820729636,0.5019471286395198,-1.3059469584006933
1.9285091366837857,3.233556095135036,-0.014792279239814481,0.4863236010566564,-1.3406351553585518
1.9255280770745575,3.137847320274343,-0.015018316852466882,0.47076414755026585,-1.373935595551978
1.9225016424907633,3.0452440091711104,-0.015246028985476744,0.45526896348205154,-1.4057091348692585
1.9194296403642226,2.955733268828528,-0.015473992279929636,0.43983843994377725,-1.4358098064861364
1.916312167574155,2.8693021065381465,-0.01570073562074421,0.4244731829600417,-1.4640841269307234
1.913149620744802,2.7859373846920867,-0.015924732672786962,0.40917403550054343,-1.4903703399552242
1.9099427081498226,2.705625770871684,-0.01614439327700714,0.39394210270348967,-1.51449759238863
1.906692463466823,2.6283536825244767,-0.01635805355298913,0.37877878076858396,-1.5362850361211169
1.903400261658475,2.5541072254436727,-0.0165639645304893,0.3636857900394476,-1.5555408506300177
1.9000678372949733,2.4828721251537686,-0.016760279104530297,0.34866521285959307,-1.5720611811588459
1.8966973056769876,2.4146336501828394,-0.01694503707532551,0.3337195368496887,-1.585628989040494
1.8932911871700517,2.349376526066802,-0.017116147994032865,0.3188517043106698,-1.596012813059779
1.8898524352220898,2.2870848387860505,-0.017271371485587588,0.3040651684968308,-1.6029654446880919
1.8863844686078535,2.2277419261855407,-0.01740829465677446,0.28936395750828114,-1.6062225262426288
1.8828912085306582,2.1713302557851577,-0.017524306115178946,0.2747527464955453,-1.605501090626318
1.8793771213178485,2.117831287264906,-0.017616566012917893,0.2602369387069741,-1.6004980759154372
1.8758472675793416,2.067225317836865,-0.017681971372150208,0.24582275557343422,-1.5908888700741761
1.8723073588700245,2.019491308738754,-0.01771711572102266,0.23151733540766373,-1.5763259740207287
1.8687638231254042,1.9746066912747047,-0.017718241725178278,0.2173288392328176,-1.5564379203522631
1.8652238804560957,1.9325471513020425,-0.017681184967908752,0.2032665604938091,-1.5308286578995398
1.861695631340528,1.8932863919961562,-0.017601306187769773,0.18934103256503915,-1.499077720070333
1.8581881599301062,1.8567958763912493,-0.01747340791644748,0.1755641234840278,-1.4607416536830045
1.8547116562168595,1.8230445540029336,-0.017291629216018997,0.1619491003991275,-1.4153574171768022
1.8512775624463342,1.7919985803921534,-0.017049308489233805,0.1485106357086836,-1.3624487928533693
1.847898751786769,1.7636210456802814,-0.016738798106416982,0.13526471141005242,-1.3015373340130296
1.8445897515620353,1.7378717388968177,-0.01635120414092118,0.12222835642458715,-1.2321600205159926
1.8413670304491647,1.7147069909228811,-0.015876006987784276,0.10941912331477399,-1.153896635680293
1.8382493808062728,1.6940796606627444,-0.01530048944113487,0.09685417928658549,-1.0664108221956006
1.8352584468024344,1.6759393562204359,-0.014608850597248235,0.08454886513650017,-0.9695094989020292
1.8324194812308705,1.6602330095528046,-0.013780805118390239,0.07251460153979851,-0.863224939657192
1.8297624669477586,1.6469059315787078,-0.012789337712729991,0.06075617820118344,-0.7479203618621966
1.8273238276958383,1.6359034228050184,-0.01159705480647225,0.04926890953570884,-0.6244097760956051
1.825149113477956,1.6271728177348912,-0.0101500873723512,0.038037141165551534,-0.4940616391839222
1.823297398481487,1.62066535057399,-0.008367062592338246,0.027037530443452095,-0.3588230717696643
1.8218491985187328,1.61633613311502,-0.006114937035204257,0.016254644146259982,-0.22107138826610298
1.820924522395234,1.6141373019444032,-0.00313182419978307,0.0057336675599145015,-0.08320746050661837
