x,y,v_x,v_y,omega
2.375,32.48,0.0,2.871794871794872,-2.1224489795918373
2.374539724452345,31.912055894433585,-0.004602755476547022,2.807646183869239,-1.994863007341582
2.37322389855142,31.356700482010904,-0.008555503532709598,2.745907940357589,-1.8786742497068865
2.371173780793922,30.813466024578837,-0.01194567404226497,2.6864366339630874,-1.7725571089988197
2.3684944157824983,30.281912346295073,-0.014847976071975225,2.6291001488745183,-1.6753683250173959
2.365276975513775,29.761624670186663,-0.017326426615260453,2.5737766122095853,-1.5861185074519892
2.361600730251179,29.252211670115543,-0.01943602601069734,2.5203533885016225,-1.5039486040505703
2.357534712966894,28.753303711704767,-0.021224146832149335,2.4687261956061413,-1.4281103672678002
2.3531391293426487,28.264551259714402,-0.022731689410307135,2.4187983242975264,-1.3579500751927798
2.348466555750975,27.785623432594182,-0.02399404650642784,2.370479946904647,-1.2928949127925071
2.3435629599697045,27.316206687624675,-0.025041911306275356,2.3236875027904342,-1.2324415370807713
2.3384685732080754,26.856003622299895,-0.025901956310014875,2.278343150457351,-1.1761464423400865
2.3332186370305315,26.404731879487702,-0.026597405465429245,2.2343742776645907,-1.123617814702986
2.327844044711397,25.962123145495845,-0.027148517725912282,2.191713062253984,-1.0745086235648227
2.3223718932507267,25.52792223152435,-0.027572996880791522,2.150296077460959,-1.0285107437482732
2.3168259595800103,25.101886230140128,-0.027886339826371415,2.1100639363812608,-0.9853499395949344
2.3112271122689174,24.68378373940103,-0.028102133284557084,2.070960971009722,-0.9447815721674075
2.30559366821792,24.273394148110814,-0.028232307225418134,2.0329349418924236,-0.9065869150135446
2.2999417023126485,23.870506976425535,-0.02828735182729656,1.9959367749603762,-0.8705699836468749
2.294285316765151,23.474921266673604,-0.028276503647682003,1.9599203225589412,-0.8365547999521007
2.2886368758275286,23.086445019811034,-0.028207905728536983,1.924842146066746,-0.804383025853892
2.2830072106966495,22.704894673422153,-0.02808874558025812,1.8906613178220608,-0.7739119113609826
2.277405798703965,22.330094617604676,-0.027925374346582536,1.8573392403527076,-0.7450125109676745
2.271840920277045,21.96187674545491,-0.02772340992262332,1.8248394811449693,-0.7175681297209711
2.2663197966488693,21.60008003520103,-0.027487826359131336,1.7931276213937777,-0.6914729663311174
2.260848710860817,21.24455016132609,-0.027223031521389374,1.7621711173556918,-0.6666309257468453
2.255433114241935,20.895139132282317,-0.02693293466743055,1.7319391730819838,-0.6429545778196474
2.2500777202395237,20.55170495262962,-0.026621005356683332,1.7024026234449827,-0.6203642421938009
2.244786587215068,20.214111307636166,-0.0262903248878744,1.6735338264895696,-0.5987871825020691
2.23956319159759,19.88222726856263,-0.02594363128690201,1.6453065642457798,-0.5781568954197429
2.2344104925973425,19.555927017015065,-0.025583358715577344,1.6176959512298958,-0.5584124822124621
2.2293309895212015,19.23508958689788,-0.025211672045832318,1.590678349941924,-0.5394980921719212
2.22432677259289,18.91959862262985,-0.024830497237280275,1.564231292738391,-0.5213624288221314
2.219399568062596,18.609342152403787,-0.024441548065657355,1.5383334095222336,-0.5039583110418169
2.214550778288731,18.304212375376842,-0.02404634967299967,1.512964360747226,-0.48724228232242617
2.209781517386909,18.004105461773733,-0.02364625934521807,1.4881047752838268,-0.4711742622964387
2.2050976341488715,17.708921849532672,-0.023192573035154273,1.4637313471267974,-0.45426252997931493
2.2005041516828143,17.418565553679375,-0.02274225162542134,1.4398316114061651,-0.4381224438626187
2.1960003343509547,17.132943517324065,-0.022295921693173563,1.416388752146949,-0.4227096837476938
2.1915853303969337,16.85196597052156,-0.02185411784703696,1.3933867158780935,-0.40798295624188374
2.187258189274931,16.57554628210889,-0.0214172933729852,1.3708101682486025,-0.3939037553057742
2.1830178769714728,16.303600819926668,-0.020985829661601344,1.3486444535736244,-0.3804361442609267
2.178863289549148,16.03604881886119,-0.020560044561645542,1.3268755570811708,-0.3675465571138228
2.174793265114316,15.772812256188022,-0.0201401997866739,1.3054900696505023,-0.3552036172875827
2.1708065943870793,15.513815733737815,-0.0197265074856924,1.2844751548515687,-0.34337797206060156
2.166902030030996,15.258986366441516,-0.019319136075141997,1.2638185181114256,-0.3320421411942198
2.163078294881721,15.008253676845523,-0.01891821541760864,1.2435083778484881,-0.32117037839306806
2.1593340891977313,14.761549495217775,-0.01852384142228843,1.2235334384289889,-0.31073854438451054
2.155668097042182,14.518807864893652,-0.01813608013320304,1.2038828648122295,-0.30072399053001675
2.1520789918925343,14.2799649525362,-0.017754971363273954,1.1845462587622924,-0.2911054519933366
2.14856544156366,14.044958963008579,-0.017380531925471503,1.165513636513927,-0.281862949589815
2.14512611252049,13.81373005857824,-0.017012758506224215,1.1467754077894534,-0.2729776995295764
2.1417596736477686,13.586220282192112,-0.016651630220991167,1.1283223560718232,-0.26443203034597806
2.138464799536943,13.362373484580278,-0.016297110887267513,1.1101456200465247,-0.2562093063708234
2.1352401733435933,13.142135254962433,-0.015949151046226406,1.0922366761319084,-0.24829385718035776
2.1320844892629083,12.925452855146865,-0.015607689760626426,1.0745873220237707,-0.24067091249192188
2.1289964546654985,12.71227515682591,-0.015272656213469312,1.0571896611857712,-0.2333265420410813
2.1259747919312395,12.502552581885084,-0.01494397112912398,1.040036088222484,-0.22624760001376273
2.1230182400147077,12.296237045555166,-0.014621548036192016,1.0231192750766727,-0.21942167364800086
2.120125555772165,12.093281902247824,-0.014305294389236438,1.0064321579967574,-0.2128370356558555
2.117295515076782,11.893641893925704,-0.013995112564593614,0.9899679252244554,-0.20648260014835262
2.114529305509179,11.697446228774592,-0.013666983111437088,0.9719887262866845,-0.23462512520762863
2.1118255658075316,11.504835446013857,-0.013370413905033551,0.9541191013206707,-0.26434376089761824
2.109178034450724,11.315787923656774,-0.01310489966304075,0.9363561222501617,-0.29553424883492185
2.1065805577938517,11.13028261419161,-0.012869866905685126,0.9186969724014673,-0.32809458352327114
2.1040271030640887,10.948299022699231,-0.012664680391946327,0.9011389425223086,-0.3619247902892909
2.101511770123892,10.769817185730517,-0.012488649010017675,0.8836794271648487,-0.3969267075261432
2.0990288021069667,10.594817650871676,-0.012341031159234813,0.8663159214235823,-0.433003772361438
2.096572595025322,10.423281456927203,-0.012221039657212857,0.8490460180211343,-0.4700608088662547
2.094137706439335,10.255190114651349,-0.012127846202657607,0.8318674047374209,-0.5080038179160178
2.09171886327695,10.090525587959597,-0.012060585421191908,0.8147778621801051,-0.5467397678010709
2.089310968882977,9.9292702755519,-0.012018358518537513,0.7977752618968612,-0.5861763846647641
2.0869091093748744,9.771406992878944,-0.01200023656248988,0.7808575648326822,-0.6262219418193152
2.0845085593773964,9.616918954381841,-0.01200526341229174,0.7640228201383565,-0.6667850469541329
2.0821047872050444,9.465789755934068,-0.012032458311224467,0.7472691643393645,-0.707774426207104
2.0796934595583756,9.318003357412348,-0.012080818155466806,0.7305948208778271,-0.7490987040158759
2.07727044579788,9.17354406532018,-0.012149319449489484,0.7139981000438566,-0.7906661776025966
2.0748318218573876,9.032396515384118,-0.012236919955431852,0.6974773993167649,-0.8323845848710083
2.0723738738577433,8.894545655038325,-0.012342560041010203,0.6810312041411561,-0.8741608644081891
2.069893101480892,8.759976725707403,-0.012465163727502445,0.6646580891680507,-0.9159009061834413
2.0673862211645218,8.628675244790902,-0.012603639436202315,0.6483567199969599,-0.957509291422549
2.0648501691780616,8.50062698724507,-0.012756880428396785,0.6321258554613651,-0.9988890200054602
2.0622821046421875,8.375817966648185,-0.01292376493034697,0.6159643505074838,-1.0399412235878662
2.059679412556063,8.254234415624968,-0.013103155930894634,0.5998711597246846,-1.080564862480543
2.057039706899462,8.135862765492938,-0.013293900635116183,0.5838453415956227,-1.120656404133021
2.0543608338806667,8.020689624978846,-0.013494829552839944,0.5678860635453037,-1.1601094808585182
2.051640875405807,7.908701757836205,-0.013704755195758096,0.5519926078810986,-1.198814524203608
2.048878152851109,7.799886059175048,-0.013922470351220118,0.5361643787304882,-1.2366583731075345
2.0460712312265374,7.694229530291967,-0.01414674589449684,0.5204009101003285,-1.2735238527117831
2.043218923827663,7.591719251761827,-0.014376328094247005,0.5047018752010558,-1.309289320370611
2.0403202974824404,7.492342354521533,-0.014609935357979605,0.4890670972018787,-1.3438281750793828
2.037374678511108,7.396085988640436,-0.01484625435534462,0.4734965616090874,-1.3770083261835135
2.0343816595308795,7.302937289430567,-0.015083935446938508,0.4579904304895929,-1.4086916168637025
2.031341107252707,7.212883340501989,-0.015321587334787001,0.4425490587961939,-1.4387331975249482
2.0282531714354746,7.125911133313338,-0.015557770837537904,0.4271730130903025,-1.4669808438668646
2.025118295183882,7.042007522704072,-0.01579099167838448,0.41186309300234086,-1.4932742141109914
2.0219372268003935,6.961159177821841,-0.016019692156503906,0.3966203558199541,-1.5174440396526712
2.0187110334294527,6.8833525277749,-0.016242241552901496,0.38144614464947374,-1.5393112433589276
2.015441116764319,6.808573701244349,-0.016456925098432613,0.36634212065603106,-1.5586859799511557
2.01212923112401,6.7368084591836705,-0.016661931304661537,0.3513102999507364,-1.5753665935422696
2.0087775042509404,6.6680421196129736,-0.01685533742603373,0.336353095756232,-1.5891384886630089
2.0053884612300346,6.602259473383448,-0.017035092783022694,0.32147336653902114,-1.5997729133357523
2.0019650519889196,6.539444689645681,-0.01719899962813021,0.3066744708386688,-1.6070256564127559
1.9985106829084784,6.479581209608366,-0.017344691176281082,0.291960329534465,-1.6106356671889133
1.9950292531565879,6.422651627030518,-0.01746960634262286,0.2773354962440147,-1.6103236142556332
1.9915251964598264,6.3686375537656055,-0.017570960624993203,0.2628052364050982,-1.605790414196319
1.9880035291552578,6.317519468596235,-0.017645712420691902,0.24837561528862753,-1.596715781265864
1.98446990552783,6.2692765476045835,-0.017690523853585945,0.2340535946278653,-1.5827568799341396
1.9809306816556749,6.2238864744843205,-0.017701714867967126,0.21984713657477895,-1.563547207947848
1.9773929892835764,6.181325229619329,-0.017675208853016648,0.20576531207512525,-1.5386959054840301
1.9738648216699257,6.141566857598139,-0.01760646728349028,0.19181840813676457,-1.5077877863989428
1.9703551339808076,6.1045832143518055,-0.01749040960768988,0.17801802432657685,-1.4703845354509533
1.9668739617640725,6.070343697677899,-0.017321312559661666,0.1643771424124756,-1.4260277317216676
1.9634325625410614,6.0388149691043225,-0.017092679670449445,0.1509101433232852,-1.3742446716713035
1.960043587966481,6.009960681650899,-0.016797066075353317,0.13763273121095662,-1.3145584106756953
1.956721297938753,5.983741238128996,-0.016425834201928374,0.12456170400806016,-1.246504055803891
1.953481834519403,5.960113619436495,-0.015968799991572375,0.11171448291696164,-1.1696541415628918
1.9503435842454155,5.939031342918824,-0.015413702748301407,0.0991082822597602,-1.0836568452921367
1.9473276751880664,5.920444636984623,-0.014745387825191062,0.08675877708223899,-0.9882915831633804
1.944458684448073,5.904300945284412,-0.01394451957474221,0.07467813991987587,-0.8835464211792375
1.9417656800537277,5.890545887038009,-0.012985524368710234,0.06287244254415039,-0.7697190229410266
1.9392838015575635,5.879124763071953,-0.01183326059293173,0.051338797116391374,-0.6475343097452817
1.9370567257920972,5.869984535071488,-0.01043749706173025,0.04006348288824643,-0.5182532255676767
1.9351406633001296,5.863075785034212,-0.008723127857946796,0.029024017484500668,-0.3837162604229421
1.9336113818580793,5.858353223974014,-0.006569686562556092,0.018201593117472034,-0.24623349764016453
1.9325792817499408,5.8557708019696335,-0.003751314518828444,0.007622626926318793,-0.10823071359774439
