x,y,v_x,v_y,omega
2.375,32.48,0.0,2.41025641025641,-5.673469387755102
2.3736872967491593,31.931815126625878,-0.011414810876874803,2.3565685756054995,-5.340885054029234
2.3699281463469335,31.395743540700938,-0.021273453490307057,2.3049234759157144,-5.037148588043612
2.3640572107366955,30.87133064042429,-0.029778160511763064,2.2551887004029636,-4.7589694924245105
2.356365952043159,30.358150832435427,-0.03710234986681436,2.20724441254365,-4.50350707582121
2.3471087304501452,29.85580483046604,-0.04339522920287216,2.1609816915379683,-4.268299375315443
2.3365079384679084,29.36391730301035,-0.04878557064266344,2.116301155902848,-4.051204847786556
2.3247583430108483,28.882134811740485,-0.05338482463611968,2.0731118116611778,-3.8503542485044093
2.3120307723255316,28.410123994093603,-0.057289703062286736,2.0313300809204313,-3.664110697803855
2.2984752581835126,27.947569952482397,-0.06058433295526918,1.9908789765683055,-3.4910363738612227
2.284223722930499,27.4941748196041,-0.06334206054920002,1.9516873962864323,-3.3298646010916095
2.269392284552532,27.04965647483445,-0.06562696882442429,1.9136895147540196,-3.1794763574913274
2.254083239849163,26.61374739105377,-0.06749515903096096,1.8768242572518874,-3.038880420305473
2.238386775328985,26.18619359472915,-0.06899583679667289,1.841034841223059,-2.9071965220934306
2.2223824469922278,25.766753724869734,-0.07017223569686722,1.8062683749457884,-2.783641009090698
2.206140463305376,25.355198178732337,-0.07106240505836495,1.7724755045098464,-2.6675145884604485
2.189722800073193,24.95130833399623,-0.07169988391713657,1.7396101018910815,-2.558191826351781
2.1731841713189906,24.554875838636605,-0.0721142791628874,1.707628988192605,-2.455112118959638
2.1565728764962055,24.165701960973536,-0.07233176277437382,1.6764916871384101,-2.3577719072915553
2.139931541217991,23.783596993409418,-0.07237550051444654,1.64616020472349,-2.2657179455916774
2.123297766083962,23.408379704233745,-0.07226602239015323,1.616598831586711,-2.178541465278755
2.106704696007162,23.039876832601916,-0.07202154349506878,1.5877739652118266,-2.09587310231435
2.0901815206218815,22.677922622409646,-0.07165824246388905,1.5596539495035546,-2.0173784772939465
2.073753914821679,22.32235839130707,-0.07119050362482923,1.5322089296492978,-1.9427543351603869
2.0574444271862697,21.9730321315424,-0.07063112798742394,1.5054107204782512,-1.8717251659967773
2.0412728229649515,21.62979813970766,-0.06999151741534339,1.479232686780379,-1.8040402404367306
2.0252874408073596,21.29252336542909,-0.06901180569415152,1.4535914373810852,-1.7325438005195477
2.0095311968335183,20.96107996724979,-0.06799901146968644,1.4285250685258497,-1.664697783682534
1.9940109702761841,20.635338352927246,-0.0669594803332189,1.4040107081919426,-1.600268540124421
1.978732266895346,20.315174054164416,-0.06589880993493936,1.3800266723544121,-1.5390402190034318
1.9636993812644208,20.000467462366508,-0.06482193468180154,1.356552386757796,-1.4808131979268753
1.9489155407209053,19.69110358167269,-0.06373320047920229,1.3335683149276125,-1.425402669583592
1.9343830331286966,19.386971797895356,-0.06263643075739544,1.3110558918317872,-1.3726373679575972
1.9201033203328755,19.087965662127992,-0.06153498485844106,1.2889974626670544,-1.3223584187282729
1.9060771389565971,18.79398268789654,-0.06043180971789192,1.2673762263020643,-1.2744183003367955
1.8923045899888598,18.504924160831564,-0.059329485653735914,1.2461761829586147,-1.228679903823135
1.87878521843709,18.220694959929375,-0.05823026697035067,1.225382085756083,-1.1850156809490495
1.8655180841660892,17.941203389552427,-0.057136117994872185,1.204979395782576,-1.1433068713505392
1.8525018249118674,17.666361021392554,-0.05604874508531719,1.1849542403902569,-1.1034428005339871
1.8397347123425976,17.396082545686802,-0.05496962508224705,1.1652933744423393,-1.0653202414655747
1.82721470193716,17.13028563103536,-0.05390003061721054,1.145984144265865,-1.028842833322099
1.8149394773625374,16.86889079222466,-0.052841052640377806,1.1270144540880376,-0.9939205516888724
1.8029064899530507,16.611821265507714,-0.05179362048559332,1.1083727347549563,-0.9604692251204611
1.7911129938256574,16.359002890837605,-0.05075851975260958,1.090047914550374,-0.928410093534191
1.7795560771050432,16.110364000590188,-0.049736408252729326,1.072029391948904,-0.8976694043945355
1.7682326896789762,15.865835314348455,-0.04872783023481081,1.0543070101531264,-0.8681780430772084
1.7571396678574276,15.62534983935393,-0.04773322908300395,1.0368710332775317,-0.8398711941823681
1.7462737562675348,15.388842776260766,-0.04675295865519225,1.019712124054341,-0.8126880309031066
1.735631627279866,15.156251429855594,-0.045787293411494186,1.0028213229471459,-0.7865714298538248
1.7252098982290733,14.927515124431338,-0.044836437464964775,0.986190028568121,-0.7614677090279119
1.7150138008949676,14.702696768602525,-0.04382527848378093,0.9687521960302412,-0.7586013667030754
1.705046307530791,14.481873656862831,-0.042848576856884237,0.9514487756192579,-0.7584117203334618
1.6952994656716536,14.265015351034595,-0.041906569744311783,0.9342756228871394,-0.7607536103902326
1.6857652854954137,14.052092345541784,-0.04099934483168645,0.9172287727025354,-0.7654868469104693
1.6764357726787291,13.843076027181443,-0.040126853574267735,0.9003044304308641,-0.7724758541025284
1.6673029583301777,13.63793863684673,-0.03928892336965616,0.8834989637840419,-0.7815893309579769
1.658358926237491,13.436653233051956,-0.03848526874066436,0.8668088953009551,-0.7926999263265104
1.649595837647953,13.239193657118587,-0.03771550160314344,0.8502308954239773,-0.8056839269925367
1.641005953784546,13.045534499888635,-0.0369791406873507,0.8337617761408214,-0.8204209573633561
1.6325816562852942,12.85565106983849,-0.036275620175709566,0.8173984851647803,-0.8367936894397037
1.6243154657394205,12.669519362472087,-0.03560429761449611,0.801138100630037,-0.8546875617903433
1.6162000584812686,12.487116030877178,-0.034964461152042686,0.7849778262822147,-0.8739905062938199
1.6082282817913682,12.30841835733273,-0.03435533615143839,0.7689149871477595,-0.8945926814426748
1.6003931676434933,12.13340422585879,-0.03377609122138777,0.7529470256691181,-0.9163862110286075
1.5926879451269782,11.962052095602797,-0.033225843704829734,0.7370714982960442,-0.9392649270413203
1.5851060516648983,11.794340974958171,-0.03270366466108229,0.7212860725267723,-0.9631241156191181
1.5776411431409059,11.630250396312018,-0.03220858337363436,0.7055885243962835,-0.9878602648856756
1.5702871030405325,11.46976039131901,-0.03173959141222153,0.6899767364124967,-1.0133708134945354
1.563038050706563,11.312851466597898,-0.031295646274468146,0.6744486959450048,-1.0395538986806312
1.5558883488026503,11.159504579745601,-0.03087567462912293,0.6590024940749849,-1.0663081025860528
1.5488326100746321,11.009701115561267,-0.030478575179729683,0.6436363249192131,-1.0935321955849977
1.5418657034950543,10.863422862369294,-0.030103221164427103,0.6283484854457662,-1.1211248752798353
1.5349827598731354,10.720651988325564,-0.02974846250443158,0.6131373758040751,-1.1489844997759102
1.5281791770099078,10.581371017585372,-0.029413127610590555,0.5980015001975889,-1.1770088137664683
1.5214506244764605,10.445562806204297,-0.029096024854167412,0.5829394683335054,-1.2050946658702548
1.5147930480921914,10.313210517634484,-0.028795943704694967,0.567949997490942,-1.233137715562257
1.50820267417971,10.184297597668511,-0.02851165553427388,0.5530319152566655,-1.2610321279220988
1.5016760136736025,10.058807748670578,-0.028241914084051828,0.5381841629862207,-1.2886702542942894
1.49520986616169,9.936724902920474,-0.027985455584751528,0.5234058000581429,-1.3159422968095762
1.4888013239397622,9.81803319487878,-0.027740998518968905,0.5086960090000817,-1.3427359545571849
1.4824477761641057,9.702716932162264,-0.027507243008478115,0.4940541015782962,-1.3689360490244031
1.476146913190568,9.590760564995783,-0.027282869804892206,0.4794795259563094,-1.3944241262343713
1.4698967311944893,9.48214865388066,-0.02706653885666177,0.46497187504476295,-1.4190780328179327
1.4636955371727352,9.376865835189477,-0.026856887419462492,0.4505308961829192,-1.4427714630557618
1.457541954437398,9.27489678436244,-0.026652527670424638,0.436156502313051,-1.4653734737302564
1.451434928720683,9.17622617634072,-0.02645204377927271,0.4218487848323549,-1.4867479634443328
1.445373735022237,9.080838642826684,-0.02625398838112523,0.40760802833317716,-1.5067531129134324
1.4393579853439866,8.988718725909166,-0.026056878386270885,0.3934347274713193,-1.5252407826428935
1.4333876374736478,8.899850827533069,-0.025859190051456257,0.37932960623388295,-1.5420558644019569
1.4274630049968797,8.81421915422628,-0.025659353224788187,0.3652936399121201,-1.557035583050899
1.421584768739915,8.73180765642256,-0.02545574466186044,0.3513280801202142,-1.5700087456450704
1.415753989870038,8.652599961636568,-0.0252466802935917,0.3374344832362391,-1.5807949354378028
1.4099721249111195,8.576579300656892,-0.025030406305700865,0.3236147426740025,-1.5892036495889756
1.4042410429665386,8.503728425826125,-0.024805088864566286,0.3098711254196302,-1.5950333812802064
1.3985630454834574,8.434029520375955,-0.024568802292662374,0.2962063132774922,-1.598070649859663
1.3929408889423405,8.367464097684678,-0.024319515456180402,0.2826234492553511,-1.5980889870451895
1.3873778109164006,8.304012889232258,-0.024055076073732067,0.26912618946135775,-1.5948478937566155
1.3818775600210094,8.243655719956838,-0.02377319258184451,0.25571876075969846,-1.5880917917624844
1.376444430368714,8.186371369686714,-0.02347141309028805,0.24240602419789117,-1.57754900835476
1.3710833012699173,8.13213741936492,-0.023147100812292137,0.22919354381769838,-1.5629308526306747
1.3657996830858494,8.08093008094831,-0.02279740513612417,0.216087659804999,-1.5439308714158466
1.3605997703700965,8.032724010223262,-0.022419227174770143,0.203095563891081,-1.5202244153295177
1.355490503760715,7.9874921024465415,-0.022009178124200064,0.19022537329779557,-1.491468706519548
1.3504796425596197,7.945205271856803,-0.02156352797228063,0.17748619704775412,-1.457303686926197
1.3455758506440378,7.905832217949474,-0.021078140858866546,0.16488818475510916,-1.4173540501340864
1.3407887994323524,7.869339184308217,-0.020548391416658672,0.15244254256016693,-1.3712330347789485
1.336129293292544,7.835689720214123,-0.019969053277328872,0.1401614930406449,-1.3185487998775212
1.3316094253873465,7.804844461831124,-0.01933414589830112,0.12805814507239996,-1.2589145295127648
1.32724277605801,7.776760959229737,-0.018636717835058537,0.11614622537443692,-1.191963835471355
1.3230446723465887,7.75139358854797,-0.0178685318294745,0.10443960664092788,-1.1173735228531372
1.3190325375285494,7.728693605357098,-0.01701959702304175,0.09295155154055938,-1.0348962619118758
1.3152263756885665,7.708609414290638,-0.016077462455071037,0.08169358816777927,-0.9444059070604506
1.3116494616202063,7.691087145612492,-0.015026138139364726,0.07067396555522343,-0.8459575212857554
1.308329345648589,7.67607162746237,-0.013844435526873075,0.05989575748931389,-0.7398614296002277
1.3052993453774784,7.663507793139754,-0.012503392917565635,0.0493549757508374,-0.626763969936285
1.3026008038669548,7.653342411656432,-0.010962185434813466,0.039039645843268564,-0.5077150785927136
1.3002866186363893,7.645525688402895,-0.009161164396190496,0.028931860709228114,-0.38418496345673764
1.2984271730340202,7.640011583006949,-0.00700792779832226,0.01901688186422281,-0.2579766188226119
1.2971222036098955,7.636753956171205,-0.004339632411458596,0.00931030801180365,-0.13098402283528654
1.2965370634176003,7.63568671922571,-0.0007485431737159873,-2.9986746629660083e-05,-0.004823335756814068
