x,y,v_x,v_y,omega
2.375,32.48,0.0,3.948717948717949,-6.653061224489796
2.373194075839985,31.740055181052508,-0.019009728000153932,3.8401748823082476,-6.142436428758049
2.3680918514830815,31.02021647486736,-0.03469789680936084,3.7370746564827817,-5.691175754845748
2.360271136134264,30.319491143916288,-0.047625422651877206,3.6389814587916463,-5.290424887346094
2.3502129244107746,29.63696457822588,-0.058250490226959856,3.5455087063705597,-4.93288442130406
2.338318947139781,28.971791656036288,-0.06694927052033949,3.4563115272041025,-4.61249946466943
2.3249257232542715,28.32318939231329,-0.07403203353765327,3.3710807225116906,-4.324218430854397
2.310315880679149,27.69043062744934,-0.07975578304258434,3.2895378550035157,-4.0638039811697535
2.2947273287700023,27.072838566650816,-0.08433423705369775,3.2114312060336228,-3.8276836798036005
2.2783607286634804,26.46978202285895,-0.08794576406758559,3.1365324128281094,-3.612831171566329
2.2613856065490796,25.88067124736878,-0.09073973187347321,3.064633644963149,-3.416671017229
2.243945378631331,25.304954255807743,-0.09284161462914815,2.995545213574104,-3.2370020068469882
2.226161498641929,24.742113575011665,-0.09435712210139872,2.929093531647774,-3.071935007921384
2.2081368943949236,24.191663350112663,-0.09537555418286725,2.865119362025941,-2.919842321824587
2.189958825622793,23.653146761901596,-0.09597253815534539,2.8034763033536723,-2.779316207862994
2.171701268696122,23.12613371300929,-0.09621227159908888,2.7440294744601,-2.6491347521832895
2.1534269129860504,22.610218748215004,-0.09614936745429545,2.686654365479738,-2.5282336527857447
2.1351888372206833,22.105019179639335,-0.0958303774443067,2.631235830053639,-2.415682793993178
2.117031921199417,21.61017339200741,-0.09529505435849746,2.577667197650777,-2.3106667168930204
2.0989940378970213,21.125339306799226,-0.09457740145619331,2.52584948875118,-2.212468273395436
2.081107062730144,20.650192987103356,-0.09370654766883176,2.475690718573778,-2.120454893090719
2.063397730127119,20.184427367486762,-0.09270747973143068,2.4271052773903934,-2.03406700331753
2.045888362194292,19.727751095284145,-0.09160165640358735,2.3800133773739875,-1.9528082307249783
2.028597489942528,19.27988747147276,-0.09040752519393216,2.3343405574826974,-1.8762370823790913
2.0115403840189128,18.840573480792088,-0.08914095821254431,2.290017239155934,-1.8039598601214777
1.9947295090186268,18.409558902040345,-0.08781562073783347,2.246978326651888,-1.735624606489929
1.9781749131028088,17.986605490568955,-0.0864432836391974,2.2051628467311857,-1.6709159164077374
1.961884562719061,17.571486225932773,-0.08503408882130413,2.1645136231233617,-1.6095504778589547
1.945864630631893,17.163984618462386,-0.08359677525415009,2.124976981828086,-1.5512732283046224
1.9301197441570057,16.763894069225543,-0.082138871849927,2.0865024838228825,-1.4958540327651073
1.9146531994047795,16.371017278454293,-0.08066686238403367,2.0490426821902816,-1.4430848051635619
1.8994671464335737,15.985165698046135,-0.07918632678655195,2.012552901053475,-1.392777007379334
1.8845627494594177,15.606159024213063,-0.0777020624150912,1.9769910340314754,-1.3447594710396846
1.8699403256385803,15.23382472676094,-0.0762181883305675,1.9423173602014019,-1.2988764958143122
1.8555994654116668,14.867997611841375,-0.07473823511062752,1.9084943757940207,-1.2549861852139321
1.8415391369546046,14.508519415335716,-0.07326522233213181,1.8754866400550172,-1.2129589869071733
1.8277577769087325,14.155238424311552,-0.07180172551915019,1.8432606338835498,-1.1726764095810582
1.8142533692473828,13.808009124241142,-0.07034993407400567,1.8117846300155005,-1.1340298925582748
1.801023513870125,13.466691869892454,-0.06891170147607778,1.781028573654888,-1.0969198078942497
1.7880654862902627,13.131152578000524,-0.06748858883826077,1.7509639725759585,-1.0612545776264426
1.7753762895896077,12.801262440002631,-0.06608190274758124,1.721563795822922,-1.026949891333261
1.7629526996515694,12.47689765327797,-0.06469272817913713,1.692802380226152,-0.9939280112590223
1.7507913045446535,12.157939169473195,-0.06332195715681962,1.6646553440346155,-0.9621171540387823
1.7388885388097781,11.844272458621507,-0.06197031373660555,1.6370995070358014,-0.9314509395655343
1.7272407133032703,11.535787287876325,-0.06063837580558095,1.6101128165977012,-0.9018678988258673
1.7158440411603573,11.232377513782811,-0.05932659411982042,1.5836742791235041,-0.8733110336247553
1.7046946603692215,10.933940887102423,-0.05803530894476654,1.557763896459535,-0.8457274220556212
1.69378865338141,10.640378869288842,-0.05676476461114387,1.532362606841328,-0.8190678643730551
1.6831220641290026,10.351596459788698,-0.055515122256300814,1.507452230002298,-0.7932865646132705
1.6726909127711709,10.067502033408523,-0.05428647098403229,1.4830154161047981,-0.7683408438988688
1.662500021654775,9.78800889220156,-0.052986067083293835,1.459017649231636,-0.7417158270975839
1.6525531667916509,9.513033311708842,-0.051717668318014984,1.4354621454285679,-0.7162526394874275
1.6428443277298772,9.242492706571632,-0.0504806375953918,1.412333698121029,-0.6918872453117748
1.6333676073296364,8.976307317506713,-0.04927431398608999,1.3896177657202227,-0.6685598066550255
1.624117235708747,8.7144000884417,-0.04809801886537674,1.3673004349641324,-0.646214364302872
1.6150875731027354,8.456696550387313,-0.04695106119790161,1.345368386660999,-0.624798546112337
1.6062731117917206,8.20312471160755,-0.045832742075941124,1.3238088636522807,-0.6042633002457644
1.5976684772268646,7.953614953681928,-0.0447423586067535,1.3026096408279746,-0.584562650903272
1.589268428472144,7.7080999330843305,-0.04367920723241158,1.2817589970414793,-0.5656534744361019
1.5810678580623558,7.466514487930898,-0.04264258655483159,1.2612456887841264,-0.5474952939429053
1.5730617913653475,7.228795549574741,-0.041631799729466255,1.2410589254912103,-0.5300500906457581
1.5652453855251545,6.99488205874869,-0.040646156483091986,1.2211883463619666,-0.5132821305156718
1.5576139280528687,6.764714885978673,-0.03968497480412542,1.201623998585564,-0.49715780477116545
1.5501628351234347,6.538236756010022,-0.038747582347814384,1.1823563168739306,-0.4816454830104119
1.542887649629025,6.31539217600703,-0.03783331759333981,1.1633761042101778,-0.46671537785954836
1.5357840390330604,6.096127367302845,-0.03694153078523501,1.144674513728621,-0.45233942012870343
1.5288477930631517,5.88039020049197,-0.03607158468748663,1.1262430316489946,-0.4384911435646617
1.5220748212762012,5.668130133671937,-0.03522285517515044,1.1080734611934668,-0.4251455783761976
1.5154611505244653,5.459298153653606,-0.034394731685227914,1.0901579074205523,-0.4122791527861314
1.509002922347513,5.253846719971726,-0.0335866175458487,1.0724887629150388,-0.39986960193411963
1.5026963903116155,5.051729711538421,-0.0327979302004402,1.0550586942776308,-0.3878958835169907
1.4965379173151319,4.852902375792635,-0.03202810134149423,1.037860629362217,-0.3763380996098691
1.4905239728758508,4.657321280208034,-0.0312765769667261,1.0208877452125198,-0.36517742416209137
1.484651130413973,4.46494426603077,-0.030542817368829918,1.0041334566534137,-0.35439603570763234
1.4789160645424135,4.275730404126627,-0.029826297068637854,0.9875914054954449,-0.3439770548709593
1.4733219801375,4.089845009464749,-0.029058801930453668,0.9690969593664033,-0.3770169708538807
1.467869082344528,3.9074634544444216,-0.028340122206090702,0.9507088829528513,-0.4114415905876225
1.4625482388986226,3.728565789634164,-0.02766875617186044,0.9324244308393171,-0.44714540818782966
1.4573506045311713,3.5531325770260267,-0.027043184538156653,0.9142409650358239,-0.4840248101982453
1.4522676239874517,3.3811448699345377,-0.026461873816785157,0.896155951716701,-0.5219778424846897
1.4472910344392504,3.212584193479735,-0.025923279322174763,0.8781669583338617,-0.5609039801076099
1.4424128673597687,3.047432525583492,-0.025425847830264404,0.860271651100264,-0.6007038991735981
1.4376254499238619,2.885672278408972,-0.02496801991612322,0.8424677928420506,-0.6412792496559744
1.4329214059929023,2.727286280173008,-0.024548231988714184,0.824753241220746,-0.6825324281561707
1.4282936567403044,2.5722577572606937,-0.024164918038633527,0.8071259473299347,-0.7243663495508922
1.4237354209709823,2.4205703165703127,-0.023816511112123677,0.7895839546740823,-0.7666842164343758
1.4192402151857273,2.2722079280149146,-0.023501444522141233,0.772125398540648,-0.8093892852199608
1.4148018534396738,2.127154907104412,-0.02321815280473828,0.7547485057804281,-0.8523846277099549
1.4104144470427102,1.985395897528825,-0.022965072426457105,0.737451595015222,-0.8955728868766377
1.4060724041488442,1.8469158536592118,-0.022740642245816765,0.7202330772965053,-0.9388560255193089
1.4017704292812125,1.7117000228778743,-0.022543303729253113,0.7030914572439005,-0.9821350663715449
1.3975035228396258,1.5797339276433995,-0.02237150091902875,0.6860253346979568,-1.0253098221281631
1.3932669806382942,1.4510033471889159,-0.0222236801476184,0.6690334069281907,-1.0682786137415843
1.389056393522734,1.3254942987435,-0.022098289489858373,0.6521144714446223,-1.1109379752010071
1.3848676471168326,1.203193018156675,-0.021993777940680834,0.6352674294693132,-1.1531823428537016
1.380696921753732,1.0840859397943738,-0.0219085943024847,0.6184912901338383,-1.1949037271543648
1.3765406926475994,0.9681596755611181,-0.021841185762069126,0.6017851754793891,-1.2359913645345342
1.3723957303676144,0.8554009928874642,-0.02178999613251,0.585148326348542,-1.2763313468682993
1.3682591016806454,0.7457967915035262,-0.021753463730323393,0.5685801092718608,-1.315806225772111
1.3641281708352626,0.6393340787981678,-0.021730018852652362,0.5520800244687495,-1.354294588715015
1.3600006013670312,0.5359999435390783,-0.02171808081294298,0.5356477151006188,-1.3916706036316642
1.3558743585135806,0.4357815277006125,-0.0217160544865371,0.5192829779358585,-1.4278035284259218
1.3517477123379398,0.33866599611368997,-0.02172232630968194,0.5029857756106865,-1.4625571814317657
1.3476192416702026,0.24464050361435596,-0.021735259666499113,0.48675625069809275,-1.4957893685676842
1.3434878389909966,0.15369215932425817,-0.021753189588302482,0.47059474182922634,-1.5273512625925778
1.3393527163956878,0.06580798764641571,-0.021774416678106697,0.45450180214807273,-1.5570867295638222
1.335213412796069,-0.019025114497686957,-0.021797200159985694,0.4384782204214529,-1.584831597339905
1.3310698025367773,-0.10082042472910047,-0.021819749937822323,0.4225250451723852,-1.6104128608034283
1.3269221056272817,-0.17959144718475528,-0.021840217530552458,0.40664361225552986,-1.6336478184683376
1.3227708998174588,-0.2553519701020974,-0.021856685730743203,0.39083557634810273,-1.654343135370859
1.3186171347761295,-0.3281161298094091,-0.021867156809564473,0.3751029468867529,-1.6722938277627595
1.314462148668241,-0.3978984820222138,-0.02186953906294544,0.35944812903751766,-1.6872821663266417
1.3103076874686048,-0.4647140814627875,-0.021861631459541408,0.34387397033696115,-1.6990764967052294
1.3061559273995964,-0.5285785709443402,-0.021841106108968732,0.3283838136793873,-1.7074299795011925
1.3020095009387835,-0.5895082811905823,-0.021805488215378192,0.312981557333665,-1.7120792571746541
1.2978715269127001,-0.6475203427872742,-0.021752133111815102,0.2976717226315125,-1.712743063336909
1.293745645278762,-0.7026328117722755,-0.021678199877007438,0.28245952984218703,-1.7091208021171198
1.2896360573044272,-0.7548648104430882,-0.021580620905463106,0.26735098248216194,-1.7008911434719098
1.2855475719901432,-0.8042366849616869,-0.021456066613316616,0.25235295981884504,-1.6877107073042186
1.2814856597645596,-0.8507701812107058,-0.021300904182299255,0.23747331648662046,-1.6692129491291618
1.2774565147296708,-0.8944886400179115,-0.02111114881653045,0.22272098674713717,-1.6450074186996864
1.2734671270868252,-0.9354172121856053,-0.020882405318686143,0.20810608870229197,-1.6146796490647086
1.2695253678923095,-0.973583092538675,-0.020609796728847912,0.1936400202773605,-1.5777920592570363
1.2656400890730521,-1.0090157701392997,-0.02028787505280947,0.1793355334134079,-1.5338864364160043
1.2618212428439881,-1.0417472884682368,-0.019910506305760165,0.16520676478592075,-1.4824888259131932
1.2580800265829741,-1.0718125041161244,-0.01947071749438794,0.1512691894024061,-1.423118030303858
1.2544290622919612,-1.0992493245199881,-0.018960485568907576,0.13753944642775137,-1.355299431391194
1.2508826247563347,-1.1240988934901992,-0.01837043585873927,0.12403496378500671,-1.2785865249547927
1.2474569406386844,-1.1464056767125896,-0.017689396958633415,0.11077328066119137,-1.1925933672426803
1.244170593994452,-1.1662173778396578,-0.016903725612232925,0.09777094172902448,-1.0970419124850233
1.2410450952241512,-1.1835845915034753,-0.015996261443565,0.08504183367959171,-0.9918284843660833
1.2381057052394386,-1.1985600813494557,-0.01494468576393532,0.07259490154127497,-0.8771122173500678
1.23538266279328,-1.211197581702308,-0.01371891893247089,0.06043141796241687,-0.7534229341891745
1.2329130566959754,-1.2215501091503498,-0.01227693472336833,0.048542555174871854,-0.6217730272735995
1.2307437606096119,-1.229668023539027,-0.0105577609225624,0.03690917523223727,-0.4837344243720179
1.2289362711236733,-1.2355976473783485,-0.008468444192581361,0.02550791781324327,-0.34141140624575994
1.2275757093068804,-1.2393825236829699,-0.005853259142081284,0.014332885393279968,-0.19722232237088083
1.2267934396488107,-1.2410738920750006,-0.0023811583112843416,0.0034709924175535256,-0.0534354534542171
