x,y,v_x,v_y,omega
2.375,32.48,0.0,2.41025641025641,-6.285714285714286
2.373925926815498,32.0028259704192,-0.010740731845019861,2.361483885551546,-5.959958064989021
2.3708347464665454,31.53524331994935,-0.02017107164450655,2.314342619146981,-5.658890180730523
2.3659734225841293,31.076935349898452,-0.028442167179654504,2.2687370813619907,-5.380023255352315
2.3595606088761993,30.62760363964839,-0.035685969899644496,2.224580021138592,-5.121172622973483
2.3517902128174737,30.18696649110038,-0.04201799068761321,2.1817914643415306,-4.880413449052336
2.342834453207924,29.754757557871798,-0.047539605407884794,2.1402978679442826,-4.656044804687289
2.3328464932646815,29.330724630962372,-0.05233999402453687,2.1000314011499963,-4.44655941747157
2.32196271592134,28.914628557788554,-0.05649777940887964,2.0609293305881793,-4.250618084463991
2.3103046961347644,28.506242275588615,-0.060082418456874766,2.0229334914112167,-4.067027936083786
2.2979809155162463,28.105349943473357,-0.06315538772830885,1.9859898297413427,-3.8947238977622662
2.285088256971695,27.711746160024596,-0.06577119771720293,1.9500480047462914,-3.7327528200421387
2.2717133108497998,27.32523525546586,-0.06797826350174957,1.9150610408410773,-3.5802598456252097
2.257933519050864,26.945630649155145,-0.06981965448760796,1.8809850222660647,-3.4364766596515546
2.2438181794077012,26.57275426456012,-0.07133374194402042,1.8477788236841632,-3.300711331754389
2.2294293292324117,26.2064359950364,-0.07255475980887514,1.8154038715530427,-3.17233950857729
2.2148225240881407,25.84651321468881,-0.07351329163383151,1.7838239319228746,-3.0507967560541
2.2000475254824967,25.492830329393215,-0.07423669442261141,1.7530049210330774,-2.9355718838239486
2.185148909201853,25.145238363723017,-0.0747494683838257,1.7229147356689014,-2.8262011112199774
2.1701666043438297,24.803594580084294,-0.0750735801964066,1.6935231007183371,-2.7222629565257055
2.1551363717031657,24.46776212683611,-0.07522874621023395,1.6648014317634772,-2.623373749573655
2.1400902289792088,24.13760971257325,-0.07523268102933621,1.6367227108651103,-2.529183683004758
2.125056829265017,23.813011304089905,-0.07510131611257947,1.6092613739683308,-2.4393733301992
2.1100617984190384,23.493845845834986,-0.07484899234720811,1.5823932085808778,-2.353650568496112
2.0951280361863045,23.17999699892058,-0.07448862998012926,1.5560952605631706,-2.2717478552146275
2.0802759853071633,22.871352897961636,-0.07403187881128122,1.5303457490262637,-2.1934198114733805
2.0655238723113047,22.56780592421235,-0.07348925114730818,1.5051239884665772,-2.1184410751230067
2.050887923229623,22.26925249362784,-0.07287023966950669,1.4804103173785816,-2.046604389454701
2.036397253114468,21.975599354314937,-0.07203646148204257,1.4561210757503926,-1.9731896852460054
2.0220771722856212,21.686756557186904,-0.07116434680642461,1.432306895529977,-1.9031295421750722
2.0079347841955135,21.40263080626352,-0.0702595340946541,1.4089506137038377,-1.836230780917443
1.9939761225375863,21.12313215776799,-0.06932708248461757,1.3860358712514345,-1.7723134663676212
1.9802062612891365,20.848173864145014,-0.06837152999988184,1.3635470649783548,-1.7112098538140337
1.9666294137256082,20.57767222736114,-0.06739694563540048,1.341469302860393,-1.6527634303723557
1.9532490215607243,20.311546460815762,-0.06640697601343919,1.3197883625934028,-1.5968280420383332
1.9400678352381902,20.04971855924894,-0.06540488721190275,1.2984906530747848,-1.5432670978009053
1.9270879862874282,19.792113176084477,-0.06439360229571593,1.277563178569862,-1.4919528432033617
1.9143110525559062,19.538657507693426,-0.06337573501950389,1.2569935053406311,-1.4427656965722295
1.9017381170424275,19.289281184105775,-0.06235362011528386,1.2367697305358867,-1.3955936418658113
1.889369820977784,19.0439161657361,-0.06132934053115054,1.2168804531608304,-1.3503316727398122
1.8772064117301586,18.80249664572389,-0.06030475194510421,1.1973147469613097,-1.3068812829974765
1.865247786051503,18.564958957520453,-0.05928150484145057,1.1780621350730336,-1.2651499990957384
1.8534935291268653,18.33124148738318,-0.058261064404926934,1.159112566299704,-1.2250509508253622
1.8419429498404423,18.10128459146359,-0.05724472845930369,1.1404563928961822,-1.1865024766790728
1.830595112629294,17.875030517199598,-0.05623364365217858,1.1220843497437416,-1.1494277607734567
1.8194488662575166,17.652423328743794,-0.055228820065595215,1.1039875348142787,-1.1137544985033228
1.8085028698096963,17.433408836179446,-0.05423114441260698,1.0861573908292077,-1.079414588385922
1.7977556161721702,17.217934528293853,-0.05324139196265322,1.068585688026741,-1.0463438478009983
1.7872054532435713,17.00594950869533,-0.05226023732333736,1.0512645079584668,-1.0144817505546158
1.776850603091972,16.797404435075222,-0.05128826419265625,1.0341862282426542,-0.9837711843931836
1.7666891792543349,16.592251461430195,-0.050325974183715864,1.017343508207624,-0.954158226771771
1.7567192023546334,16.390444183073043,-0.04937379481329753,1.0007292753638817,-0.9255919373400416
1.7469386141996885,16.1919375842718,-0.04843208673615207,0.9843367126485726,-0.8980241657520245
1.7373532546903332,15.996882584158278,-0.047421508357400485,0.9662132884866395,-0.9099880701122798
1.7279659650817454,15.805440457765194,-0.04645138772847609,0.9482079754442108,-0.9239292212659264
1.7187687257392301,15.617587909424952,-0.04552100569667715,0.9303175079581921,-0.9397231352543435
1.7097536682506695,15.433302282971344,-0.04462956918892878,0.9125387565779022,-0.9572484070337612
1.7009130894976883,15.252561535034719,-0.043776218340883036,0.894868722788333,-0.9763864330645196
1.6922394643614838,15.075344209325088,-0.04296003302116333,0.8773045343079885,-0.9970211415242729
1.6837254571800666,14.901629411809704,-0.04218003879300962,0.8598434408458339,-1.0190387290090592
1.6753639320655802,14.731396786694624,-0.04143521235185411,0.8424828103049691,-1.0423274026095146
1.66714796218301,14.564626493121757,-0.040724486473846,0.8252201254237116,-1.0667771262648968
1.6590708380849235,14.4012991824946,-0.04004675450701963,0.8080529808478687,-1.0922793703050133
1.6511260751908579,14.241395976346698,-0.03940087443363731,0.7909790806311426,-1.118726863089613
1.643307420494573,14.084898444667196,-0.03878567252921085,0.7739962361638717,-1.1460133436461635
1.635608858577573,13.931788584597438,-0.03819994664078895,0.757102364533716,-1.1740333141900354
1.6280246170030674,13.782048799411516,-0.03764246910426673,0.740295487325491,-1.2026817913856855
1.6205491711608704,13.635661877691849,-0.037111989317704396,0.7235737298711817,-1.2318540551731576
1.613177248630609,13.492610972608201,-0.03660723598490838,0.7069353209652977,-1.261445393940723
1.6059038331280377,13.352879581205151,-0.03612691904080599,0.6903785930652052,-1.2913508447713289
1.5987241680972164,13.216451523598533,-0.03566973126740534,0.6739019830009793,-1.3214649274272292
1.5916337600098411,13.083310921975965,-0.03523434960634983,0.6575040332247151,-1.3516813706632547
1.584628381432084,12.953442179289969,-0.03481943617121998,0.6411833936352309,-1.381892829374112
1.5777040739189847,12.826829957524367,-0.03442363895977367,0.6249388240207628,-1.4119905909844592
1.570857150796686,12.70345915540532,-0.0340455922632147,0.608769197169718,-1.441864269381883
1.5640841998937343,12.583314885417554,-0.033683916766301385,0.5926735027079313,-1.4714014845721393
1.557382086284243,12.466382449973732,-0.03333721932861078,0.5766508517302993,-1.5004875261031643
1.5507479551080305,12.352647316570174,-0.03300409243351409,0.5607004823052999,-1.5290049981599596
1.5441792345359446,12.242095091745355,-0.03268311328734411,0.5448217659429007,-1.5568334440776368
1.5376736389525316,12.134711493638076,-0.03237284254678745,0.5290142151299001,-1.583848947856808
1.531229172433088,12.030482322919884,-0.03207182264764744,0.5132774920520125,-1.6099237100975987
1.5248441325980515,11.929393431850766,-0.03177857570271948,0.4976114186391825,-1.6349255956012674
1.5185171149347285,11.83143069117786,-0.03149160093050977,0.48201598808988116,-1.6587176497299743
1.5122470176846976,11.736579954563709,-0.03120937156980049,0.46649137805162216,-1.6811575804777532
1.5060330474049688,11.644827020192672,-0.030930331227486542,0.4510379656587391,-1.7020972031068795
1.499874725322369,11.556157589161344,-0.030652889598512676,0.43565634465453823,-1.721381844168957
1.4937718946138268,11.470557220210583,-0.030375417486909792,0.42034734485308456,-1.7388497017954767
1.4877247287605777,11.388011280302717,-0.030096241045579432,0.40511205422558016,-1.7543311593598567
1.4817337411420977,11.308504890487498,-0.02981363513921967,0.3899518439265943,-1.7676480500551135
1.4757997960562674,11.232022866434374,-0.029525815719085163,0.37486839660463955,-1.7786128707015718
1.4699241213764225,11.158549652937207,-0.029230931079362938,0.35986373836703406,-1.7870279443432007
1.4641083230843153,11.08806925162187,-0.028927051841710537,0.3449402747863215,-1.7926845331151597
1.4583544019516141,11.020565141009435,-0.02861215948529817,0.3301008313380229,-1.795361905759719
1.4526647726828794,10.95602018801194,-0.02828413320205028,0.3153486986369033,-1.7948263684438555
1.4470422858819805,10.894416549870677,-0.027940734806938088,0.3006876827757209,-1.7908302737707813
1.4414902532647504,10.835735565498773,-0.027579591365362865,0.28612216094330484,-1.7831110319020305
1.4360124766177194,10.77995763517713,-0.027198175104948465,0.2716571422731123,-1.771390160680866
1.430613281102877,10.727062087600029,-0.02679378004347537,0.2572983334978877,-1.7553724302186104
1.4252975536418973,10.677027033411697,-0.02636349456632206,0.2430522083854287,-1.7347451838976615
1.4200707872961598,10.62982920467363,-0.025904168891052824,0.22892607899523043,-1.7091779554254143
1.414939132816161,10.585443780237263,-0.025412375908935296,0.21492816536842624,-1.678322554997537
1.409909458904644,10.543844197888294,-0.024884363206234657,0.20106765812125055,-1.6418138730643936
1.4049894232836242,10.505001955551322,-0.024315993003962495,0.18735476524848432,-1.5992717560695604
1.4001875574738127,10.468886406041154,-0.023702665094150817,0.17380072985320913,-1.550304455741858
1.3955133694396669,10.435464553155036,-0.023039215247309182,0.16041779900797468,-1.4945143551693867
1.3909774701672775,10.404700861753572,-0.022319777476586155,0.14721911500665197,-1.4315069444042208
1.3865917332066806,10.376557101395182,-0.021537592129381517,0.1342184885772328,-1.360904363870083
1.3823695008174939,10.350992252572372,-0.020684731762485205,0.1214299996508715,-1.2823652442516877
1.3783258575153883,10.327962516857749,-0.01975170125857308,0.10886735749536719,-1.1956129856903597
1.3744780028947143,10.307421486562358,-0.018726844948164956,0.09654294545854508,-1.100474863931825
1.3708457726295404,10.289320542765338,-0.01759545770357309,0.08446649251165979,-0.9969340304422483
1.3674523825817315,10.273609554795783,-0.016338442774517053,0.0726433871838878,-0.8851948042713476
1.3643255110332877,10.26023793229934,-0.014930272709921255,0.061072837780538916,-0.7657573265104523
1.3614988989620855,10.249156001099731,-0.013335848002101438,0.04974647421555113,-0.6394890343673284
1.3590147688958243,10.2403164841385,-0.011505452660510984,0.03864869539675512,-0.5076668540766637
1.3569276479598729,10.233675484699528,-0.00936575669900234,0.027761298992944786,-0.3719489062506046
1.3553110733970941,10.22919157493336,-0.00679998892878463,0.01707779866874127,-0.23422822973374016
1.3542725169520742,10.226819154365405,-0.0035855755214137574,0.006646407010805065,-0.09633859304512665
