x,y,v_x,v_y,omega
2.375,32.48,0.0,3.333333333333333,-4.326530612244898
2.3740165165252733,31.85427055992491,-0.010352457628700263,3.2532923516675982,-4.042565011691136
2.3712154035619277,31.243430384904986,-0.01913294198546659,3.1766042274894923,-3.7865340173261948
2.366873595602376,30.64686370515273,-0.026570299694024895,3.1030450330605586,-3.5548806624863643
2.3612279753382124,30.063995341649047,-0.03285728203401372,3.0324114248729384,-3.3445829301135035
2.3544816373286896,29.494287033037782,-0.03815680227674852,2.9645181394561795,-3.1530622785738824
2.3468090759087663,28.93723420118304,-0.04260700214350065,2.8991958800674267,-2.9781096063500385
2.3383605000342396,28.392363088277385,-0.04632537548309588,2.83628951893944,-2.817824992452662
2.3292654359856835,27.859228211074026,-0.04941214081749484,2.775656556885399,-2.6705683906711046
2.3196357464720605,27.337410087665987,-0.051953011957484675,2.717165794778195,-2.5349190870190537
2.3095681693876884,26.826513199969124,-0.05402148366748122,2.6606961809782352,-2.4096422076664767
2.299146459594121,26.326164161202005,-0.055680724685864345,2.606135806044091,-2.2936609295116535
2.288443201368914,25.836010062572463,-0.05698515136894295,2.553381021635289,-2.186033326211123
2.277521346647831,25.3557169773572,-0.057981740431929406,2.5023356648411617,-2.085932999899277
2.266435524176355,24.88496860380436,-0.058711127688870816,2.4529103725571413,-1.9926328183452169
2.2552331566399375,24.423465030956677,-0.059208530589207754,2.4050219732079636,-1.9054912102670367
2.2439554163450874,23.97092161370287,-0.05950452514605951,2.3585929452531516,-1.8239405764226342
2.2326380447544225,23.52706794520917,-0.059625702124095285,2.3135509336279148,-1.7474774572892364
2.221312056888629,23.091646916431344,-0.059595222778995205,2.2698283166649467,-1.6756541644532708
2.2100043481016467,22.664413853716113,-0.05943329076818723,2.227361817179599,-1.6080716359349299
2.1987382178588413,22.245135726612148,-0.059157553892923306,2.186092152335852,-1.5443733183890465
2.187533822779998,21.833590418960227,-0.05878344693700461,2.145963717684361,-1.4842399136334408
2.1764085692533506,21.429566057146424,-0.058324484922443645,2.1069243014082866,-1.4273848549480679
2.165377454306611,21.032860390104158,-0.05779251451691775,2.068924825352407,-1.3735504013820619
2.1544533620745483,20.643280216258454,-0.05719793003110967,2.0319191098655267,-1.3225042569354595
2.143647322080502,20.260640853133495,-0.05654985937990463,1.995863659870878,-1.274036636762903
2.1329687346113944,19.884765645804663,-0.05585632450544047,1.9607174699062944,-1.2279577151229373
2.122425567679887,19.515485510778813,-0.05512438003674344,1.9264418461552923,-1.1840954001812234
2.112024529407028,19.152638512239733,-0.05436023336177079,1.8930002437297517,-1.1422933893781821
2.101771219102576,18.796069467906655,-0.05356934879035636,1.8603581176711101,-1.1024094662189836
2.0916702598506074,18.445629582027955,-0.05275653807247158,1.8284827863151716,-1.0643140052999893
2.081725415010621,18.101176103275108,-0.05192603919054148,1.7973433058200887,-1.0278886573634027
2.0719396907072696,17.762572005517015,-0.051081585055264694,1.7669103547914171,-0.9930251903432554
2.0623154260953083,17.429685689646575,-0.05022646349169218,1.7371561280553212,-0.9596244658708957
2.0528543729422655,17.102390704801635,-0.0493635696982353,1.7080542387335134,-0.9275955336609298
2.043557765862953,16.780565487474924,-0.04849545218926603,1.679579627863423,-0.8968548286923674
2.0344263843617383,16.464093117143715,-0.04762435308667655,1.6517084808861424,-0.8673254582110322
2.0254606076857407,16.152861087172063,-0.04675224350277065,1.6244181503943913,-0.8389365673710246
2.0166604633609877,15.846761089848137,-0.045880854652524276,1.5976870845942963,-0.8116227738570517
2.008025670170764,15.545688814517696,-0.04501170524456691,1.5714947609892895,-0.7853236631286766
1.9995556762381834,15.249543757863648,-0.04414612562470313,1.5458216248427874,-0.759983337037563
1.9912496927911092,14.958229045461753,-0.04328527908134051,1.5206490320192894,-0.7355500095191807
1.9831067241150087,14.671651263814947,-0.04243018066708762,1.4959591958418215,-0.7119756438758298
1.9751324265996426,14.389721528927005,-0.04150979317887072,1.4717222240312435,-0.6871656536870399
1.9673314311854682,14.112354036958529,-0.040605948022964924,1.4479355861632435,-0.6634471961920414
1.959700578352659,13.839464701699256,-0.039718818638184175,1.424583732355414,-0.6407596633651517
1.952236682752882,13.570972326508869,-0.0388485034647309,1.4016517959644355,-0.6190464488372157
1.9449365465148893,13.306798478093189,-0.037995035882561465,1.379125555779552,-0.598254641600134
1.937796970773881,13.046867367227424,-0.03715839297015989,1.3569914007021704,-0.5783347462856778
1.9308147656353825,12.79110573597216,-0.03633850322455884,1.3352362967216547,-0.5592404274467321
1.9239867587592823,12.539442750962284,-0.03553525336596864,1.3138477560138972,-0.5409282755432424
1.9173098027276736,12.291809902380571,-0.03474849433517551,1.2928138080041365,-0.5233575925774303
1.9107807813408617,12.048140908256528,-0.033978046578636054,1.2721229722489509,-0.5064901955372646
1.9043966149689486,11.808371623757445,-0.033223704704659046,1.2517642330045422,-0.4902902359972156
1.8981542650715262,11.572439955162867,-0.0324852415839978,1.2317270153594482,-0.4747240343939586
1.8920507379849052,11.340285778235835,-0.03176241195938097,1.2120011628198346,-0.4597599276445538
1.8860830880647863,11.111850860724712,-0.031054955620816834,1.1925769162446018,-0.4453681289079589
1.8802484202621157,10.887078788748074,-0.030362600196771145,1.173444894035799,-0.43152059840951246
1.874543892200908,10.665914896832422,-0.029685063605415906,1.154596073497356,-0.4181909243539707
1.8689667158189214,10.448306201388384,-0.029022056204968436,1.1360217732819846,-0.4053542130472922
1.8635141586250779,10.23420133742562,-0.028373282677592888,1.1177136368523533,-0.3929869874319518
1.8581835446213595,10.023550498320255,-0.02773844367734006,1.099663616888323,-0.38106709331628297
1.852972254931449,9.816305378461024,-0.027117237269085537,1.0818639605772509,-0.36957361264619376
1.8478777281735643,9.612419118611918,-0.026509360182330657,1.0643071957291232,-0.35848678322847116
1.8428974606106476,9.411846253839702,-0.025914508901002907,1.0469861176626363,-0.3477879243695491
1.8380290061072935,9.214542663864577,-0.02533238060798651,1.0298937768123404,-0.3374593679427607
1.8332699759194409,9.020465525701397,-0.02476267400099037,1.0130234670106213,-0.3274843944413208
1.8286180383398705,8.829573268467232,-0.024205089994484848,0.9963687144016535,-0.31784717361412734
1.8240755881778457,8.642024910264226,-0.023610174868935616,0.9778245298405274,-0.3502851132254139
1.8196421211914589,8.457989716636803,-0.02305789867197806,0.9593880346586693,-0.3841485550881578
1.815309647735662,8.27744749220155,-0.02254708507325044,0.9410564330808353,-0.4193321204792756
1.8110704048732709,8.100378562485563,-0.022076524004554208,0.9228270376137606,-0.4557323693314682
1.8069168623783616,7.926763753674418,-0.02164497594185862,0.9046972656614659,-0.49324757083224985
1.8028417279657982,7.756584372968106,-0.021251175769334944,0.8866646365102266,-0.5317774770788932
1.7988379518237134,7.589822189475207,-0.020893836252610792,0.8687267686781952,-0.5712230988247484
1.794898730520892,7.426459415576183,-0.020571651145506745,0.8508813776273304,-0.6114864823426884
1.7910175103566577,7.26647868868697,-0.020283297951698788,0.8331262738380503,-0.6524704864140689
1.7871879902170447,7.10986305335361,-0.020027440360015945,0.8154593612499307,-0.6940785584261981
1.7834041239977494,6.956595943607756,-0.019802730369408085,0.7978786360748575,-0.7362145085274326
1.7796601226515427,6.806661165511372,-0.019607810116978625,0.7803821859923534,-0.7787822807460907
1.7759504559155446,6.660042879816761,-0.019441313419844324,0.7629681897403928,-0.8216857199267574
1.7722698537719608,6.516725584665124,-0.01930186703893211,0.7456349171189501,-0.8648283332744674
1.7686133076946007,6.376694098243178,-0.019188091670121622,0.7283807294278599,-0.9081130452228302
1.7649760717327299,6.239933541312819,-0.01909860266536083,0.7112040803653867,-0.9514419442554065
1.7613536634835893,6.106429319523276,-0.019032010483487155,0.6941035174192877,-0.9947160202094456
1.7577418650052512,5.976167105408564,-0.018986920867441047,0.6770776837882081,-1.0378348904762278
1.7541367237224186,5.849132819965266,-0.018961934741323426,0.6601253208780977,-1.0806965133813893
1.7505345533793515,5.725312613696367,-0.01895564781727774,0.6432452714261017,-1.1231968868803133
1.74693193509636,5.60469284699613,-0.018966649898423015,0.6264364833132317,-1.1652297305364825
1.7433257185893125,5.487260069738337,-0.018993523859970624,0.6096980141372297,-1.2066861485631057
1.7397130236154297,5.3730009999155826,-0.019034844286163314,0.5930290366286127,-1.2474542714989578
1.7360912417133518,5.261902501160279,-0.019089175735710263,0.5764288450061706,-1.2874188738570047
1.732458038311186,5.153951558958266,-0.01915507060287826,0.5598968623834497,-1.326460964828202
1.7288113552830642,5.049135255343085,-0.019231066535246654,0.5434326493553024,-1.364457348842721
1.7251494140428028,4.947440741832523,-0.019315683362240526,0.527035913913768,-1.4012801524876917
1.7214707192727134,4.848855210338471,-0.019407419480805037,0.5107065228657475,-1.4367963139569522
1.7177740633966323,4.753365861745824,-0.019504747635838298,0.49444451495157254,-1.4708670308693548
1.714058531919033,4.660959871815489,-0.019606110023101884,0.47825011589407046,-1.503347161946749
1.710323509766885,4.571624354019512,-0.019709912631089677,0.4621237556425301,-1.5340845777051806
1.7065686887880056,4.485346318862501,-0.01981451872553239,0.4460660881154733,-1.5629194550055237
1.7027940765793508,4.402112629181424,-0.01991824136557142,0.43007801379060484,-1.5896835100668376
1.69900000684136,4.321909950845033,-0.020019334823806256,0.4141607055398249,-1.6141991644183544
1.6951871514806172,4.244724698193416,-0.020115984762959324,0.39831563816141397,-1.6362786383300405
1.6913565347132105,4.170542973466734,-0.020206296999217443,0.38254462211945567,-1.6557229666288158
1.6875095494560044,4.099350499369667,-0.020288284655583508,0.36684984206019033,-1.6723209326414263
1.6836479763334427,4.031132543804365,-0.020359853476643968,0.35123390073248106,-1.6858479175449192
1.679774005674616,3.965873835680881,-0.02041878503732262,0.33569986898839005,-1.6960646650009468
1.6758902629307317,3.903558470582915,-0.020462717529879236,0.3202513425691623,-1.7027159651106138
1.6719998380089858,3.8441698049332977,-0.020489123751657144,0.3048925063741958,-1.7055292681969443
1.668106319098287,3.787690337178134,-0.020495285834646923,0.28962820683803797,-1.7042132487909516
1.6642138316600454,3.7341015744068713,-0.020478266146843446,0.2744640328594724,-1.6984563550579068
1.6603270833804387,3.6833838827751144,-0.020434873638491346,0.2594064053695421,-1.6879254010859466
1.656451416040443,3.635516320141207,-0.020361624677250542,0.2444626749873724,-1.672264292386608
1.6525928654743067,3.5904764495346697,-0.02025469707155407,0.22964122613405255,-1.6510930236228496
1.6487582310848787,3.5482401325516513,-0.0201098754487405,0.21495158421351382,-1.6240071592625023
1.6449551568124772,3.5087813026833494,-0.019922485313381953,0.20040451966336215,-1.5905781130705163
1.641192226090533,3.472071720177091,-0.019687311759714016,0.18601213829725913,-1.5503546960771881
1.6374790742952667,3.4380807126771877,-0.019398496611508928,0.17178794064908637,-1.5028666256626018
1.633826523723367,3.4067749101333327,-0.019049404145329983,0.15774682297045176,-1.4476310081298809
1.6302467485703152,3.3781179890515958,-0.018632439571004886,0.1439049778899425,-1.3841632565336268
1.6267534813309152,3.3520704510788484,-0.01813879452794178,0.13027963234949128,-1.3119945156218777
1.6233622784929427,3.3285894752635805,-0.017558077450718138,0.11688853412701164,-1.230698442605895
1.620090873965233,3.3076289029393493,-0.016877759683066124,0.10374906928594263,-1.1399310579734483
1.6169596659844976,3.289139438377834,-0.016082324324675865,0.0908768734668513,-1.0394880377112916
1.6139924114307034,3.273069172253525,-0.01515193413631692,0.07828382257851607,-0.9293834801951097
1.6112172472204696,3.259364543640025,-0.014060320708248114,0.06597542598462736,-0.8099511217876022
1.6086682336114535,3.2479718146220087,-0.01277140149192161,0.05394803736293023,-0.6819600829977202
1.606387746367757,3.238838970084263,-0.011233727389093433,0.042187168297536964,-0.5467185309795064
1.60443032314383,3.231917552946978,-0.009370727599611633,0.03066985420021739,-0.40610926175184814
1.6028693636147189,3.2271630685307677,-0.007060425338398058,0.01937735018093035,-0.26247245646122097
1.6018113442587358,3.224530269881935,-0.004076620514056559,0.00833631980679577,-0.11825171194525597
