x,y,v_x,v_y,omega
2.375,32.48,0.0,3.5897435897435894,-5.428571428571429
2.3736667667303433,31.80662624287711,-0.014034034417437275,3.4984012220762826,-5.0472227466789805
2.3698820433844694,31.15021388004669,-0.025805158697025946,3.4112025971913025,-4.7062361110686535
2.364042414568067,30.51000412242275,-0.035664618317738914,3.32784748306069,-4.400103854751476
2.3564833443178324,29.885292340846075,-0.04390454221104423,3.248066007220102,-4.124204933657309
2.3474893680006064,29.2754226889498,-0.05076889270712634,3.1716145390564843,-3.8746425916762286
2.3373024157923563,28.679783439940493,-0.05646218316918658,3.0982722926204,-3.6481152073009064
2.326128644372925,28.097802915099038,-0.0611564633511426,3.027838495184382,-3.4418128333915923
2.314144070139579,27.528945907531075,-0.06499694963145075,2.9601300055310356,-3.2533337937990554
2.3014992341156884,26.972710524088846,-0.06810658746213502,2.894979293860845,-3.0806170535925865
2.288323080449949,26.428625383193417,-0.0705897669140644,2.8322327155647367,-2.9218870792611256
2.27472619315742,25.896247117731363,-0.07253536248097804,2.7717490261411037,-2.7756086514051668
2.2608035068011647,25.3751581411492,-0.07401923074276527,2.713398095776366,-2.640449654609081
2.2466365841489364,24.864964641942706,-0.07510627085963653,2.6570597906078106,-2.5152502963677352
2.23229553598421,24.36529477738722,-0.07585213087432535,2.602622994186742,-2.398997534101383
2.217840644102105,23.875797041909653,-0.07630462577941403,2.549984747682403,-2.2908037416643934
2.2033237372484034,23.396138789207505,-0.07650492004902272,2.499049491287576,-2.1898888427395713
2.1887893607340634,22.92600489025942,-0.07648851694402732,2.449728392376473,-2.0955652916587493
2.174275773196778,22.4650965118835,-0.07628608871161065,2.4019387484226686,-2.0072254025632255
2.1598157981144324,22.013130002591048,-0.07592417531307862,2.3556034546557676,-1.924330622946865
2.145437552915449,21.56983587423597,-0.0754257741499058,2.310650528029268,-1.846402423191465
2.1311650746540143,21.134957869437976,-0.07481083912835197,2.26701268037067,-1.773014534023313
2.117018858048619,20.70825210601096,-0.07409670408633434,2.2246269346505327,-1.703786312190327
2.103016319081908,20.289486290696342,-0.07329844293168063,2.1834342791875803,-1.6383770536177074
2.089172195219197,19.87843899541634,-0.07242917667580415,2.1433793553387916,-1.576481104809002
2.075498891535158,19.474898990049788,-0.07150033578775716,2.1044101748353916,-1.5178236488449597
2.0620067805736784,19.078664626413612,-0.07052188485940086,2.066477863440157,-1.462157063187333
2.048704462549114,18.689543268723355,-0.0695025153991724,2.0295364280362325,-1.4092577635557406
2.035598991483331,18.30735076632037,-0.06844981160907347,1.9935425446268045,-1.3589234621519894
2.022696072025814,17.931910964902038,-0.06737039320688866,1.9584553650398195,-1.310970780043646
2.0100002309945424,17.563055252885107,-0.06627003870123553,1.9242363404015497,-1.265233163053249
1.9975149670793297,17.200622139877872,-0.06515379198521265,1.8908490596746186,-1.22155905840378
1.9852428816476022,16.84445686454195,-0.06402605466455083,1.8582591017561159,-1.1798103159434976
1.9731857931691101,16.49441102939368,-0.06289066616168257,1.8264338998046057,-1.13986078325438
1.9613448374179132,16.150342260333794,-0.0617509733245996,1.7953426166152622,-1.101595068532415
1.9497205553063282,15.81211388890597,-0.06060989100787439,1.7649560299934197,-1.0649074489721662
1.9383129699475583,15.479594655473417,-0.05946995487391541,1.735246427191332,-1.029700905620441
1.9271216543241096,15.15265843167078,-0.058333367478173706,1.7061875075732487,-0.9958862683888738
1.916145790751747,14.831183960638928,-0.057202038546699155,1.677754292762028,-0.9633814572182159
1.905384223168597,14.515054613684718,-0.0560776202233009,1.649923043598072,-0.9321108073382134
1.8948355031418864,14.204158162128468,-0.054961537952599206,1.6226711833098286,-0.9020044682238365
1.8844979303671283,13.898386563210249,-0.0538550175711684,1.5959772263556353,-0.8729978672588984
1.874369588333459,13.597635759023682,-0.05275910909903481,1.569820712450334,-0.8450312303211797
1.8644483757417545,13.301805487533816,-0.05167470765574904,1.544182145337717,-0.81804915253174
1.8547320341870726,13.01079910481507,-0.05060257186722043,1.5190429359122457,-0.7920002132923306
1.8452181725520944,12.724523417716938,-0.0495433400799179,1.4943853493312536,-0.7668366304914042
1.8359124410516645,12.44289006982456,-0.04841172834565799,1.4701762074306284,-0.7401375024621228
1.8268194069177586,12.16581375566103,-0.047304420432301035,1.4464165732381065,-0.7146111892000565
1.8179344702578921,11.893210543318542,-0.04622122861892435,1.4230909251038903,-0.6901926573448686
1.8092530720903823,11.624999385192822,-0.045161909986441304,1.4001844235878762,-0.6668211622300582
1.8007707040067553,11.361101991952225,-0.04412617510436937,1.377682873681564,-0.6444399199631143
1.7924829162872795,11.101442713448353,-0.043113695626955925,1.3555726895170956,-0.6229958079297816
1.784385324664131,10.845948426113782,-0.04212411093250221,1.3338408613731243,-0.6024390909738285
1.7764736159028724,10.594548426426975,-0.04115703392284996,1.3124749248037877,-0.5827231707964717
1.7687435523520942,10.347174330056074,-0.040212056085341674,1.2914629317319997,-0.5638043563783688
1.761190975592838,10.103759976322163,-0.03928875190682661,1.2707934233617857,-0.5456416534561276
1.753811809303461,9.864241337649016,-0.03838668271819855,1.2504554047766019,-0.528196571288277
1.7466020614415942,9.628556433690584,-0.03750540003829256,1.2304383211016452,-0.5114329451258046
1.7395578258325897,9.396645249849698,-0.036644448477544354,1.2107320351181932,-0.4953167729624753
1.732675283243049,9.168449659921894,-0.0358033682544618,1.191326806227124,-0.4798160652826084
1.7259507020085798,8.94391335261695,-0.034981697371531444,1.1722132706670436,-0.4649007066509145
1.7193804382765858,8.722981761728082,-0.0341789734915616,1.1533824228999787,-0.4505423281022153
1.712960935917586,8.505601999734562,-0.03339473555054191,1.134825598084457,-0.436714189389985
1.7066887261520998,8.291722794638144,-0.03262852513878655,1.1165344555620458,-0.4233910702430622
1.700560426934472,8.081294429847283,-0.031879887678345674,1.0985009632891296,-0.41054916986081663
1.694572742130001,7.874268686935476,-0.031148373421349875,1.0807173831509234,-0.3981660139495846
1.6887224605173246,7.670598791111686,-0.030433538291035563,1.0631762570994816,-0.3862203686682604
1.6830064546441357,7.470239359251362,-0.029734944584635378,1.04587039406183,-0.37469216090937385
1.6774216795608643,7.273146350346497,-0.029052161555061875,1.0287928575683416,-0.3635624043945314
1.6719651714539325,7.079277018242266,-0.028384765886326848,1.0119369540551477,-0.3528131311103915
1.666634046197522,6.888589866536243,-0.027732342075889004,0.9952962217977306,-0.3424273276539524
1.6614311444311345,6.701245177796139,-0.027035044938715353,0.9767531333612691,-0.3744868788265743
1.6563563746873688,6.517413438354389,-0.02638358394302788,0.9583178081308368,-0.40798037894082984
1.6514011537894624,6.337074439059386,-0.02577663603493579,0.9399874476060281,-0.44280158137364856
1.6465571525347094,6.160208492115732,-0.02521285085719992,0.9217593623271634,-0.4788462131995944
1.6418163005063464,5.986796410690889,-0.02469085470451502,0.903630968460665,-0.5160117423350901
1.6371707901719894,5.816819489134954,-0.024209254078190415,0.8855997847596995,-0.5541971479308255
1.6326130803422445,5.650259483742772,-0.023766638866493477,0.867663429894854,-0.5933026930280543
1.6281358990583925,5.487098593988289,-0.02336158517405316,0.8498196201523361,-0.6332296984862283
1.6237322459738663,5.3273194441613185,-0.022992657820960122,0.8320661674999917,-0.6738803171733745
1.6193953942905706,5.170905065336502,-0.022658412529521277,0.8144009780243945,-0.7151573073864204
1.6151188923079354,5.017838877603371,-0.022357397814005617,0.7968220507453897,-0.7569638044358948
1.6108965646399227,4.868104672484865,-0.022088156586129306,0.7793274768178386,-0.7992030892875239
1.606722513153028,4.721686595469446,-0.021849227486445875,0.7619154391339494,-0.8417783531015716
1.6025911176766412,4.578569128579083,-0.021639145949204505,0.7445842123435596,-0.8845924564486054
1.5984970365359361,4.438737072891602,-0.02145644500558708,0.7273321633141225,-0.9275476819068346
1.5944352069567924,4.302175530931343,-0.021299655827502734,0.7101577520570175,-0.9705454786603112
1.5904008453921088,4.168869888836465,-0.02116730801127339,0.6930595331522459,-1.0134861976180276
1.5863894478192706,4.0388057982045815,-0.021057929597549853,0.6760361577096874,-1.0562688154600923
1.582396790059545,3.911969157510523,-0.020970046820615654,0.6590863759119975,-1.0987906458874366
1.5784189281717884,3.788346092980639,-0.020902183576821734,0.6422090401920554,-1.1409470362045335
1.5744521989751612,3.6679229387972505,-0.020852860598200695,0.6254031091067862,-1.1826310471989891
1.5704932207585705,3.550686216494068,-0.02082059431328105,0.6086676519793515,-1.2237331140962027
1.5665388942384024,3.4366226133886606,-0.020803895372698937,0.5920018543933475,-1.2641406861602973
1.5625864038308257,3.3257189598808736,-0.020801266812319124,0.5754050246359932,-1.303737842283144
1.558633219310646,3.2179622054262076,-0.020811201821151697,0.5588766012026118,-1.3424048796509154
1.5546770979354834,3.1133393929701896,-0.020832181075297766,0.5424161614923094,-1.3800178723023324
1.5507160871220542,3.0118376316031465,-0.02086266959237692,0.5260234318449688,-1.41644819609585
1.5467485277707183,2.9134440671640505,-0.02090111305326561,0.5096982990928933,-1.4515620162874936
1.5427730583453672,2.8181458504866583,-0.020945933529375873,0.49344082382703847,-1.4852197335925887
1.538788619828399,2.7259301029403105,-0.020995524543971505,0.47725125560819215,-1.5172753842727844
1.5347944616851499,2.636783878870663,-0.021048245384968793,0.46113005038810495,-1.5475759894699328
1.5307901489890403,2.550694124491539,-0.021102414574077917,0.4450778904447837,-1.5759608487242514
1.5267755708781432,2.467647632717167,-0.021156302382734072,0.42909570718017886,-1.6022607724016718
1.5227509505362573,2.3876309933532056,-0.021208122268697182,0.41318470717730715,-1.6262972476678996
1.5187168569173697,2.310630537984494,-0.0212560210880143,0.39734640196702914,-1.6478815327635203
1.514674218462118,2.236632278806571,-0.021298067914633872,0.38158264201112196,-1.6668136747714735
1.5106243390892458,2.165621840546276,-0.021332241273496047,0.3658956554656748,-1.6828814469949112
1.50656891678495,2.09758438450444,-0.021356414561195483,0.3502880923431097,-1.6958592037270117
1.5025100651596293,2.0325045236319887,-0.021368339389549598,0.3347630747353379,-1.7055066529548382
1.4984503383964243,1.9703662274227192,-0.02136562653892265,0.3193242537833016,-1.7115675519213789
1.4943927600813751,1.911152715277499,-0.02134572414580531,0.3039758740611188,-1.7137683372381562
1.4903408564842162,1.8548463368757453,-0.021305892666396382,0.28872284595733133,-1.7118167115110365
1.4862986949566963,1.8014284379983607,-0.02124317604433926,0.2735708264361851,-1.7054002238438346
1.482270928239286,1.7508792102099626,-0.021154368349449854,0.25852630817852684,-1.6941849044998356
1.4782628456289089,1.7031775228724015,-0.021035974917679435,0.2435967164273896,-1.6778140479106882
1.4742804321785217,1.658300736197063,-0.020884166665341868,0.2287905117340737,-1.6559072882010681
1.4703304374040307,1.6162244945601962,-0.02069472569772282,0.21411729496980136,-1.6280601848160083
1.4664204554141742,1.5769225002715288,-0.020462979458661712,0.19958790806878596,-1.5938446433032103
1.4625590190354223,1.5403662696557348,-0.02018371926504434,0.18521451946587217,-1.5528106528400158
1.4587557115102041,1.5065248760549927,-0.019851096789881166,0.17101067633142444,-1.5044900483870878
1.4550213009249418,1.4753646887325615,-0.019458488318143872,0.15699129548364443,-1.4484033284080289
1.4513679050434107,1.4468491234039256,-0.0189983104348144,0.14317255008092733,-1.3840710105992733
1.4478091982926322,1.420938430209187,-0.01846176062601344,0.12957158881107142,-1.31103161608385
1.4443606792796473,1.3975895594252172,-0.017838439510669067,0.11620599838861181,-1.2288691366304973
1.4410400280456077,1.3767561647895903,-0.017115784005538367,0.10309289251270706,-1.137253668539839
1.4378675999084154,1.3583888280528278,-0.016278196385959353,0.09024749419004073,-1.0359994700646225
1.4348671313419317,1.342435610886632,-0.015305683261237726,0.07768110755937067,-0.9251441923463134
1.4320667795215667,1.3288430458180827,-0.014171704321551766,0.06539852474114724,-0.8050496813067977
1.4295006928695155,1.3175576302916774,-0.012839734121090381,0.05339532290520761,-0.6765154552145529
1.4272114435942362,1.3085277170501044,-0.011257626671323712,0.04165639542714336,-0.5408769958947893
1.4252539391343708,1.3017052793237767,-0.009347683432523637,0.03015873853421034,-0.4000321484410166
1.423702261143275,1.2970461327110314,-0.006985769105328053,0.0188849100209958,-0.25631240784661974
1.4226643624917243,1.2945047662043088,-0.00393947985836283,0.007866316365567129,-0.11212035843911733
