x,y,v_x,v_y,omega
2.375,32.48,0.0,2.9743589743589745,-5.183673469387755
2.3740827088671153,31.950324857896184,-0.010192123698719583,2.9109203823500454,-4.890871599272713
2.3714518993935947,31.431863631269678,-0.0190390926737308,2.849759913500037,-4.62253495421415
2.3673345100546133,30.924218434921062,-0.026709677759398007,2.7907422681512295,-4.375984026188868
2.3619291751815834,30.427014714785436,-0.03334959860759694,2.733743511133529,-4.148889107980263
2.355410059952108,29.9398993193388,-0.03908501505324312,2.6786497716068634,-3.939217915034112
2.347930119814015,29.462538787629178,-0.04402543092556742,2.625356136277831,-3.745192038591888
2.3396238802162874,28.994617822302516,-0.048266120160294954,2.573765700685089,-3.5652505711960183
2.3306098147981786,28.53583792167437,-0.051890162263134185,2.52378875073873,-3.3980195903505024
2.320992386099246,28.085916149390407,-0.05497015661389688,2.47534205241642,-3.242286452070803
2.310863801573071,27.644584023800164,-0.05756967145471516,2.4283482319196428,-3.0969780529173407
2.3003055285978458,27.211586512046708,-0.0597444727144506,2.3827352320076023,-2.9611423812079085
2.289389604809218,26.786681116205393,-0.06154356938141298,2.3384358328959265,-2.833932806007522
2.2781797740764,26.369637040705825,-0.06301010542767736,2.2953872282103815,-2.71459465405951
2.266732473524959,25.96023443183297,-0.06418212292166975,2.2535306481546695,-2.602453705951505
2.255097692963715,25.558263681394397,-0.06509321664770931,2.2128110233850236,-2.4969063079744207
2.243319724730176,25.163524787715584,-0.06577309705827507,2.173176684157347,-2.3974108487435135
2.231437819195861,24.77582676802507,-0.06624807554522533,2.1345790901817114,-2.3034803923317604
2.2194867588640435,24.394987117049254,-0.06654148369719334,2.096972587327362,-2.214676294448294
2.207497362063542,24.020831307278584,-0.0666740363083824,2.0603141879022924,-2.130602656661221
2.195496925625388,23.65319232691342,-0.06666414633777042,2.0245633717106664,-2.050901497055539
2.1835096145699002,23.291910251965454,-0.06652819872320519,1.9896819054889414,-1.9752485350111082
2.1715568056855092,22.936831849392657,-0.06628078888113977,1.9556336786532238,-1.9033495037579042
2.159657390911577,22.5878102084927,-0.06593493082921807,1.922384553568502,-1.8349369176334138
2.1478280456158765,22.244704398080906,-0.06550223912300782,1.8899022287848135,-1.7697672320240931
2.1360834661591768,21.907379147240718,-0.06499308817365648,1.858156113883899,-1.7076183432163856
2.1244365805445478,21.57570454766378,-0.06441675198888817,1.8271172147487744,-1.648287383133385
2.112898735441099,21.249555775797226,-0.06378152693831853,1.7967580282129432,-1.5915887704505987
2.1014798624372175,20.92881283319278,-0.06309483977147796,1.7670524451697727,-1.5373524850796758
2.090188626005632,20.61336030360787,-0.062363342801689654,1.7379756613292179,-1.4854225376549195
2.0790325553423368,20.303087125547123,-0.06159299790159457,1.7095040949012785,-1.4356556095951822
2.068018161965595,19.997886379055103,-0.0607891507288656,1.6816153105656044,-1.387919842659503
2.057151044723361,19.697655085680132,-0.059956596407068734,1.6542879491563387,-1.3420937597643012
2.0464359836518007,19.402294020626368,-0.05909963772138012,1.627501662552149,-1.298065301262291
2.0358770239496,19.11170753619835,-0.058222136747519075,1.6012370533147315,-1.2557309629641618
2.0254775511783225,18.825803395720087,-0.05732756071111709,1.5754756186659338,-1.2149950239681162
2.0152403586649568,18.54449261718101,-0.05641902277072436,1.5501996984349415,-1.1757688538950657
2.0051677079660557,18.267689325923953,-0.055499318328175895,1.5253924266434613,-1.137970290446755
1.9952613831511563,17.99531061574742,-0.05457095739292889,1.5010376864291466,-1.1015230793421955
1.985522739574355,17.727276417845538,-0.05363619346041767,1.4771200680362095,-1.0663563696713472
1.9759570738858832,17.46351156514549,-0.05264898085593789,1.453600517519849,-1.0307156696793702
1.9665684104779666,17.203943369087703,-0.051669501454247424,1.4304905497888833,-0.9965677442098966
1.9573552654493673,16.94849932796526,-0.050698776641299986,1.4077765737938364,-0.9638333985407761
1.948315983925558,16.697109335077847,-0.04973768473435878,1.385445569399653,-0.9324384314502064
1.9394487644323333,16.449705578703288,-0.048786976301471136,1.363485056984306,-0.90231326988202
1.9307516806570872,16.206222447367608,-0.047847287867928995,1.3418830689677033,-0.8733926339248584
1.9222227008722557,15.966596440079027,-0.04691915418575546,1.320628123127652,-0.845615229297114
1.9138597052655566,15.730766081216075,-0.046003019222013185,1.2997091975718056,-0.8189234648163094
1.9056605013952197,15.498671839782514,-0.04509924600395107,1.2791157072455255,-0.7932631925864114
1.8976228379649607,15.270256052762516,-0.04420812544337298,1.2588374818655481,-0.7685834688632774
1.8897444170926603,15.045462852328562,-0.043329884248852014,1.238864745178373,-0.7448363337603883
1.8820229052282578,14.824238096671966,-0.042464692022288655,1.2191880954504803,-0.7219766081371436
1.8744559428599463,14.606529304241981,-0.04161266762561507,1.1997984871049256,-0.6999617061728479
1.8670411531331808,14.39228559119423,-0.04077388489400351,1.1806872134256323,-0.6787514622733289
1.8597761494939973,14.181457611862808,-0.03994837776358837,1.1618458902568631,-0.6583079710858559
1.8526585424565851,13.973997502082902,-0.039136144874325436,1.1432664406309745,-0.6385954395133862
1.8456859455847094,13.769858825202473,-0.038337153702070415,1.1249410802626862,-0.6195800497226538
1.8388559807673888,13.56899652063208,-0.037551344268160536,1.1068623038527854,-0.6012298322335659
1.8321662828609868,13.371366854791969,-0.036778632469638174,1.0890228721484665,-0.583514548260931
1.8256145037625375,13.176927374324578,-0.03601891306868692,1.0714157997114393,-0.5664055805547582
1.8191983159725345,12.98563686144918,-0.03527206237578992,1.0540343433485235,-0.5498758320531222
1.8129154156995377,12.797455291343166,-0.0345379406575083,1.0368719911627526,-0.5338996317226985
1.8067635255536714,12.612343791441774,-0.03381639429656149,1.0199224521860346,-0.5184526470172371
1.8007403968713684,12.430264602554882,-0.03310725772902631,1.0031796465571965,-0.5035118024340917
1.7948438117094736,12.25118104170567,-0.03241035518091658,0.9866376962118036,-0.4890552036940038
1.7890772530807526,12.075284795324375,-0.031662518471541126,0.9677650413581556,-0.5252753361314763
1.7834410191930932,11.902776358708362,-0.030962302502450467,0.9489953654864214,-0.5626887213643419
1.7779266826655409,11.733637425005888,-0.030308103359241834,0.9303261200966336,-0.6011913794501108
1.7725261056527821,11.567850136910653,-0.029698307893634562,0.9117548587392966,-0.6406807394609012
1.7672314412818781,11.405397068512134,-0.029131296227520385,0.8932792345775757,-0.6810554105893222
1.7620351346660397,11.246261207551584,-0.028605443948462504,0.8748969983174065,-0.7222149541057692
1.7569299235494262,11.090425938017347,-0.028119124013908217,0.8566059965074342,-0.7640596551511962
1.7519088386340713,10.937875023012445,-0.02767070837892573,0.8384041702137006,-0.8064902933229717
1.7469652036375807,10.788592587826265,-0.027258569359859392,0.8202895540771967,-0.8494079109763968
1.7420926351282429,10.64256310314039,-0.026881080743895173,0.8022602757658488,-0.8927135781203298
1.7372850421826018,10.499771368296202,-0.02653661865211585,0.7843145558362511,-0.9363081527314956
1.7325366259094053,10.360202494548727,-0.026223562161177112,0.7664507080245654,-0.9800920352477378
1.7278418788831393,10.223841888227366,-0.025940293686224695,0.7486671399905394,-1.0239649159248776
1.7231955845301228,10.090675233719288,-0.025685199125069363,0.7309623545436358,-1.0678255136540533
1.7185928165103848,9.96068847618563,-0.02545666776090974,0.713334951385901,-1.1115713047354145
1.7140289381392821,9.833867803913773,-0.02525309191800783,0.6957836294125347,-1.155098239988736
1.7094996018941138,9.710199630201,-0.02507286636164118,0.6783071896182776,-1.1983004484507327
1.7050007490528356,9.589670574655429,-0.02491438743033682,0.6609045386658391,-1.2410699257613962
1.7005286095144743,9.47226744378914,-0.024776051884789187,0.6435746931818057,-1.2832962051763432
1.69607970185399,9.357977210765739,-0.024656255453925115,0.6263167848559785,-1.3248660089578628
1.6916508336682545,9.246786994149812,-0.024553391054245515,0.6091300664320886,-1.3656628776931634
1.6872391022745323,9.138684035488684,-0.024465846653779804,0.5920139186915676,-1.405566774863708
1.6828418958284925,9.033655675537144,-0.024392002746661336,0.5749678585477703,-1.4444536637445247
1.6784568949354384,8.931689328913102,-0.024330229398385066,0.55799154838604,-1.4821950534479933
1.6740820748362206,8.832772456945854,-0.024278882815145737,0.5410848068056126,-1.5186575106452547
1.669715708258373,8.736892538448487,-0.02423630138316388,0.524247620942905,-1.5537021332046412
1.665356369033497,8.644037038111193,-0.024200801115457332,0.507480160582594,-1.5871839816881033
1.66100293659405,8.554193372172353,-0.024170670433953753,0.4907827942934184,-1.6189514643558363
1.656654601476636,8.467348870978533,-0.024144164203979954,0.47415610786014806,-1.648845671065172
1.6523108719749575,8.383490737992151,-0.02411949692578055,0.45760092532188973,-1.6766996512408634
1.6479715821040197,8.30260600474589,-0.024094834973528465,0.4411183329698846,-1.702337630982577
1.6436369010583685,8.224681481175157,-0.024068287755928442,0.4247097067049437,-1.7255741644239455
1.63930734437152,8.149703700683272,-0.024037897653498327,0.40837674320487233,-1.746213214756702
1.63498378701183,8.077658859208473,-0.024001628565279168,0.39212149540402363,-1.7640471610150166
1.6306674786825526,8.008532747466734,-0.023957352871139263,0.37594641283750635,-1.7788557279699966
1.6263600616316223,7.942310675441178,-0.023902836583641025,0.35985438744647147,-1.7904048385884137
1.6220635913209698,7.878977388078699,-0.02383572242360871,0.343848805469952,-1.7984453918621022
1.6177805603575761,7.818516971041941,-0.023753510502986422,0.3279336060495654,-1.8027119739923454
1.61351392615138,7.760912745256235,-0.023653536232527448,0.31211334712495614,-1.8029215187524907
1.6092671428420025,7.706147148898918,-0.02353294498277904,0.29639327906745017,-1.7987719445627919
1.6050441981323071,7.654201605421552,-0.023388662902724316,0.28077942623663077,-1.789940813149859
1.600849655790081,7.6050563762047325,-0.02321736312200788,0.2652786761724627,-1.7760840801755717
1.5966887047422285,7.558690396568835,-0.02301542629857946,0.24989887533749675,-1.7568350455962582
1.5925672159088147,7.515081094176285,-0.022778894072684935,0.23464892902418083,-1.7318036660814633
1.5884918082392936,7.474204189475849,-0.02250341336643865,0.21953890098068046,-1.7005764712320748
1.5844699258724526,7.436033478928273,-0.02218416848734827,0.2045801051035077,-1.6627174404439076
1.5805099290302835,7.400540603570242,-0.02181579642564158,0.18978517665239064,-1.6177703631546223
1.5766212023138144,7.3676948083910645,-0.02139227820179353,0.1751681031162677,-1.5652634421182277
1.572814285725546,7.3374627025371915,-0.02090679500118991,0.16074418414899397,-1.504717232597367
1.5691010363753604,7.3098080372260625,-0.020351531111983952,0.14652987486353042,-1.4356574672826423
1.5654948330504785,7.284691528299543,-0.019717394720035836,0.13254244654225322,-1.3576349156431669
1.5620108426425419,7.262070764418265,-0.018993609812592408,0.11879937436085101,-1.2702551468614254
1.558666378418862,7.241900260278001,-0.018167103783851578,0.10531733830875402,-1.173221778562671
1.55548139780052,7.224131735310834,-0.01722156975328229,0.09211071688197395,-1.066397114451746
1.5524792155535039,7.208714715691226,-0.01613601076911682,0.07918950111368805,-0.9498830907915605
1.5496875533529817,7.195597554251684,-0.014882458125575206,0.06655673710343854,-0.8241213383751564
1.5471401202322834,7.18472890285825,-0.013422354326629124,0.05420605615694021,-0.6900009803159448
1.5448790502130163,7.176059488059664,-0.011700645887449658,0.04212077493844712,-0.5489435585834395
1.5429588157666254,7.1695436220073,-0.009635292405782777,0.030277736754492166,-0.4029077225585276
1.5414531189524538,7.165138990121406,-0.007094672196121074,0.018662617533214538,-0.25423573197525207
1.5404700761602597,7.162800712463671,-0.003828025494926265,0.007318245330516724,-0.10527632918714883
