x,y,v_x,v_y,omega
2.375,32.48,0.0,2.923076923076923,-7.510204081632653
2.3732174902514234,31.873446622729386,-0.016976283319779115,2.85362190807174,-7.029772065536003
2.368131596901993,31.28116825341405,-0.03146079619860074,2.7871244663600434,-6.595445026557552
2.3602285445515587,30.702566278993476,-0.04380636904363213,2.723370528121624,-6.201446170167454
2.3499262356536854,30.13708462332426,-0.054310858555160726,2.6621690496804167,-5.842864589912749
2.337584782649753,29.584205273453264,-0.0632267891013412,2.603348568138617,-5.515505094901642
2.3235152165266006,29.04344446024968,-0.07076907873820576,2.546754414752647,-5.2157677021378905
2.307986728737174,28.514349370723846,-0.07712128116109697,2.49224643787434,-4.940550186856267
2.2912327243500656,27.99649529669592,-0.08244066538278963,2.4396971242963925,-4.68716872754119
2.273455904959915,27.48948314494111,-0.08686237642817057,2.3889900352731854,-4.453292873911194
2.2548325548003114,26.9929372494196,-0.09050286318709773,2.34001849350313,-4.236891941623936
2.235516168840538,26.506503438029746,-0.09346271738217327,2.2926844721145145,-4.036190588518212
2.2156405347282253,26.02984731545103,-0.0958290360684269,2.246897647682803,-3.8496318167925163
2.195322359337524,25.562652730750187,-0.09767739622396159,2.2025745875632996,-3.6758460174418337
2.1746635140002604,25.104620404007314,-0.09907351174998123,2.1596380480831225,-3.513624958465355
2.1537529592092874,24.65546669064158,-0.1000746291164277,2.118016364923889,-3.3618998389290535
2.1326683989253685,24.214922465649167,-0.10073070692089374,2.0776429207181186,-3.2197227029145967
2.1114777060170145,23.782732112809832,-0.10108541601581514,2.038455677751724,-3.086250642410033
2.0902401533805093,23.3586526062251,-0.10117699004613803,2.0003967659124093,-2.960732324944455
2.0690074795901774,22.942452673435575,-0.1010389508141628,1.9634121177973307,-2.8424964666895716
2.0478248132579004,22.53391203091504,-0.10070072854085894,1.9274511443030045,-2.7309419397020296
2.026731476434199,22.13282068402261,-0.10018819358963081,1.892466445148715,-2.6255292566476505
2.005761684202319,21.73897828456414,-0.09952411338065581,1.8584135496938439,-2.5257732205522103
1.9849451549763772,21.35219354001086,-0.09872854591402554,1.825250684146953,-2.4312365630356516
1.9643076438151108,20.97228366917946,-0.0978191794313693,1.7929385618663374,-2.34152442379299
1.9438714092243252,20.599073899819167,-0.09681162619516111,1.7614401939460236,-2.256279548101293
1.9236556223796926,20.232397004097443,-0.09571967708705485,1.730720717689439,-2.175178098891021
1.9036767264052437,19.872092868444277,-0.09455552266960153,1.700747240912104,-2.0979259962374845
1.8839487522497007,19.51800809461723,-0.0933299454784262,1.6714887002979097,-2.024255710651612
1.8644835967784101,19.16999562919746,-0.09205248758148551,1.642915732271302,-1.9539234477951222
1.8452912679149969,18.827914419028907,-0.09073159683197411,1.6150005550482736,-1.886706671627348
1.8263801010009384,18.491629090375433,-0.08937475473048632,1.5877168606990848,-1.8224019208424314
1.8077569499740325,18.161009649800988,-0.08798858838290388,1.561039716200408,-1.760822880045592
1.7894273564825192,17.83593120497921,-0.08657896867912719,1.534945472578384,-1.7017986726640189
1.7713956996373739,17.516273703816694,-0.0851510965127338,1.509411681350392,-1.6451723472695061
1.753665328750165,17.20192169043058,-0.08370957860354081,1.4844170175649554,-1.5907995329516016
1.7362629565766685,16.89277019593301,-0.08202729923928287,1.4598829300309282,-1.532029027331184
1.7192120472911248,16.588718012431883,-0.0803623130039901,1.4358521509321909,-1.476037463235374
1.7025087630660534,16.289661401692847,-0.07871658437764074,1.4123060465824433,-1.4226596557194529
1.6861488869062957,15.995500444692404,-0.07709176000100586,1.3892268772312995,-1.371742109326762
1.6701278853892267,15.70613885958721,-0.07548920682822138,1.3665977428181764,-1.3231420593768373
1.654440963862095,15.421483830659124,-0.07391004581112914,1.3444025326873887,-1.276726602410222
1.639083114978044,15.141445847439918,-0.07235518165602178,1.322625878924095,-1.2323719065354801
1.6240491613460768,14.865938553287414,-0.0708253291246191,1.3012531130045137,-1.1899624934831543
1.6093337929773777,14.594878602746142,-0.06932103629156268,1.2802702254837857,-1.1493905850982304
1.5949316001292562,14.32818552708084,-0.06784270511911858,1.259663828471479,-1.1105555078150058
1.5808371020769236,14.065781607421147,-0.0663906096650014,1.2394211206684471,-1.0733631493714522
1.5670447722810645,13.807591755001173,-0.06496491220032331,1.2195298547598972,-1.0377254626473211
1.5535490603645448,13.553543398018647,-0.06356567748081521,1.1999783069784333,-1.0035600120626147
1.5403444112636375,13.303566374675796,-0.062192885384970316,1.18075524866777,-0.9707895584602975
1.5274252818769773,13.057592831997916,-0.06084644210703023,1.1618499196929843,-0.939341678827569
1.5147861554983617,12.815557130056686,-0.05952619007026178,1.1432520035568237,-0.9091484175908382
1.50242155428682,12.577395751253366,-0.05823191670632495,1.1249516040938414,-0.8801459665569205
1.490326049998576,12.343047214342867,-0.05696336222933307,1.1069392236252031,-0.852274370872307
1.4784942731800919,12.112451992903189,-0.05572022651813504,1.0892057424669699,-0.8254772586382556
1.4669209209989393,11.885552437976319,-0.054502175207128176,1.0717423996936866,-0.7997015920559906
1.455600763869389,11.66229270462642,-0.053308845074300594,1.0545407750672575,-0.7748974381869722
1.444528651012063,11.442618682179269,-0.052139848804996815,1.0375927720484843,-0.7510177576010753
1.4336995150714416,11.226477927923568,-0.050994779200921395,1.0208906018153419,-0.7280182093532682
1.4231083759012662,11.01381960407005,-0.049873212895987507,1.0044267682181645,-0.7058569708793482
1.4127503436156545,10.804594417778361,-0.04877471363364712,0.9881940536074452,-0.6844945715355027
1.4026303880860322,10.598906315574652,-0.04760581521989856,0.970740253094557,-0.6929082910912598
1.392751010681685,10.396870974760478,-0.04648349339293136,0.9534058498975733,-0.7034796616812322
1.3831025123634888,10.198463679494587,-0.045406966780366396,0.9361874383490112,-0.7160847474557716
1.3736753658299332,10.003660414422377,-0.044375381158258224,0.9190817528148768,-0.7306032243304421
1.364460230029051,9.812437835905996,-0.04338781694538269,0.9020856616268424,-0.7469180991037079
1.3554479631634786,9.624773244477602,-0.04244329606006781,0.8851961615007193,-0.7649154388197604
1.3466296343175872,9.440644558416071,-0.041540788186516193,0.8684103724186351,-0.784484109228942
1.337996533826171,9.260030288351807,-0.0406792164936386,0.8517255329553014,-0.8055155212421488
1.3295401824955353,9.082909512808179,-0.03985746284575016,0.8351389960316316,-0.8279033843116567
1.3212523397799218,8.909261854591271,-0.03907437254104493,0.8186482250817757,-0.8515434656992562
1.313125011009006,8.73906745794233,-0.038328758610534815,0.8022507906224166,-0.876333354613583
1.3051504537556553,8.572306966369304,-0.03761940570709081,0.78594436721593,-0.9021722302121836
1.2973211834272207,8.408961501075343,-0.03694507361133358,0.7697267308218049,-0.9289606324701896
1.2896299781583023,8.249012639903029,-0.03630450037836464,0.753595756533566,-0.9566002349164352
1.282069883078172,8.09244239671336,-0.03569640514668594,0.7375494167013801,-0.9849936182293281
1.2746342140218192,7.939233201118135,-0.03511949062810239,0.7215857794435965,-1.014044043668572
1.2673165607499022,7.789367878483418,-0.034572445294917646,0.7057030075537173,-1.0436552252946967
1.2601107897397148,7.642829630119941,-0.03405394527829528,0.6898993578127457,-1.0737310998959329
1.253011046606623,7.499602013573941,-0.03356265598924374,0.6741731807205913,-1.1041755935008994
1.246011758213269,7.359668922928531,-0.03309723347127033,0.6585229206642568,-1.13489238330538
1.2391076345221979,7.2230145690215615,-0.03265632549131314,0.6429471165449653,-1.1657846537816676
1.232293670246437,7.089623459480755,-0.03223857237307478,0.6274444028912811,-1.1967548456689883
1.2255651463519606,6.959480378470648,-0.031842607574320815,0.6120135114907014,-1.2277043964628134
1.2189176314659176,6.832570366038407,-0.03146705800703987,0.5966532735782565,-1.2585334709288845
1.2123469832450395,6.708878696936811,-0.03111054409655988,0.5813626226274397,-1.28914068006396
1.2058493497597629,6.588390858792305,-0.030771679572741694,0.5661405977964171,-1.3194227868092663
1.1994211709513902,6.471092529474117,-0.03044907098318852,0.5509863480910772,-1.3492743966941432
1.193059180222083,6.356969553506353,-0.03014131691497627,0.5358991373161971,-1.3785876314465209
1.1867604062207042,6.246007917348965,-0.029847006907677817,0.5208783498970122,-1.4072517834541927
1.180522174891579,6.138193723354856,-0.029564720036370493,0.5059234976659259,-1.4351529487976415
1.174342111858184,6.033513162188999,-0.029293023138820286,0.4910342277231977,-1.4621736364037665
1.1682181452197218,5.931952483470944,-0.029030468656058024,0.47621033149638153,-1.4881923506940808
1.1621485088455834,5.8334979643739935,-0.02877559205002084,0.4614517551412538,-1.5130831449268596
1.1561317462609795,5.738135875882211,-0.028526908755729816,0.446758611447153,-1.5367151422694347
1.150166715226686,5.645852446369879,-0.02828291061849477,0.43213119343219475,-1.5589520214979233
1.1442525931270766,5.556633822126425,-0.028042061758736064,0.41756998983879867,-1.5796514641268944
1.1383888832936184,5.470466024402782,-0.027802793798008443,0.4030757027673113,-1.5986645597493907
1.1325754224060334,5.387334902502143,-0.027563500369467597,0.38864926771495995,-1.615835166459268
1.1268123891307171,5.307226082378648,-0.027322530824020752,0.3742918763183194,-1.6309992234914041
1.1211003141761167,5.230124910141704,-0.027078183029317485,0.36000500212876607,-1.6439840137340616
1.1154400919681327,5.156016389791276,-0.026828695141959333,0.3457904297800689,-1.6546073746595096
1.1098329941758656,5.084885114431497,-0.026572236212965433,0.3316502879321028,-1.6626768576512558
1.1042806853500629,5.016715190127723,-0.02630689546134621,0.31758708638955935,-1.6679888379162497
1.0987852409746584,4.951490151488709,-0.026030670018696623,0.3036037577915281,-1.6703275804949982
1.093349168277552,4.88919286797595,-0.025741450906125764,0.2897037042347503,-1.6694642727999576
1.087975430202749,4.829805439874569,-0.02543700694914255,0.2758908491117295,-1.665156041302559
1.0826674730158499,4.773309082817711,-0.025114966259419953,0.26216969428693365,-1.6571449804182883
1.0774292581042035,4.7196839997594395,-0.024772794803877937,0.24854538245851998,-1.645157236681722
1.0722652986502474,4.668909239371025,-0.02440777142427541,0.23502376409778916,-1.6289022129114137
1.067180702014752,4.620962540039262,-0.0240169584375875,0.22161146763328757,-1.608071988003315
1.0621812188862174,4.575820159043769,-0.02359716659607335,0.20831597041903258,-1.5823410921569523
1.0572733005656112,4.533456687187556,-0.02314491264779593,0.19514566630679853,-1.551366840167081
1.0524641662126546,4.493844850303713,-0.02265636690417106,0.18210992306314283,-1.514790514365977
1.0477618825615247,4.4569553008799865,-0.022127286916112748,0.1692191190675877,-1.4722398138317276
1.0431754596482479,4.422756405839081,-0.021552931305571815,0.15648464322675446,-1.4233331602125776
1.038714967683193,4.391214040699904,-0.020927944552092886,0.14391883428920774,-1.3676866874687483
1.034391682673322,4.36229140644863,-0.020246198399061107,0.13153482524671847,-1.3049250560880958
1.0302182722595463,4.335948894054276,-0.019500567446421233,0.11934624517568569,-1.234697624382015
1.0262090392775127,4.312144033139369,-0.018682603811040914,0.10736671591865718,-1.1567019504833271
1.0223802499894679,4.290831575740075,-0.017782056075101346,0.09560906883651996,-1.0707169799703908
1.01875058859644,4.271963781586312,-0.016786147668019464,0.08408420881835896,-0.9766483179347204
1.0153418022518597,4.255490982330599,-0.015678484185128034,0.0727995936170059,-0.8745870928088828
1.012179635629025,4.241362495487746,-0.014437388413299142,0.06175742393398513,-0.7648809865856406
1.0092952091034106,4.229527908099502,-0.01303334040207403,0.050952932144507176,-0.6482093856131624
1.0067270899269296,4.219938609215852,-0.011424937469174378,0.04037372389025032,-0.5256428167646567
1.0045245078310534,4.212549145972755,-0.0095520348725045,0.030002116520186143,-0.3986509792337192
1.0027527329204307,4.207317367625066,-0.007322011895330428,0.01982434393400247,-0.2690113323485649
1.001503781022892,4.204200807056218,-0.004572768081229372,0.00985718529311655,-0.13857546367255333
1.000928609952575,4.203139004227527,-0.0009050516360752004,0.0002552225991909931,-0.008923374391141492
