x,y,v_x,v_y,omega
2.375,32.48,0.0,3.948717948717949,-6.530612244897959
2.3734135469085484,31.77856201784022,-0.017627256571682966,3.8450374086129218,-6.0543309488852
2.3689184866408293,31.095343492259516,-0.032317857514087264,3.746279542283782,-5.63056122365875
2.3620009160303646,30.42949200877044,-0.044544038157742404,3.6520702742615194,-5.251855955500095
2.353069346234844,29.780218882124252,-0.054695626236931846,3.5620755773627724,-4.91201335831022
2.342468109945909,29.14679246918821,-0.06309588808456464,3.475995677482136,-4.605839999948748
2.33048821874594,28.52853242747476,-0.07001401413731646,3.393560341556165,-4.328964227663408
2.317376204856257,27.92480474659788,-0.07567502908137962,3.3145250015203134,-4.077688139614763
2.3033413583377214,27.335017418551676,-0.08026771001346171,3.2386675323263825,-3.8488693097356403
2.2885616788412677,26.758616641303973,-0.08395095105824933,3.165785548203672,-3.6398256712503256
2.273188791582427,26.195083471669573,-0.0868589073733112,3.095694114400763,-3.4482585635685337
2.257352024287425,25.643930859764474,-0.0891051736822661,3.0282237956559017,-3.2721901246634117
2.241161801153281,25.104701009927407,-0.09078619447488986,2.963218980311485,-3.1099120869562698
2.2247124783109693,24.576963022805945,-0.09198405932857495,2.900536432149225,-2.959943692618944
2.2080847206467427,24.060310781037643,-0.09276880360727535,2.8400440319430236,-2.8209969426659005
2.1913475004797656,23.55436104711673,-0.09320030935913722,2.7816196782893625,-2.691947774909628
2.1745597832931685,23.058751746991412,-0.09332988160305519,2.725150323103018,-2.57181205876586
2.157771953554209,22.57314041695883,-0.09320155994093864,2.6705311217034517,-2.459725521806565
2.141027023943883,22.097202794716885,-0.09285321350712362,2.6176646809847828,-2.354926899859486
2.124361663518161,21.63063153814887,-0.09231745788979026,2.566460391993203,-2.2567437411853852
2.1078070740357897,21.17313505767431,-0.09162242524766798,2.516833835501891,-2.1645804046696453
2.091389738597279,20.72443644988891,-0.09079241295800972,2.468706251002558,-2.077907878695575
2.0751320626020284,20.284272521806834,-0.08984843143366203,2.4220040610205067,-1.9962551164625588
2.059052923654661,19.852392896365878,-0.08880866798152934,2.376658443879001,-1.9192016388170494
2.043168144287339,19.42855919100279,-0.08768888054427151,2.3326049490442102,-1.8463712001281762
2.027490899093674,19.01254426208731,-0.08650273271867406,2.2897831500166763,-1.7774263486392459
2.0120320659977144,18.604131508846905,-0.08526207945865164,2.2481363304322506,-1.7120637418287281
1.99680052983348,18.203114231142138,-0.08397721125506583,2.2076111996207417,-1.650010100997859
1.9818034451266588,17.809295036083462,-0.08265706326516906,2.1681576343644995,-1.5910187086473742
1.967046463902264,17.422485289029026,-0.0813093947836613,2.129728444018146,-1.534866368064128
1.9525339334514085,17.04250460498171,-0.07994094355918055,2.0922791565075873,-1.4813507575826526
1.9382690682455603,16.669180376823164,-0.07855755872801827,2.0557678230318106,-1.4302881227518875
1.9242540995621795,16.302347337190508,-0.0771643155317702,2.0201548395532405,-1.3815112585498779
1.9104904058607513,15.94184715112575,-0.07576561448409884,1.985402783388536,-1.3348677411907741
1.8969786265060358,15.587528036914126,-0.07436526723496123,1.951476263407267,-1.2902183752334273
1.8837187610618886,15.239244412781062,-0.07296657103334067,1.9183417825156655,-1.2474358268506616
1.8707102560629423,14.89685656734212,-0.07157237339939794,1.8859676112503712,-1.2064034184320866
1.8579520809033343,14.560230351900337,-0.07018512837402129,1.8543236714360976,-1.1670140633165844
1.8454427942537857,14.229236892863426,-0.06880694550985361,1.8233814289740324,-1.1291693225018804
1.8331806022242274,13.903752322712343,-0.06743963259634762,1.7931137949268872,-1.0927785677547446
1.8211634093235454,13.583657528095092,-0.0660847329667877,1.7634950341536797,-1.0577582377257255
1.8093888631263613,13.268837913747081,-0.06474355811303638,1.7345006808241978,-1.0240311755221683
1.7978543934354592,12.959183181053913,-0.06341721623031961,1.7061074602110233,-0.9915260377663518
1.7865572466243358,12.654587120175378,-0.06210663722660854,1.678293216217148,-0.9601767665063939
1.7754945157548505,12.35494741474228,-0.06081259465656154,1.6510368441505912,-0.9299221164929151
1.7646631669878783,12.060165458221288,-0.05953572497646361,1.624318228304878,-0.9007052313149638
1.7540600627383807,11.770146181118662,-0.05827654446239876,1.5981181839465057,-0.872473262729859
1.743681981968884,11.484797888262136,-0.05703546408756293,1.572418403348226,-0.8451770282447035
1.7335256379656574,11.204032105462137,-0.05581280261495683,1.5472014055406766,-0.8187707026301756
1.7235876938988204,10.92776343490982,-0.054608798127674864,1.5224504894850557,-0.7932115395847633
1.71386477643025,10.655909418720473,-0.0534236181897765,1.4981496903965785,-0.76845962023244
1.704360065454909,10.388391960752891,-0.0521842815362324,1.4742665092432108,-0.7426004028007227
1.6950758296581097,10.12513556361235,-0.050973893983760316,1.4508045700961225,-0.7178312478316186
1.6860069052659186,9.866065668741896,-0.04979193259614016,1.4277498173533778,-0.6940939958365728
1.6771482248430671,9.611110194153806,-0.04863784987998845,1.4050887891809567,-0.6713341769339011
1.6684948212189288,9.360199430403277,-0.047511079277104934,1.3828085858249293,-0.649500739274203
1.660041830490412,9.11326594208506,-0.04641103992863348,1.360896839933029,-0.6285458001359203
1.6517844942247617,8.870244474504716,-0.045337140800815724,1.3393416887374758,-0.6084244175789433
1.6437181609701041,8.631071865201644,-0.04428878425093717,1.31813174796332,-0.589094380761002
1.6358382871683101,8.395686960024541,-0.043265369102328255,1.297256087337842,-0.5705160172141274
1.628140437553109,8.164030533481327,-0.04226629328879399,1.2767042075867454,-0.5526520155496819
1.6206202851061882,7.936045213105427,-0.04129095612143725,1.2564660188121621,-0.5354672622128925
1.6132736106350656,7.7116754075983,-0.040338760224369455,1.2365318201559052,-0.5189286910436999
1.6060963020286594,7.490867238524952,-0.03940911318014456,1.2168922806590825,-0.5030051445220141
1.5990843532395742,7.273568475354381,-0.0385014289208014,1.1975384212361662,-0.48766724568383124
1.5922338630360564,7.059728473651205,-0.037615128896063395,1.1784615976879882,-0.4728872797916123
1.5855410335612308,6.84929811623773,-0.0367496430464445,1.159653484683944,-0.45863908492914934
1.5790021687325397,6.642229757157764,-0.035904410605676514,1.1411060606490016,-0.44489795076899696
1.5726136725101736,6.438477168284717,-0.03507888075394706,1.122811593495977,-0.4316405248304238
1.5663720470596403,6.237995488426762,-0.03427251314086694,1.1047626271479802,-0.41884472560863023
1.560273890830428,6.040741174791442,-0.033484778294826434,1.0869519688000149,-0.4064896620124602
1.5543158965698862,5.846671956680918,-0.03271515793341269,1.0693726768724585,-0.39455555859869135
1.5484948492889763,5.655746791297265,-0.03196314518781168,1.0520180496125717,-0.3830236861368314
1.5428076241943411,5.467925821544831,-0.031228244752577874,1.0348816143033468,-0.3718762970797053
1.5372511845992372,5.28317033572376,-0.03050997297079798,1.0179571170418997,-0.36109656555247355
1.5318225798241523,5.101442729015282,-0.029807857863479056,1.0012385130522776,-0.3506685315064877
1.526518943096455,4.922706466665577,-0.0291214391109363,0.9847199575000106,-0.34057704871494343
1.5213436684578465,4.747151194086371,-0.028381612429157838,0.9658941822689452,-0.3806979216687779
1.5162969677367997,4.574975496018737,-0.0276928400269183,0.9471691295936311,-0.4219214318278821
1.5113698138953056,4.406161464995588,-0.027053313767460063,0.9285423262191523,-0.46414715573651605
1.5065535050042795,4.240691629973263,-0.026461229466163513,0.9100113962511416,-0.5072759456988222
1.5018396633760758,4.078548939008218,-0.025914788624988506,0.8915740589160314,-0.551209706944794
1.4972202344084489,3.9197167423050807,-0.02541219990420025,0.8732281266743889,-0.5958511752318129
1.4926874851859724,3.7641787755722795,-0.024951680345538765,0.8549715036900729,-0.641103693874272
1.488234002882592,3.611919143620689,-0.024531456358688045,0.836802184660917,-0.6868709891640048
1.4838526930070546,3.462922304139422,-0.0241497644806178,0.8187182540198125,-0.7330569431056168
1.4795367775314414,3.3171730515809728,-0.023804851915083625,0.8007178855184944,-0.7795653623428076
1.4752797929419308,3.1746565010854013,-0.023494976857255975,0.7827993422100731,-0.826299742093643
1.4710755882502307,3.0353580723699523,-0.02321840860607826,0.7649609768504632,-0.8731630238436919
1.4669183230038785,2.899263473506501,-0.0229734274645017,0.7472012327434253,-0.9200573454650506
1.4628024653338072,2.766358684504283,-0.022758324425179003,0.7295186450590151,-0.9668837823354852
1.4587227900782573,2.636629940609488,-0.022571400636487257,0.7119118426609409,-1.0135420779240816
1.4546743770232964,2.510063715226373,-0.022410966640856442,0.6943795504847676,-1.059930362186608
1.4506526093019354,2.3866467023562876,-0.02227534137426351,0.6769205925161905,-1.1059448559739198
1.4466531719961386,2.2663657984414094,-0.02216285091236828,0.6595338954268914,-1.1514795594986806
1.4426720509889694,2.149208083488844,-0.02207182694506666,0.6422184929349442,-1.1964259227279948
1.4387055321177686,2.0351608013376215,-0.022000604957162967,0.6249735309675482,-1.2406724953707315
1.4347502006836723,1.924211338916077,-0.02194752208835327,0.6077982737162604,-1.2841045539070859
1.430802941378058,1.816347204319591,-0.021910914640694407,0.5906921106891219,-1.3266037028631616
1.426860938692744,1.7115560035183321,-0.02188911519612796,0.5736545648804221,-1.3680474472645443
1.4229216778880618,1.609825415481307,-0.021880449300342393,0.5566853021976391,-1.4083087329101989
1.4189829466014343,1.511143165475918,-0.021883231662184744,0.5397841423066995,-1.4472554507931321
1.4150428371889507,1.4154969962709778,-0.02189576180985346,0.522951071081519,-1.4847499016606391
1.4110997499038174,1.3228746369351398,-0.021916319136075422,0.5061862548722394,-1.5206482163610902
1.40715239702869,1.2332637688811197,-0.021943157254226825,0.4894900568391064,-1.5547997272769911
1.4031998080939965,1.1466519887583644,-0.021974497575702072,0.472863055635963,-1.5870462858127687
1.3992413363316856,1.0630267677418992,-0.022008522005529,0.45630606676922353,-1.6172215206170628
1.3952766665337701,0.9823754067022072,-0.02204336463797666,0.43982016700514487,-1.6451500310135176
1.3913058245078826,0.9046849866692277,-0.02207710231632914,0.4234067222501764,-1.6706465100511363
1.3873291883483576,0.8299423139220075,-0.02210774390061479,0.4070674193855927,-1.6935147917537268
1.3833475017716124,0.7581338589435589,-0.022133218063221823,0.39080430259714993,-1.7135468176776931
1.379361889799556,0.6892456883777704,-0.02215135940407252,0.37461981480051226,-1.7305215189682757
1.3753738771153166,0.6232633890120169,-0.02215989264303374,0.3585168448189527,-1.7442036120132527
1.3713854094629458,0.560171982687109,-0.022156414605528845,0.34249878101337367,-1.7543423089338004
1.3673988785186102,0.4999558309084371,-0.02213837366486774,0.3265695720829859,-1.7606699491132425
1.3634171507274477,0.4425985278055222,-0.022103046236936257,0.31073379572715826,-1.7629005656045065
1.3594436006812287,0.38808277997239315,-0.022047509832163074,0.294996735752081,-1.7607284118303503
1.3554821497123553,0.33639027163753354,-0.021968612044208868,0.2793644679685811,-1.7538264913301613
1.3515373105076005,0.28750151359014353,-0.02186293467528836,0.2638439547801737,-1.7418451590948079
1.3476142387128702,0.2413956743776211,-0.021726751932824976,0.2484431475811929,-1.7244109011867588
1.3437187927282972,0.19805039256440438,-0.021555981229096407,0.23317109478784423,-1.7011254555846338
1.3398576032137484,0.15744156942275112,-0.021346124488113072,0.21803805123048595,-1.6715655198179598
1.3360381542917055,0.11954314249247489,-0.02109219686791997,0.20305558132812057,-1.6352834118937816
1.3322688791355315,0.08432684227204845,-0.02078863820068052,0.18823664334329204,-1.5918092270938315
1.32855927371242,0.051761937290088156,-0.02042919983389028,0.1735956342340264,-1.5406552874483483
1.3249200341548306,0.021814977532429225,-0.02000679525043787,0.1591483630732594,-1.4813240426931122
1.3213632259661112,-0.005550446542500254,-0.01951329573533351,0.1449119044259951,-1.4133210849085003
1.3179024976951725,-0.030373901382951374,-0.018939240608428998,0.1309042604679059,-1.3361756103584128
1.314553358942605,-0.052698220755779346,-0.018273412197877054,0.11714373256354418,-1.2494714889947591
1.3113335543725917,-0.07256946541821918,-0.01750219413560482,0.10364787479687344,-1.1528929557610372
1.3082635846493007,-0.09003664430429836,-0.016608580567629233,0.09043189060397866,-1.0462894026754919
1.3053674563828797,-0.10515108881434543,-0.015570622392605041,0.07750638172985841,-0.9297627997182988
1.3026737935403867,-0.11796537327570178,-0.014358964746205282,0.06487455672968645,-0.803776781244374
1.3002175260337447,-0.1285317400145729,-0.012932896438705904,0.05252951814664319,-0.6692748737928771
1.2980425224193701,-0.13690019535304998,-0.011233810387678912,0.040453318947542595,-0.5277730193688218
1.2962058763491635,-0.14311692671213194,-0.009173368170173309,0.02862147393115988,-0.38136014230865656
1.2947856301643377,-0.14722474617790482,-0.0066071449945589895,0.017020964577401473,-0.23251673411846105
1.2938986648696005,-0.14927050107104378,-0.0032480249469650367,0.005709645346376654,-0.08367897284934883
