x,y,v_x,v_y,omega
2.375,32.48,0.0,2.4615384615384617,-6.408163265306122
2.3734870191332846,31.920260671022103,-0.013156355362743092,2.4057600513127873,-6.025280285784589
2.369157536910468,31.373098263107792,-0.02449131614000881,2.3521739305507814,-5.676355570572077
2.362402721041034,30.838025606517288,-0.034246213159419205,2.30063177893188,-5.357427506677775
2.3535622812306456,30.314587932081885,-0.042627176496132645,2.2510001726803015,-5.065089507854974
2.3429318994961563,29.802359684622168,-0.04981092554290329,2.2031585008824606,-4.79639982192257
2.3307694530780925,29.300941772706388,-0.055949478092434245,2.156997254906928,-4.548808067011361
2.31730025221776,28.80995917805525,-0.06117400764958935,2.1124166116247007,-4.320094991533302
2.302721468659871,28.329058863952802,-0.06559802328857556,2.0693252501357255,-4.108322774519296
2.2872058952743273,27.857907934278394,-0.06932000615093394,2.027639355728678,-3.9117937914484733
2.2709051497819654,27.39619200421658,-0.07242560682612356,1.987281775243638,-3.729016226433658
2.253952414173174,26.94361375104013,-0.07498948542423951,1.9481812958559155,-3.558675256626085
2.236464784552444,26.49989161911303,-0.07707685910384325,1.9102720252493073,-3.399608798442671
2.2185452927516995,26.064758657804425,-0.07874480872872011,1.873492855695075,-3.2507870086731914
2.2002846503371516,25.63796147462297,-0.08004338618039313,1.8377869980566996,-3.1112948917898637
2.1817627569958713,25.219259288783515,-0.08101655591769677,1.8031015744602934,-2.980317488849711
2.1630500082817155,24.8084230727634,-0.08170299811843852,1.769387260497238,-2.8571272213379104
2.144208431984642,24.405234771313683,-0.0821367957691549,1.7365979695002953,-2.7410730411576054
2.125292677700216,24.0094865889535,-0.08234802409542122,1.7046905727621642,-2.631571100235265
2.1063508803135513,23.620980338263962,-0.08236325752775094,1.673624650625102,-2.5280967032901813
2.0874254149146663,23.239526842366622,-0.08220600681038052,1.6433622702213355,-2.430177347812301
2.0685535580046723,22.86494538586301,-0.08189709675478284,1.613867786331851,-2.337386688202574
2.04976806763477,22.49706320925994,-0.08145499341827982,1.5851076623904468,-2.249339287900843
2.0310976932631357,22.135715042536546,-0.08089608807419531,1.557050309117336,-2.165686045362988
2.012567624554622,21.780742674044134,-0.08023494417374645,1.5296659386427858,-2.0861101978961973
1.9941998870332154,21.431994551386587,-0.07948451253413934,1.5029264322923892,-2.010323822363956
1.9760136913855495,21.08932541131958,-0.07865631918469441,1.4768052204642028,-1.9380647642213318
1.9580600788557032,20.752604018792823,-0.07746205064005515,1.4512068884641383,-1.861336378759727
1.9403843523617634,20.421704235835826,-0.07623991887246534,1.4261825285532155,-1.7885210665443787
1.9229921976577433,20.096496679953333,-0.0749962089885795,1.4017092617293418,-1.7193685814202746
1.9058879422167014,19.77685709366908,-0.07373644702047849,1.3777654016120087,-1.6536477284282003
1.8890747198508255,19.462666079303997,-0.07246548659583396,1.3543303754756477,-1.5911446834442569
1.8725546165727756,19.153808851186945,-0.07118758538721066,1.331384651629167,-1.5316614809367717
1.856328799902425,18.85017500390793,-0.06990647261583678,1.3089096725361666,-1.475014651047907
1.840397633549328,18.551658295355445,-0.06862540871544036,1.2868877931376321,-1.4210339895277393
1.8247607791636917,18.258156443396388,-0.06734723811618126,1.2653022238976346,-1.3695614460552832
1.8094172866422147,17.969570935161606,-0.06607443598361802,1.2441369781439493,-1.3204501182200197
1.7943656742955036,17.685806847993184,-0.06480914963995583,1.2233768233205855,-1.2735633399477615
1.7796040000271856,17.406772681193296,-0.06355323530194015,1.2030072358088655,-1.2287738544688707
1.7651299245381682,17.13238019778928,-0.06230829068951461,1.183014359008644,-1.1859630630725944
1.7509407674500332,16.862544275597045,-0.06107568398992037,1.1633849644021401,-1.1450203418920544
1.7370335571369941,16.597182766925524,-0.05985657960172492,1.144106415350209,-1.1058424198401329
1.7234050749642282,16.336216366319807,-0.05865196103102083,1.125166633395147,-1.068332811584106
1.7100518945500003,16.079568485789807,-0.05746265126661343,1.1065540668657163,-1.0324013001208743
1.6969704165983703,15.82716513701633,-0.056289330921473806,1.0882576615992998,-0.9979634641074031
1.6841568997871756,15.578934820066884,-0.05513255439326086,1.070266833613278,-0.9649402456231516
1.671607488141289,15.334808418190455,-0.05399276426662442,1.0525714435730624,-0.9332575545019416
1.6593182352729516,15.094719098293986,-0.05287030415369955,1.0351617729179898,-0.9028459057777614
1.647285125828465,14.858602216733775,-0.0517654301461844,1.0180285015186172,-0.8736400871491802
1.6355040944429478,14.626395230082878,-0.05067832103222603,1.0011626867500645,-0.8455788536862169
1.6239710424716725,14.398037610560877,-0.04960908741364709,0.9845557438760348,-0.8186046472867218
1.612691808688112,14.173595656479204,-0.04847120635644271,0.9671134220515631,-0.814479233985886
1.6016698972909675,13.953149911284406,-0.04737150144481394,0.9498061013814731,-0.8130694795706442
1.590896519151567,13.736669805239444,-0.046310047593451587,0.9326296033573263,-0.8142277892745566
1.5803628843120274,13.524125708702496,-0.045286777098197034,0.9155799317465857,-0.8178116665764323
1.570060233304036,13.315488891240374,-0.044301492536509876,0.898653263576212,-0.8236833477541111
1.5599798656215806,13.11073148273654,-0.04335387861527645,0.8818459408049396,-0.831709453174543
1.5501131655804956,12.90982643633993,-0.04244351304633348,0.8651544626438277,-0.8417606537097013
1.5404516257799705,12.71274749310965,-0.041569876523449886,0.8485754784890603,-0.8537113507562786
1.5309868683649086,12.51946914821837,-0.04073236186839206,0.8321057814351002,-0.8674393684138584
1.5217106642731189,12.329966618584209,-0.039930282408040065,0.8157423023402133,-0.8828256564420209
1.5126149506376776,12.14421581180677,-0.03916287963927617,0.7994821044201305,-0.8997540026721994
1.5036918465023095,11.962193296288294,-0.03842933023348924,0.7833223783492239,-0.9181107535955205
1.4949336669962396,11.783876272425143,-0.03772875242798744,0.7672604378521055,-0.9377845418836672
1.4863329361045758,11.609242544758366,-0.03706021184735108,0.7512937157720269,-0.9586660196262563
1.4778823981608493,11.438270494974901,-0.03642272679375041,0.7354197606059261,-0.980647596085458
1.469575028179799,11.270939055652782,-0.03581527304146841,0.7196362334994637,-1.0036231787766547
1.4614040411407938,11.107227684644965,-0.03523678816727251,0.7039409056989596,-1.0274879166827946
1.4533629003254007,10.947116339996587,-0.03468617544484251,0.6883316564608364,-1.052137944399612
1.445445324806506,10.790585455289943,-0.03416230732815358,0.6728064714230373,-1.0774701259888346
1.4376452961810353,10.63761591530989,-0.03366402854550489,0.6573634414469768,-1.103381797286578
1.4299570646336865,10.488189031920047,-0.03319015882274484,0.6420007619429557,-1.1297705053739486
1.4223751544151892,10.342286520036488,-0.03273949525114427,0.6267167326967021,-1.1565337438659953
1.4148943688153957,10.199890473581085,-0.03231081431227827,0.6115097582198505,-1.183568682613032
1.4075097947090298,10.060983341290726,-0.031902873569162535,0.5963783486528406,-1.210771890334456
1.4002168067501586,9.925547902251328,-0.03151441302971882,0.5813211212549813,-1.2380390486189161
1.3930110712904222,9.793567241016813,-0.031144156185379482,0.5663368025234122,-1.2652646556254954
1.3858885500958156,9.665024722162713,-0.030790810724244635,0.551424230990499,-1.2923417177079533
1.3788455039373442,9.539903964111637,-0.030453068914636124,0.53658236075798,-1.3191614270577128
1.3718784961322843,9.418188812053323,-0.03012960765110283,0.5218102658360725,-1.3456128233210782
1.3649843961150572,9.29986330976498,-0.029819088150872582,0.5071071453669191,-1.3715824369924945
1.3581603831200055,9.184911670117977,-0.029520155284358862,0.49247232982440464,-1.3969539122194998
1.3514039500626707,9.073318244034052,-0.029231436518552124,0.4779052882966782,-1.4216076064783532
1.3447129077116458,8.965067487627934,-0.028951540446881797,0.4634056369739125,-1.4454201643955207
1.3380853892498201,8.86014392724299,-0.028679054873340996,0.448973148982114,-1.4682640628047463
1.3315198553319805,8.758532122051744,-0.02841254441222095,0.43460776572439147,-1.4900071239506956
1.3250150997554526,8.660216623853309,-0.028150547557585955,0.4203096099141613,-1.510511993590794
1.3185702558719545,8.565181933654479,-0.027891573168484705,0.40607900051044,-1.5296355806254767
1.3121848038823134,8.473412454569509,-0.02763409630665501,0.3919164697936469,-1.547228454830755
1.3058585791714648,8.384892440515372,-0.027376553352897945,0.3778227828510162,-1.5631341993149648
1.2995917818595348,8.29960594011358,-0.027117336316058265,0.36379895977328475,-1.5771887145300099
1.2933849877662527,8.21753673513641,-0.026854786234220808,0.3498463008977576,-1.589219471116865
1.287239161010985,8.138668272754654,-0.026587185550715653,0.33596641546534617,-1.5990447096703342
1.2811556685000527,8.062983590756051,-0.02631274932695632,0.322161254087703,-1.6064725868328533
1.2751362965876463,7.990465234810333,-0.026029615128751578,0.308433145440276,-1.6113002692047633
1.2691832702379153,7.921095166760665,-0.025735831390647102,0.29478483760032237,-1.6133129797216226
1.263299275065552,7.85485466282789,-0.02542934402120804,0.28121954442381897,-1.6122830058723348
1.2574874826931097,7.7917242005315295,-0.02510798095655159,0.2677409972836692,-1.6079686860926778
1.2517515799394057,7.731683333074095,-0.024769434293049335,0.25435350234619447,-1.600113400835298
1.2460958024506485,7.674710549924516,-0.02441123952223025,0.24106200330231728,-1.5884446095727287
1.240524973513613,7.620783122406021,-0.024030751234601373,0.2278721490324151,-1.5726729963098625
1.235044548962477,7.5698769332948075,-0.023625114427450532,0.21479036497812673,-1.552491816880723
1.2296606693301253,7.5219662898454125,-0.02319123020169597,0.20182392588616538,-1.5275765853712964
1.2243802207359464,7.477023720391863,-0.022725714095511038,0.1889810258838469,-1.4975853000528976
1.219210906501274,7.435019755899532,-0.022224844466858854,0.1762708392668535,-1.462159498989861
1.2141613322297327,7.395922699806185,-0.021684497024803746,0.16370356154486587,-1.4209265624636014
1.209241108225459,7.3596983925381245,-0.02110005953409729,0.15129041469915008,-1.3735038569925522
1.2044609748755468,7.326309981691786,-0.02046631742166096,0.13904359266032784,-1.3195055598438774
1.199832959358062,7.295717715639324,-0.01977729577385975,0.12697611214368812,-1.258553328532668
1.1953705763301246,7.267878787941942,-0.019026034903855803,0.11510152000746668,-1.190292391862147
1.19108909200496,7.242747273020708,-0.018204263575835926,0.10343339235109035,-1.1144151100929822
1.1870058816336342,7.220274209987171,-0.0173019135661273,0.09198454707096897,-1.0306944728640683
1.1831409269692346,7.200407909462044,-0.016306387863434826,0.08076589227797332,-0.9390300871360946
1.179517525960403,7.183094571336799,-0.015201446995971214,0.06978487402851882,-0.8395083218088989
1.1761633266335816,7.168279294612532,-0.013965503672039905,0.05904361922596882,-0.7324752318675076
1.1731118601001884,7.155907502838744,-0.012568987922683985,0.04853717880695647,-0.6186138836619883
1.170404857464244,7.1459266458376725,-0.010970165433353473,0.038252882071920645,-0.49900509429601464
1.1680958715772074,7.138287682923288,-0.009107972714792089,0.02817288240099998,-0.37513356980440704
1.1662564029738536,7.132945129829139,-0.006887406444807063,0.0182841010263861,-0.24878833822456808
1.1649883981141662,7.129852589251158,-0.004138722769865594,0.008607556173442239,-0.12181275284190038
