x,y,v_x,v_y,omega
2.375,32.48,0.0,2.41025641025641,-2.36734693877551
2.3746687412016043,32.050210804063894,-0.003680653315509742,2.3651791001447053,-2.2555346860291516
2.3737127878368254,31.628419749989252,-0.00694105073758546,2.321388167351348,-2.1513155607690657
2.3722037795033515,31.214400778238836,-0.009825708523236639,2.2788226298754912,-2.0540037316830775
2.370205801911497,30.807938456660825,-0.012374042497370012,2.237425387657953,-1.9629875349543606
2.3677762470249935,30.408827310532782,-0.014621011797113038,2.197142902653663,-1.877720299851699
2.364966565361872,30.01687120720343,-0.01659767334868459,2.1579249121169095,-1.7977124436513963
2.361822925305504,29.631882789736846,-0.018331660610958995,2.1197241708451386,-1.72252464214923
2.3583867920408013,29.253682954670477,-0.019847597885733988,2.0824962187811544,-1.651761914348731
2.354695436861601,28.8821003695982,-0.02116745966093829,2.046199170910857,-1.5850684863801792
2.350782386027348,28.516971026800835,-0.022310882941869267,2.0107935268376194,-1.5221233214614103
2.3466778170277736,28.158137829584952,-0.0232954392756278,1.9762419977833123,-1.462636220662826
2.342408909000688,27.805450208367773,-0.024136872136432452,1.9425093490742373,-1.4063444141033783
2.338000153105615,27.458763763872476,-0.02484930447549028,1.9095622564290684,-1.3530095745544053
2.3334736278562627,27.11793993508126,-0.02544542051731409,1.8773691745844179,-1.3024151957225238
2.32884924373454,26.78284568984056,-0.025936625279603363,1.845900216978926,-1.2543642860900321
2.3241449608286677,26.453353236228736,-0.026333184785644306,1.815127045374638,-1.2086773364092325
2.3193769827420554,26.12933975298637,-0.02664434951004796,1.7850227684294895,-1.1651905250171106
2.314559929594821,25.810687137476144,-0.02687846323700151,1.7555618483507704,-1.123754130255375
2.309706992575133,25.497281769787218,-0.027043059203975046,1.7267200148595132,-1.0842311236083748
2.3048300721838246,25.189014291729443,-0.02714494514389935,1.6984741857824035,-1.046495920839354
2.29993990204528,24.88577939957935,-0.027190278617704584,1.6708023936630894,-1.0104332715219342
2.2950461599240346,24.587475649543137,-0.027184633840580074,1.643683717850383,-0.9759372700177725
2.290157567384401,24.29400527499456,-0.027133061044236274,1.6170982215782395,-0.9429104732167524
2.285281979355261,24.005274014628277,-0.027040139279543025,1.591026893602731,-0.9112631122939652
2.2804264647099965,23.721190950743534,-0.026910023445616545,1.5654515940055118,-0.8809123873990139
2.2755973788392136,23.44166835693993,-0.026746486229749518,1.5403550038123337,-0.8517818356202258
2.2708004290785837,23.166621554566944,-0.026552955555026115,1.5157205781097072,-0.8238007637946768
2.266040733753507,22.89596877732346,-0.02633254805693854,1.4915325023734305,-0.7969037387942333
2.2613238232573387,22.629631840775907,-0.02607756856715248,1.467766792599427,-0.7701130784044905
2.2566542220492,22.36753518674008,-0.025806889301053446,1.4444182522430586,-0.7444553751689896
2.2520345787384626,22.109604973615,-0.0255224808182541,1.421473004702276,-0.7198700097950107
2.2474672041167993,21.85576980502959,-0.025226126089113222,1.3989177573578493,-0.6963002164018922
2.2429541033310905,21.605960627522578,-0.0249194381965424,1.3767397704978497,-0.6736927984412983
2.2384970050279396,21.36011063363889,-0.02460387628290985,1.3549268282098108,-0.6519978683597707
2.234097387769006,21.118155170101428,-0.024280759927462776,1.3334672110952974,-0.6311686087889687
2.2297565039848473,20.880031650742204,-0.02395128211874623,1.3123496706738675,-0.6111610532766816
2.2254754017070333,20.645679473899648,-0.023616520968079,1.291563405354496,-0.5919338847738355
2.2212549442934524,20.41503994401011,-0.02327745029393138,1.2710980378625736,-0.5734482502724084
2.2170958283396502,20.188056197140707,-0.022934949192754954,1.2509435940197067,-0.5556675901491114
2.2129985999493744,19.96467313022857,-0.022589810699199065,1.231090482781819,-0.5385574809122444
2.2089636695199713,19.74483733380783,-0.022242749627501827,1.211529477448584,-0.522085490176342
2.204991325182658,19.528497028020695,-0.021894409675983873,1.192251697964064,-0.5062210428028608
2.2010817450237132,19.31560200172281,-0.02154536986784217,1.1732485942346804,-0.4909352972468195
2.1972350082001744,19.106103554506014,-0.021196150393701724,1.1545119303963312,-0.4762010312403217
2.193451105052435,18.899954441473255,-0.02084721791451504,1.136033769967679,-0.46199253602550616
2.1897299463061715,18.697108820611337,-0.020498990377298732,1.1178064618313843,-0.44828551842270414
2.186071371447045,18.497522202617468,-0.02015184139077204,1.099822626989415,-0.4350570100853919
2.182475156343594,18.30115140304459,-0.0198061042031342,1.0820751460425457,-0.42228528335271126
2.178941020186519,18.107954496639458,-0.01946207531991623,1.0645571473478224,-0.40994977316361947
2.175468631806086,17.917890773755154,-0.01912001779600747,1.0472619958111122,-0.3980310045447559
2.172057615423517,17.730920698727406,-0.018780164232533682,1.0301832822749502,-0.3865105252274408
2.168707555887031,17.547005870110837,-0.01844271950620559,1.0133148134647159,-0.37537084298835
2.1654180034384303,17.36610898267772,-0.018107863256022302,0.9966506024587896,-0.36459536734377496
2.162190377727811,17.188413320299414,-0.017754644639746266,0.9777456461890411,-0.402286840991926
2.1590230745291557,17.01411125487546,-0.017437613123090855,0.9589439696326533,-0.44116792584192677
2.1559096756297564,16.84318442726068,-0.01715570798134674,0.9402430038648745,-0.4811377786355463
2.15284395669222,16.67561493175399,-0.016907835769059645,0.9216402795428071,-0.5220969090873012
2.1498198928091075,16.51138529839505,-0.016692874043300894,0.9031334244453993,-0.5639469634886438
2.1468316634209486,16.350478475672638,-0.016509674714017455,0.8847201613592101,-0.6065905088226268
2.1438736566628713,16.192877813582275,-0.01635706704239779,0.8663983063114876,-0.6499308164466286
2.1409404732015593,16.038567046970304,-0.016233860305513936,0.8481657671548598,-0.6938716443718177
2.1380269296212044,15.887530279100385,-0.016138846142875394,0.8300205425108866,-0.7383170171310458
2.1351280614145316,15.739751965376943,-0.016070800597931475,0.811960721082904,-0.7831710021812088
2.1322391256328714,15.595216897157798,-0.016028485864960283,0.7939844813520467,-0.828337481731119
2.1293556032476006,15.453910185585443,-0.016010651749157192,0.7760900916741396,-0.873719918820814
2.1264732012741216,15.31581724536283,-0.01601603684505517,0.7582759107993408,-0.9192211164020904
2.123587854708859,15.18092377839519,-0.01604336943564255,0.7405403888411013,-0.9647429680818803
2.120695728329602,15.049215757214128,-0.016091368111657865,0.7228820687262407,-1.0101861990887753
2.1177932184098776,14.92067940809402,-0.01615874210749972,0.7052995881638369,-1.055450095907281
2.114876954398977,14.795301193763319,-0.016244191346952624,0.6877916821773024,-1.1004322228929242
2.1119438006207902,14.673067795604716,-0.016346406188452903,0.6703571862515965,-1.1450281240326636
2.108990858046803,14.553966095228017,-0.016464066855853568,0.6529950401561618,-1.1891310078476747
2.1060154662014874,14.437983155287696,-0.016595842536537935,0.635704292514044,-1.2326314132479301
2.1030152052620195,14.325106199403525,-0.016740390124217654,0.618484106198965,-1.2754168539386044
2.0999878984187514,14.21532259102666,-0.016896352578761924,0.6013337646550989,-1.3173714387458502
2.0969316145683754,14.108619811075272,-0.017062356869862304,0.5842526792492211,-1.3583754649729516
2.093844671418224,14.004985434142455,-0.01723701146515252,0.56724039778206,-1.398304981616819
2.0907256390878777,13.90440710305458,-0.017418903316472816,0.5502966143054301,-1.4370313189698143
2.087573344303279,13.806872501529792,-0.017606594290176993,0.5334211804144336,-1.474420580805002
2.08438687528909,13.712369324653583,-0.01779861697859229,0.5166141182101168,-1.5103330949983893
2.0811655874772343,13.620885246850463,-0.0179934698198009,0.4998756351578791,-1.5446228180872412
2.0779091101637053,13.532407886987151,-0.01818961144163295,0.4832061411011237,-1.5771366889117477
2.0746173542619952,13.446924770192485,-0.018385454132924292,0.4666062677285168,-1.6077139261581759
2.071290521320293,13.364423285921578,-0.01857935633043242,0.4500768908371244,-1.6361852643457302
2.0679291139911853,13.284890641725788,-0.018769613992989702,0.4336191557827822,-1.662372122622747
2.0645339481674583,13.208313812114653,-0.01895445071508444,0.41723450656314326,-1.6860857007290238
2.061106167026242,13.134679481810622,-0.0191320064095448,0.4009247190371924,-1.7071259967410097
2.057647257256748,13.06397398260114,-0.019300324362609204,0.3846919388459331,-1.7252807418933493
2.054159067785112,12.996183222885676,-0.01945733643334825,0.3685387246592198,-1.7403242490803958
2.0506438313542636,12.931292608897852,-0.019600846131634285,0.35246809742769875,-1.752016173900882
2.047104189368804,12.86928695645722,-0.019728509262363213,0.33648359635711506,-1.7601001907790965
2.043543220476346,12.810150391975423,-0.019837811764942065,0.32058934232950664,-1.764302592449776
2.0399644734304356,12.753866241315482,-0.01992604430073222,0.3047901094476018,-1.7643308299147393
2.0363720048699006,12.700416904993908,-0.019990273038543324,0.28909140523656246,-1.7598720233049538
2.0327704227613386,12.649783718145919,-0.02002730594547947,0.27349955974110457,-1.750591494016766
2.0291649363946194,12.601946793680025,-0.020033653684737193,0.2580218232132928,-1.736131398116711
2.0255614140105553,12.55688484718689,-0.020005483915973645,0.2426664711548705,-1.7161095848327608
2.0219664493988088,12.514575002528172,-0.019938567325651406,0.22744291394199254,-1.6901188685444444
2.018387439171209,12.474992577751799,-0.019828212981017744,0.21236180579549632,-1.6577269975760542
2.0148326729543,12.438110852271318,-0.01966918942907908,0.19743514398761847,-1.61847774192684
2.01131143956023,12.403900818423757,-0.019455626060585655,0.1826763432075002,-1.571893723956169
2.007834153462115,12.372330924045603,-0.019180886140696157,0.16810026099422365,-1.517481906745505
2.0044125079114865,12.343366818236714,-0.018837397755173988,0.15372313688230205,-1.454743066597485
2.001059664279931,12.316971120897335,-0.018416420373218813,0.1395623891107809,-1.3831871429114628
1.9977904924970002,12.293103248981616,-0.017907710548234944,0.12563618773052623,-1.3023570998295166
1.9946218861308065,12.27171934967917,-0.017299026853917796,0.11196269340775597,-1.2118648097601936
1.991573189893373,12.25277241297048,-0.01657537578423222,0.09855882557771348,-1.1114432750950833
1.988666800638523,12.236212660311523,-0.015717838158545862,0.08543842618848008,-1.0010196515519874
1.9859290408443142,12.221988322330855,-0.014701715110440449,0.07260977359671218,-0.8808116516628853
1.9833914656448979,12.210046900443754,-0.013493564883076022,0.060072691815526935,-0.7514433220745966
1.9810928705015733,12.200336900823139,-0.012046381153863002,0.04781619285797614,-0.6140609321740608
1.979082473809079,12.192809735952927,-0.010291359873848356,0.03581897236660891,-0.47040295969824625
1.977425275681162,12.187420835304398,-0.00812195265856411,0.024057701505939402,-0.32274589095552875
1.9762124820895675,12.184127472022663,-0.0053535316924860415,0.012535223846666664,-0.17363347471477344
1.9755906271087191,12.182874326789175,-0.0015559680947197048,0.0013886120809822149,-0.02535717367906576
