x,y,v_x,v_y,omega
2.375,32.48,0.0,3.5384615384615383,-7.63265306122449
2.3727519856545545,31.747106478008973,-0.021409660432815947,3.4414767662148678,-7.051522551622002
2.3663962080715963,31.034064747759565,-0.03912155464297562,3.349396855208092,-6.537459906285887
2.356644214431193,30.33988740358976,-0.053754575265626256,3.261815946409075,-6.080505349628686
2.3440894470973985,29.66366714559333,-0.06581463743717678,3.1783769868902865,-5.67244854096543
2.329228563681603,29.004567378755013,-0.07571758557040342,3.098763649665083,-5.306477032299303
2.312478490399958,28.361814328538586,-0.08380692187383193,3.022693971443752,-4.976904226704777
2.2941901590415106,27.734690358018703,-0.09036766249233393,2.9499152716027544,-4.6789568042880365
2.274659642118906,27.122528250157487,-0.0956372605800925,2.880200041361233,-4.408607163310248
2.2541372300548295,26.52470627509595,-0.09981428288730143,2.8133425782724006,-4.162440299626472
2.232834868725014,25.940643903268622,-0.1030653488252282,2.7491562010354964,-3.9375472845174606
2.2109322821282733,25.369798055360462,-0.10553071400087291,2.68747092189938,-3.7314394629968892
2.1885820344120015,24.81165980272409,-0.10732878805885655,2.6281314841613095,-3.5419789202135497
2.1659137317332515,24.265751448999005,-0.10855980888162202,2.5709956941728422,-3.3673218119355814
2.1430375231031986,23.731623936810152,-0.10930884473793073,2.5159329933400287,-3.2058719345688824
2.120047027315253,23.20885453361753,-0.10964825800440423,2.4628232275420965,-3.0562424954709275
2.097021788023713,22.69704475878788,-0.10963973524835793,2.411555580359341,-2.917224487822621
2.0740293393538205,22.195818520302513,-0.10933596636966716,2.362027643310802,-2.7877604131585856
2.051126948848191,21.704820434594307,-0.108782038445851,2.31414460152926,-2.666922355502888
2.028363092161335,21.223714307111578,-0.10801659666706323,2.2678185173538674,-2.553893613276179
2.005778704001894,20.752181754552588,-0.1070728143752334,2.2229676974936448,-2.4479532529306747
1.9834082418563357,20.289920952463934,-0.10597920605865534,2.179516131922131,-2.3484630721398867
1.9612805925972705,19.83664549417262,-0.10476031069434652,2.137392994661828,-2.2548565581640982
1.9394198468664874,19.39208334891969,-0.1034372676940635,2.0965321982232132,-2.1666295046308996
1.9178459618799848,18.955975908656015,-0.10202830360596284,2.0568719947641356,-2.0833320118841665
1.8965753298361512,18.52807711430558,-0.10054914443054698,2.018354618097165,-2.004561645676207
1.875621266266596,18.108152653443156,-0.09901336575569324,1.9809259615449544,-1.9299575689257906
1.8549944303315364,17.695979222307574,-0.09743269076868387,1.9445352873653592,-1.859195493562588
1.83470318713253,17.291343845907,-0.09581724445995018,1.9091349640686692,-1.7919833256975102
1.8147539205183891,16.894043250692327,-0.09417577091281985,1.8746802284520303,-1.7280573987254642
1.7951513035342561,16.50388328489695,-0.09251581941225506,1.841128969599192,-1.6671792064448185
1.7758985325598973,16.120678382181623,-0.090843904153068,1.8084415324515377,-1.6091325626253894
1.7569975302616574,15.74425106469387,-0.08916564154445328,1.7765805388604106,-1.553721125275042
1.73844912171108,15.374431482063049,-0.08748586846104621,1.7455107242902757,-1.5007662336220637
1.7202531873758289,15.011056983213276,-0.0858087442556301,1.7151987885646849,-1.4501050139280016
1.7024087961440024,14.653971718193954,-0.0841378389046227,1.6856132592383812,-1.4015887169796655
1.6849143210837672,14.303026267507793,-0.08247620928809364,1.6567243663441225,-1.3550812557256864
1.6677675402522292,13.95807729666403,-0.08082646529798056,1.6285039274059923,-1.3104579162212273
1.6509657245388305,13.618987233904182,-0.07919082721057838,1.6009252417354114,-1.267604218985284
1.6345057142496535,13.285623969242835,-0.07757117554348907,1.573962993134576,-1.2264149111894667
1.6183839859018212,12.957860573139879,-0.07596909443586777,1.5475931602269188,-1.1867930728920792
1.602596710495052,12.635575033275728,-0.0743859094381236,1.52179293371736,-1.1486493228941086
1.5871398043548655,12.318650008039793,-0.07282272046841677,1.4965406399582204,-1.1119011117961322
1.572030191524516,12.006976296900291,-0.07107835410633731,1.4717804185132097,-1.0706806808385945
1.557282675137516,11.700448672150646,-0.06937418291271219,1.4475302933881609,-1.0314148048481042
1.5428888453976786,11.398961993367113,-0.06770990984764481,1.42377140931215,-0.9939870271710971
1.5288403662333239,11.102414985286948,-0.06608512981287537,1.400485810498929,-0.9582891508493988
1.5151289961062133,10.810710054580905,-0.06449934758817667,1.377656386701494,-0.9242205599132529
1.5017466053049253,10.523753117548566,-0.06295199337647182,1.3552668231303262,-0.891687603877414
1.488685190192096,10.241453437959045,-0.06144243626952,1.3333015539127269,-0.8606030388769227
1.4759368848138505,9.963723474324059,-0.059969995904248674,1.3117457188014368,-0.8308855196296832
1.4634939702267968,9.690478735948748,-0.058533952543881204,1.29058512286821,-0.8024591370699147
1.451348881852048,9.421637647158619,-0.05713355578706184,1.2698061989425604,-0.7752529970725645
1.4394942151258499,9.157121419148972,-0.05576803208149118,1.2493959725778896,-0.749200836194621
1.4279227296817616,8.896853928946868,-0.054436591195539744,1.2293420293469206,-0.7242406708042072
1.4166273522691846,8.640761605015403,-0.05313843178138528,1.2096324842860708,-0.7003144763602859
1.4056011785868114,8.38877331906631,-0.051872746145976985,1.190255953324325,-0.6773678939516005
1.394837474186709,8.140820283679872,-0.05063872433119113,1.1712015265465154,-0.6553499615089878
1.3843296745848173,7.8968359553613325,-0.04943555759158545,1.1524587431538542,-0.6342128673755011
1.3740713846962753,7.656755942690573,-0.04826244134690986,1.13401756799625,-0.6139117241582696
1.3640563776987906,7.420517919247008,-0.04711857767675441,1.1158683695615061,-0.5944043609984889
1.3542785934140293,7.188061541014864,-0.04600317741621071,1.098001899316062,-0.5756511325846855
1.3447321362854054,6.959328367995113,-0.04491546190401784,1.0804092723006204,-0.55761474340229
1.3354112730205214,6.734261789769903,-0.04385466442821095,1.0630819488918624,-0.5402600858620886
1.3263104299576498,6.5128069547831515,-0.042820031408662695,1.0460117176486117,-0.5235540910834582
1.3174241902078858,6.2949107031174805,-0.041810823350994925,1.0291906791673104,-0.5074655912273442
1.3087472906178164,6.080521502562764,-0.04082631560204702,1.012611230877593,-0.4919651923803532
1.3002746185916012,5.869589387785631,-0.039865798933336014,0.9962660527141415,-0.47702515708655974
1.2920095055695149,5.66220603666018,-0.03884956318177181,0.9788134818139731,-0.48948956824223355
1.2839530507736123,5.458475338167865,-0.03787857773158575,0.961478884779486,-0.5040274382670834
1.2760958303988252,5.258372868467035,-0.036952092504481365,0.9442589218950938,-0.5205198325868412
1.2684285856194168,5.061874890964003,-0.036069286347026996,0.9271503876575988,-0.5388512503570433
1.2609422367420557,4.868958328737833,-0.03522927438974473,0.91015020497259,-0.5589093581952
1.2536278958793736,4.6796007381358145,-0.034431114778655396,0.8932554198085448,-0.5805847333989613
1.2464768782709212,4.493780283445737,-0.03367381482565375,0.8764631962874297,-0.6037706155788406
1.2394807123691078,4.311475712555257,-0.03295633662018902,0.8597708121933479,-0.62836266567267
1.232631148799174,4.132666333512191,-0.03227760214108563,0.8431756548834601,-0.6542587313402807
1.2259201682944474,3.9573319919026844,-0.03163649790392847,0.8266752175880147,-0.6813586177611225
1.2193399887010306,3.785453048966609,-0.031031879176231243,0.8102670960889072,-0.7095638628747695
1.2128830711396204,3.6170103603715518,-0.030462573789579464,0.7939489857687672,-0.7387775161145576
1.2065421254063322,3.4519852555681894,-0.02992738557506856,0.7777186790251733,-0.7689039196879262
1.2003101146891602,3.2903595176505824,-0.029425097445618515,0.7615740630472647,-0.7998484914532963
1.194180259672028,3.1321153636453687,-0.028954474146117706,0.7455131179547624,-0.8315175084323405
1.1881460420942558,2.9772354251533777,-0.028514264689807292,0.7295339153022987,-0.8638178899780337
1.1822012078296575,2.825702729266361,-0.028103204496841793,0.7136346169549943,-0.8966569795926036
1.1763397695463937,2.677500679679916,-0.0277200172485287,0.697813474344476,-0.9299423243550285
1.1705560090061229,2.532613037921351,-0.027363416468337256,0.6820688281180411,-0.9635814508745779
1.1648444790589207,2.3910239046082182,-0.02703210683834982,0.6663991081974949,-0.9974816366345175
1.1592000053888687,2.252717700649299,-0.026724785257384014,0.6508028342683879,-1.0315496755278817
1.1536176880641695,2.117679148294993,-0.026440141644513217,0.6352786167250183,-1.065691636314445
1.148092902945137,1.9858932519381831,-0.026176859489129307,0.6198251581017274,-1.099812612643972
1.142621303003449,1.8573452785596878,-0.0259336161459939,0.6044412550267971,-1.133816463194671
1.1371988196066773,1.7320207377039907,-0.025709082870880192,0.5891258007417468,-1.167605540366728
1.13182166382335,1.6099053608613119,-0.025501924589380172,0.5738777882361605,-1.2010804058480364
1.126486327805704,1.4909850801205842,-0.025310799388201976,0.5586963140564682,-1.2341395312320669
1.1211895863098924,1.375246005944721,-0.025134357714764702,0.5435805828565232,-1.2666789817156796
1.1159284984168003,1.2626744039040894,-0.02497124126706396,0.5285299127685281,-1.298592080737298
1.1107004095208433,1.1532566701864617,-0.02482008155157481,0.5135437416850536,-1.3297690532334498
1.1055029536592846,1.0469793056810701,-0.024679498082316658,0.49862163455678427,-1.360096644995168
1.1003340562607906,0.943828888410831,-0.024548096189055155,0.48376329182645034,-1.3894577153971173
1.0951919373992678,0.8437920440596258,-0.02442446439687657,0.46896855913739854,-1.4177308005552383
1.0900751156476367,0.7468554143102502,-0.02430717133294397,0.4542374384756936,-1.4447896437490821
1.0849824126362306,0.653005622672886,-0.024194762109018723,0.43957010092776017,-1.470502689732223
1.0799129584321658,0.5622292374430025,-0.024085754120169004,0.4249669012615994,-1.4947325393623276
1.0748661978695118,0.47451273138081973,-0.023978632190822913,0.4104283945686976,-1.5173353608327516
1.0698418979756568,0.38984243765133897,-0.02387184298874929,0.39595535523590425,-1.538160253710897
1.0648401566572214,0.30820450150365275,-0.02376378861539665,0.38154879855159557,-1.5570485620300671
1.0598614128295765,0.22958482710051697,-0.023652819266935677,0.36721000528777853,-1.573833132906322
1.054906458197944,0.15396901883327985,-0.023537224843851356,0.3529405496382676,-1.588337517653605
1.0499764509257687,0.08134231637355072,-0.02341522536734065,0.33874233093057854,-1.600375113283758
1.0450729314583007,0.011689522621807669,-0.023284960037117487,0.32461760956219154,-1.609748243795934
1.0401978408071157,-0.05500507638385699,-0.023144474736073586,0.3105690476345849,-1.6162471830589866
1.0353535416460327,-0.11875780063547836,-0.02299170775043167,0.29659975476180805,-1.6196491247673315
1.030542842622481,-0.17958567553298366,-0.02282447342625179,0.2827133395001324,-1.619717110474788
1.0257690263537003,-0.23750654269025517,-0.022640443419279108,0.26891396675958823,-1.6161989348995867
1.0210358816584315,-0.2925391834452853,-0.02243712510709083,0.2552064213835428,-1.6088260597222421
1.016347740678397,-0.34470345635622834,-0.02221183660752469,0.24159617776829403,-1.59731258465573
1.0117095216797807,-0.39402044988271,-0.021961677665011246,0.22808947486485665,-1.581354350081115
1.0071267785086055,-0.44051265122337213,-0.021683495393800017,0.21469339504624438,-1.5606282824886473
1.0026057579299044,-0.48420413181987243,-0.02137384345097406,0.2014159439680724,-1.534792147300523
0.998153466448098,-0.5251207492142242,-0.02102893256623007,0.1882661264543012,-1.5034849503734773
0.9937777487480364,-0.5632903635687612,-0.020644569339118422,0.17525401025559503,-1.466328339298342
0.9894873807145368,-0.5987430649470085,-0.020216078598971978,0.16239076477536096,-1.4229295116181797
0.9852921812478288,-0.6315114040143257,-0.019738202036342457,0.14968865491338804,-1.3728863560009295
0.9812031490600541,-0.6616306136129921,-0.019204961656749748,0.13716096031198685,-1.3157958534293293
0.9772326337447776,-0.6891388010170871,-0.018609469917311796,0.12482177686984902,-1.2512671653402911
0.9733945553478076,-0.7140770798337925,-0.017943657672878574,0.11268564043213476,-1.178941334662
0.9697046945266994,-0.736489595960137,-0.017197873956722835,0.10076689410448038,-1.0985200741615135
0.9661810878706361,-0.7564233841499473,-0.016360284672451413,0.08907870770323865,-1.0098065420240316
0.962844582670856,-0.773927973636205,-0.015415955325453692,0.07763166835635162,-0.9127608711029739
0.9597196363957605,-0.789054651895853,-0.014345437770694669,0.06643193411647907,-0.8075715962172131
0.9568354949958584,-0.8018553158443638,-0.013122575561707057,0.05547915110741613,-0.6947393422556548
0.9542279648175325,-0.8123809303772731,-0.011711045184253572,0.04476479682502345,-0.5751589145233293
0.9519421452279158,-0.8206798451560289,-0.010058665193048079,0.03427248678218001,-0.45016896553771224
0.950036858799737,-0.8267967085691978,-0.008086919837226255,0.02398335524800601,-0.3215186689829119
0.9485927377458485,-0.8307737766218324,-0.0056666140093297335,0.013893483348491532,-0.191192135737086
0.9477317939167753,-0.832660058911145,-0.002532851029462018,0.004071109883040153,-0.06105673853079702
