x,y,v_x,v_y,omega
2.375,32.48,0.0,2.923076923076923,-5.3061224489795915
2.3734604258846983,31.816237604628203,-0.013387601002622032,2.848769993199557,-4.9370573820625046
2.3690874541272295,31.16917988387829,-0.02463824036667297,2.777818882886628,-4.606548700605098
2.362334869900348,30.538083327053485,-0.03407988334534287,2.7099772634160413,-4.3093852389742136
2.353587320191867,29.92225812174823,-0.04198576629362099,2.645024521847054,-4.041189482616671
2.3431717399744647,29.321062659905248,-0.04858449646639925,2.582762102874502,-3.798265277353057
2.3313666929301364,28.733898807832716,-0.0540680865277574,2.5230105238431495,-3.5774767495919115
2.3184100479384715,28.160207802680695,-0.058598391660632826,2.46560691226141,-3.376151335777372
2.3045053184136455,27.599466668064892,-0.0623122998595938,2.4104029539629637,-3.192001600373027
2.2898269206997894,27.051185064061038,-0.06532594113045838,2.3572631678096836,-3.0230618135696
2.274524553777108,26.514902503827507,-0.06773811906676953,2.3060634429166615,-2.8676362087801537
2.258726861051294,25.990185882145557,-0.06963312202726818,2.256689789100285,-2.724256544838638
2.242544502832455,25.47662727125026,-0.07108303639742075,2.209037262163164,-2.5916471267901064
2.2260727429702483,24.97384194721328,-0.072149658056548,2.1630090338105825,-2.468695839857487
2.2093936333251403,24.481466616372973,-0.07288607798787018,2.1185155821920727,-2.354430057293051
2.192577864081903,23.99915781628303,-0.07333800238810544,2.075473983807456,-2.2479965185283604
2.175686335422794,23.52659046965877,-0.0735448555171914,2.0338072911860774,-2.148644456833655
2.158771496073329,23.06345657305698,-0.07354070404337365,1.9934439836121396,-2.0557113984096236
2.141878486179097,22.60946400469269,-0.07335503416733968,1.954317480425147,-1.9686111669427322
2.1250461154574594,22.164335437998837,-0.07301340689037954,1.9163657082170575,-1.886823716231887
2.1083077022760492,21.72780734936523,-0.07253801207840328,1.8795307146838869,-1.809886483857374
2.0916917949937783,21.299629110025926,-0.0719481382022119,1.843758323049163,-1.7373870150420363
2.0752227933661995,20.87956215335447,-0.07126057160282068,1.808997821920019,-1.668956650923793
2.0589214849132893,20.467379209919564,-0.07048993668335553,1.7752016862096096,-1.6042651117787394
2.0428055087534673,20.06286360358481,-0.06964898644553283,1.7423253253969744,-1.5430158351293517
2.0268897574271043,19.665808602732838,-0.06874885117501439,1.7103268559245008,-1.4849419525602217
2.0111867255893086,19.27601682137942,-0.06779925176234212,1.6791668949748026,-1.4298028085516856
1.9957068130839704,18.893299665534762,-0.0668086830666843,1.6488083732395924,-1.3773809405992643
1.980458588769431,18.517476820682518,-0.0657845718423541,1.6192163646060147,-1.3274794530000693
1.9654490205106627,18.148375776693435,-0.06473341301649976,1.5903579309512288,-1.2799197275000431
1.9506836759511055,17.785831386880908,-0.06366088750138908,1.5622019804620701,-1.2345394229409183
1.9361668980028026,17.42968545824742,-0.06257196422298414,1.5347191380900105,-1.191190723469099
1.9219019584246797,17.079786370271524,-0.061470988630258995,1.5078816269177688,-1.149738801047877
1.907891192377992,16.735988719849903,-0.06036175960180823,1.481663159357188,-1.1100604631731303
1.894160513532791,16.39815653978254,-0.05903544774776392,1.4560079716633592,-1.0661250643273028
1.880732858361493,16.06615918732586,-0.057726771133087953,1.430925527959948,-1.024426415445976
1.867603999129855,15.739867526607728,-0.056437222185505016,1.4063932608933634,-0.9848218045254366
1.8547693974272823,15.41915747979984,-0.055168010010778055,1.3823897548274027,-0.9471793516920399
1.8422242650186629,15.103909770703321,-0.05392009789026178,1.3588946720988313,-0.9113770577050615
1.8299636166224178,14.794009684646742,-0.05269423599013148,1.3358886849148996,-0.8773019470985225
1.817982315643759,14.489346843456754,-0.05149098991125006,1.313353412389348,-0.844849295472546
1.8062751137574367,14.18981499437152,-0.05031076562198497,1.2912713622648604,-0.8139219317242796
1.7948366851180517,13.895311811865788,-0.049153831242231855,1.2696258769154132,-0.7844296071178314
1.7836616558755916,13.605738711445355,-0.048020336083509134,1.2484010832622807,-0.7562884240564419
1.77274462958699,13.321000674548767,-0.04691032729563607,1.2275818462732695,-0.729420318258937
1.7620802090392507,13.04100608376648,-0.0458237644238357,1.2071537257466156,-0.70375258877387
1.7516630149344132,12.765666567653039,-0.04476053213996808,1.187102936109379,-0.6792174709035674
1.741487701829958,12.494896854467125,-0.04372045137703461,1.1674163089855258,-0.6557517476691941
1.731548971678976,12.22861463422796,-0.04270328906628491,1.1480812583115687,-0.633296395937757
1.721841585271544,11.966740428525366,-0.041708766650515705,1.1290857477979503,-0.6117962637619146
1.7123603718413722,11.709197467565055,-0.04073656752489233,1.11041826055258,-0.5911997758614544
1.703100237069214,11.455911573971086,-0.03978634353735094,1.0920677706993058,-0.5714586645081301
1.6940561696860663,11.2068110529042,-0.03885772066393385,1.0740237168388411,-0.5525277233690594
1.6852232468543242,10.961826588088247,-0.03795030395991098,1.056275977212935,-0.5343645821230816
1.6765966384833162,10.720891143367634,-0.037063681874941926,1.0388148464445564,-0.5169294998937087
1.668171610616597,10.48393986944668,-0.03619743000957408,1.0216310137376732,-0.5001851757453215
1.6599435280117003,10.250910015487396,-0.03535111438082886,1.0047155424300072,-0.48409657466929523
1.6519078560184295,10.021740845265832,-0.034524294256308624,0.9880598508009912,-0.46863076764661976
1.6440672715539661,9.796483600751689,-0.03365470108685298,0.9706987971480769,-0.4730789393995461
1.6364225466978843,9.575204454924148,-0.03282116722690178,0.9534676883087935,-0.47999545554719925
1.6289653833341533,9.35787397284798,-0.03202373158815033,0.9363625906144157,-0.489245217579274
1.6216874895706401,9.144463605325654,-0.03126230113804965,0.9193797356666796,-0.5006976275174131
1.6145806086992267,8.934945651804249,-0.030536662961199855,0.9025155123455433,-0.5142262633264599
1.6076365454956871,8.729293225051293,-0.02984649533044787,0.8857664594192741,-0.5297085682828819
1.6008471900783947,8.527480217464952,-0.029191377863399138,0.8691292587228382,-0.5470255529233788
1.5942045395282207,8.329481268891282,-0.028570800833767146,0.8526007288742942,-0.5660615082640815
1.5877007174567022,8.13527173582796,-0.027984173701175664,0.8361778195024182,-0.586703729038459
1.5813279916955376,7.944827661899534,-0.02743083291764767,0.8198576059621574,-0.6088422457505563
1.575078790267646,7.758125749494344,-0.026910049064016686,0.8036372845177528,-0.63236956437983
1.5689457157883275,7.5751433324575,-0.02642103336483944,0.787514167976529,-0.6571804126048822
1.5629215584343772,7.395858349737864,-0.025962943626034428,0.7714856817594481,-0.6831714914359883
1.5569993076093143,7.220249319889803,-0.025534889635383598,0.7555493603976121,-0.7102412311605295
1.5511721624240944,7.048295316332673,-0.025135938062179224,0.7397028444469914,-0.7382895505112571
1.54543354110475,6.879975943272335,-0.02476511688864299,0.7239438778168205,-0.7672176179646183
1.539777089431296,6.71527131218971,-0.024421419402257782,0.7082703055103501,-0.7969276140649538
1.5341966883059341,6.554162018801314,-0.024103807774803778,0.6926800717800405,-0.827322493649933
1.528686460543007,6.3966291203957795,-0.023811216250648977,0.677171218702865,-0.858305746822722
1.5232407769683594,6.242654113448651,-0.023542553963679904,0.6617418851852166,-0.889781157476591
1.5178542619116349,6.092218911415081,-0.02329670739913963,0.6463903064110449,-0.9216525581273571
1.5125217981716772,5.945305822596406,-0.023072542513536284,0.6311148137513453,-0.9538235797475242
1.5072385315325145,5.801897527971825,-0.02286890652266229,0.6159138351580739,-0.9861973952224358
1.5019998749054806,5.661977058880478,-0.02268462936458832,0.6007858960710414,-1.0186764549622898
1.4968015121718117,5.525527774431975,-0.02251852484122902,0.5857296208724552,-1.0511622131035108
1.491639401799622,5.3925333385146175,-0.02236939143868029,0.5707437349306405,-1.083554842617687
1.4865097803095337,5.2629776962601404,-0.02223601282295674,0.5558270672822154,-1.1157529375149737
1.4814091656644377,5.136845049811448,-0.022117158003965708,0.5409785540107619,-1.1476532001804904
1.4763343606609856,5.014119833225362,-0.022011581156488158,0.5261972423900035,-1.179150111715811
1.4712824564034974,4.894786686325361,-0.021918021082539017,0.511482295870866,-1.210135582972393
1.4662508359451167,4.778830427299663,-0.02183520029468427,0.49683300000477204,-1.2404985837593208
1.461237178186346,4.666236023816921,-0.02176182369462646,0.4822487694103702,-1.2701247474842325
1.4562394621276757,4.556988562405323,-0.021696576815550025,0.467729155907882,-1.2988959482449363
1.451255971581009,4.451073215809977,-0.021638123590247978,0.45327385796468717,-1.326689847132608
1.446285300454151,4.348475208007972,-0.021585103599821083,0.4388827316179732,-1.3533794042404164
1.4413263587339653,4.249179776519362,-0.02153612874962085,0.4245558030655901,-1.378832352601946
1.436378379307115,4.153172131605146,-0.02148977930994522,0.4102932831449974,-1.4029106300246375
1.4314409257728817,4.060437411888916,-0.02144459924860586,0.3960955839526484,-1.4254697645541745
1.4265139014206683,3.9709606358767253,-0.0213990907706405,0.3819633378925018,-1.4463582091357807
1.4215975595658565,3.8847266487785923,-0.02135170796685429,0.3678974194825657,-1.4654166209714505
1.4166925154620942,3.8017200639545052,-0.021300849457165,0.35389897029209894,-1.4824770811725185
1.411799760036435,3.721925198216649,-0.021244849896393532,0.33996942742840225,-1.4973622506686448
1.406920675726674,3.645326000117876,-0.02118197018848468,0.3261105560391774,-1.5098844590940819
1.4020570547386444,3.5719059702441633,-0.021110386229164415,0.31232448634092635,-1.5198447247287652
1.397211120086284,3.5016480724071286,-0.021028175965272056,0.29861375572023857,-1.5270317058138652
1.392385549830565,3.434534634504793,-0.020933304519240404,0.2849813564739767,-1.531220587107678
1.387583504997108,3.37054723768998,-0.02082360707603976,0.27143078974179713,-1.532171911006304
1.382808661729728,3.3096665923661845,-0.0206967691620468,0.25796612611728365,-1.5296303708084458
1.3780652483330744,3.251872399437026,-0.020550303852331343,0.24459207326669552,-1.5233235960411546
1.3733580879792597,3.1971431951944105,-0.020381525311274608,0.23131405058214796,-1.5129609780560718
1.368692648012334,3.145456178285471,-0.020187517879383287,0.21813827036515054,-1.498232611079491
1.364075096998643,3.0967870174162684,-0.01996509963097229,0.20507182414965536,-1.4788084635152348
1.3595123709693662,3.0511096389349603,-0.019710778884477895,0.19212277133997233,-1.4543379522885136
1.3550122507305704,3.0083959943472927,-0.01942070145287638,0.17930022507453006,-1.4244501776078606
1.3505834527521476,2.9686158093910535,-0.019090585316016907,0.1666144267188485,-1.3887551983435364
1.346235737115148,2.931736318886724,-0.018715637614414807,0.15407679505792682,-1.3468469052959613
1.341980037503387,2.897721995698273,-0.01829044596611668,0.1416999283199216,-1.2983083019883845
1.337828620609602,2.8665342884887046,-0.01780883137114542,0.12949752567633319,-1.242720355361464
1.3337952861476763,2.8381313924580134,-0.017263642210816155,0.11748417893837179,-1.1796760555480967
1.3298956248333877,2.8124680909460267,-0.01664645617430221,0.10567496464410858,-1.1088019301679481
1.3261473616905408,2.789495724462391,-0.015947136372191965,0.09408474390924929,-1.0297899387642966
1.3225708281975574,2.769162366897273,-0.015153154871140918,0.08272706100483354,-0.942443214493647
1.3191896327677364,2.7514133122313886,-0.01424854451860699,0.07161254478546154,-0.8467389605860529
1.3160316405948425,2.7361919862452986,-0.013212256984818356,0.060746811615317545,-0.7429097136310779
1.3131304408253481,2.723441366342957,-0.01201556709774006,0.05012814405720414,-0.6315378993101546
1.3105275929502864,2.7131058584682854,-0.010617892685406197,0.03974583746167685,-0.5136450960524139
1.3082761719133444,2.7051332388279654,-0.00895968154887282,0.029581289845468033,-0.3907353626101673
1.3064467353580806,2.6994755331670106,-0.006948462409943198,0.01961615068456229,-0.26472813447947746
1.3051390899483233,2.6960859479356856,-0.004422367240120422,0.00985850350087489,-0.13771065705214885
1.3045167864655896,2.6949007920556056,-0.0009889673923459568,0.00044719980417728955,-0.011504931721109113
