x,y,v_x,v_y,omega
2.375,32.48,0.0,2.6153846153846154,-4.204081632653061
2.373918232188778,31.88549597145382,-0.009406676619320395,2.554215632842998,-3.9396526408297263
2.370830852148897,31.304778416588494,-0.017440106336166737,2.4955022355511582,-3.699978635554462
2.3660316992601476,30.737301011978737,-0.024291657913828153,2.4390838914902035,-3.4820419204011688
2.359773928918447,30.182552664212434,-0.030123736361829655,2.384814784738526,-3.2832612446720084
2.352276117448524,29.64005433460312,-0.03507462424619849,2.3325619944728904,-3.1014197032647934
2.3437273563764824,29.10935624917515,-0.03926242855416034,2.2822039657703144,-2.93460598824033
2.334291520801454,28.590035433415448,-0.04278831557652544,2.233629214748838,-2.7811662507534414
2.3241108593601,28.081693522985358,-0.04573917521785448,2.1867352237736895,-2.639664451500976
2.31330902430523,27.583954810641593,-0.04818982525927695,2.1414274922590644,-2.508849544151415
2.3019936374990886,27.096464496696452,-0.050204842620213894,2.097618715959541,-2.387628190558826
2.290258470173156,26.618887115939437,-0.05184009064876396,2.0552280732318966,-2.27504197815099
2.278185300032872,26.150905118399585,-0.0531439975276181,2.01418060102767,-2.1702483196981612
2.2658454978661986,25.692217584912548,-0.054158630008671466,1.974406646685698,-2.0725043789504287
2.253301386627974,25.242539061363548,-0.054920598149805884,1.935841384175184,-1.9811534935577015
2.2406074085433225,24.80159849785423,-0.05546181997759708,1.8984243854710796,-1.895613667540255
2.227811129738062,24.36913828099921,-0.05581016963336402,1.8620992393551696,-1.8153677855518922
2.214954106979134,23.94491334918247,-0.055990028270357636,1.8268132112251587,-1.7399552649397598
2.2020726370728125,23.52869038196031,-0.0560227535237406,1.7925169385327475,-1.6689649127001902
2.1891984061493215,23.12024705593784,-0.0559270805935738,1.7591641573148429,-1.6020287955709474
2.1763590533225345,22.719371360409937,-0.05571946572631422,1.726711455971252,-1.5388169647757644
2.1635786609438172,22.325860966877173,-0.05541438104514122,1.6951180530092984,-1.4790329039656778
2.1508781817829288,21.93952264724739,-0.05502456817997329,1.664345595945342,-1.4224095909449985
2.138275811896609,21.560171736135082,-0.054561256918458256,1.6343579789442844,-1.3687060818164654
2.125787316630926,21.18763163318933,-0.05403435408748449,1.605121177105737,-1.3177045410089943
2.113426316101316,20.82173334183031,-0.05345260703956019,1.576603095581393,-1.2692076528788794
2.1012045355676845,20.462315041165162,-0.052823745426799344,1.54877343194162,-1.2230363606914787
2.0891320253409544,20.109221688194978,-0.05215460437085074,1.5216035504078276,-1.179027887186747
2.077217354197557,19.762304647723354,-0.05145123165869385,1.4950663667367374,-1.1370339979223756
2.0654902683545053,19.421424429561682,-0.050523427846101955,1.469109443364753,-1.0917114613748191
2.0539771753458096,19.086447073329744,-0.04959042440342576,1.443737132565151,-1.048716135116574
2.0426789138460792,18.757240782980205,-0.04865532776814604,1.41892626177864,-1.0078983473443053
2.0315956560534816,18.433678955232203,-0.04772082695009124,1.394654849073541,-0.9691198750484905
2.0207269979187634,18.115639914555302,-0.046789243786589454,1.3709020263777958,-0.9322529307419152
2.0100720385228708,17.803006665129228,-0.045862577047258775,1.34764796863153,-0.8971792507259342
1.9996294499269316,17.495666658479024,-0.04494254117830001,1.324873828326764,-0.8637892735553597
1.9893975386490275,17.19351157560151,-0.04403060036869239,1.3025616749559847,-0.8319813987567446
1.9793742997758215,16.896437122503475,-0.04312799852875117,1.2806944389399555,-0.8016613170619394
1.9695574645903537,16.604342838165834,-0.04223578569270674,1.2592558596482113,-0.7727414044661833
1.9599445424874213,16.317131914032448,-0.04135484128931614,1.2382304371638677,-0.7451401733305124
1.95053285785252,16.0347110241986,-0.04048589466634673,1.217603387478299,-0.7187817745412746
1.941319582497353,15.75699016554298,-0.03962954320467161,1.1973606008314317,-0.6935955454314311
1.932301764172648,15.483882507109229,-0.03878626831450127,1.1774886029403238,-0.6695155987730513
1.9234763516160518,15.215304248099574,-0.03795644956894396,1.157974518882746,-0.6464804486798362
1.9148402165378773,14.951174483894299,-0.03714037719779114,1.1388060394239954,-0.6244326697227933
1.9063901728994401,14.691415079557178,-0.036338263136445725,1.1199713895944474,-0.6033185859699797
1.8981229937966755,14.435950550329412,-0.03555025080063885,1.1014592993426573,-0.5830879870199864
1.8900354262249046,14.184707948653003,-0.03477642373649761,1.0832589761043723,-0.5636938684149166
1.8821242039683308,13.93761675729969,-0.0340168132771879,1.0653600791418119,-0.5450921940975142
1.8743860588294947,13.69460878821356,-0.03327140532138709,1.0477526955201937,-0.5272416788235553
1.8668177303890197,13.455618086704753,-0.03254014633491653,1.0304273175998686,-0.5101035886587034
1.8594159744640628,13.220580840658506,-0.031822948664708854,1.0133748219327208,-0.49364155788228165
1.8521775704146002,12.98943529444825,-0.031119695243661503,0.9965864494608042,-0.47782142079190165
1.8451052114645567,12.762224859578911,-0.030379078234977586,0.9791564624464943,-0.4807293008757524
1.8381997630276565,12.53900812772154,-0.02966829947719654,0.9618585971828041,-0.486170970244002
1.831454315479372,12.319755173176997,-0.02898776616006025,0.9446888336393082,-0.49400969821405205
1.8248618831759267,12.104436975424903,-0.028337732130769528,0.9276433207267131,-0.5041133556432863
1.8184154381820279,11.893025381213732,-0.027718311294438355,0.9107183680660675,-0.5163540886590352
1.8121079410404515,11.68549306847359,-0.02712948993665859,0.8939104383699471,-0.5306080065546434
1.8059323688219635,11.481813511914982,-0.026571138050195134,0.8772161404005562,-0.5467548824839725
1.799881740675969,11.281960950184473,-0.026043019741058816,0.8606322224734316,-0.5646778656544836
1.7939491410857074,11.085910354454949,-0.025544802782956757,0.8441555664789638,-0.5842632037773974
1.788127741016583,10.893637398334178,-0.025076067383342848,0.827783182397316,-0.605399974582775
1.782410817132321,10.705118428980647,-0.024636314218935255,0.8115122032855564,-0.627979825248056
1.7767917692408808,10.52033043932013,-0.024224971793587943,0.7953398807189507,-0.651896718620889
1.771264136120441,10.339251041260237,-0.023841403166757487,0.7792635806714292,-0.6770466851411736
1.7658216098651716,10.161858439803346,-0.023484912096456166,0.7632807798232848,-0.7033275793831689
1.7604580488808828,9.98813140796064,-0.02315474863649108,0.7473890622871958,-0.7306388401463195
1.7551674896519351,9.818049262371737,-0.022850114223922174,0.7315861167467531,-0.7588812530229958
1.7499441573929495,9.651591839535303,-0.02257016628899686,0.7158697340048351,-0.7879567143624623
1.74478247569184,9.488739472556365,-0.022314022416303148,0.7002378049424584,-0.8177679955328018
1.7396770752444781,9.329472968315379,-0.02208076408249544,0.6846883188921872,-0.8482185063558518
1.7346228017758356,9.173773584962884,-0.021869439992656604,0.6692193624338568,-0.8792120565539969
1.7296147232377548,9.021623009641193,-0.021679069034134652,0.6538291186243154,-0.9106526140013318
1.7246481363695265,8.873003336331521,-0.021508642863501005,0.6385158666771742,-0.9424440585146052
1.719718572704229,8.72789704372062,-0.02135712813908619,0.6232779821132548,-0.9744899298506998
1.7148218041012768,8.58628697297572,-0.02122346840832404,0.6081139374076099,-1.0066931684963423
1.709953847883898,8.448156305309897,-0.021106585655839755,0.5930223031647703,-1.0389558477413088
1.705110971659273,8.31348853921201,-0.02100538151481208,0.5780017498603361,-1.071178895417566
1.7002896978989028,8.182267467205726,-0.02091873814058243,0.5630510501943096,-1.1032618035624875
1.6954868083574368,8.054477151990753,-0.020845518741728495,0.548169082109804,-1.1351023241234002
1.6906993484097592,7.930101901806012,-0.020784567759815374,0.53335483254011,-1.1665961486622123
1.685924631388637,7.809126244838758,-0.02073471068472801,0.5186074019577498,-1.197636569841824
1.6811602430087946,7.691534902485316,-0.02069475348781133,0.5039260098113042,-1.2281141222797998
1.6764040459679546,7.5773127612478,-0.020663481649929063,0.48931000094969745,-1.2579162001392152
1.671654184821282,7.4664448430263874,-0.020639658755918867,0.47475885314953137,-1.2869266485922874
1.6669090912329732,7.358916273538075,-0.020622024620679184,0.46027218587927077,-1.3150253260411349
1.662167489717501,7.254712248559645,-0.02060929290516835,0.4458497704549115,-1.3420876337153675
1.6574284039935336,7.1538179976542935,-0.020600148172807177,0.43149154176554494,-1.3679840089944066
1.6526911640859396,7.05621874499721,-0.020593242328010568,0.4171976117743097,-1.3925793785335938
1.6479554143258224,6.9618996668646105,-0.020587190368661384,0.40296828503089677,-1.4157325670230878
1.6432211224155229,6.870845845292433,-0.020580565373073578,0.38880407646629705,-1.4372956572012816
1.6384885897452715,6.7830422173442315,-0.020571892629113436,0.3747057317789437,-1.4571132966159501
1.6337584631711157,6.6984735193518326,-0.02055964279832692,0.36067425076364573,-1.4750219466296681
1.6290317484903754,6.617124225406297,-0.020542223990721236,0.3467109139801376,-1.4908490693790943
1.6243098258817896,6.538978479279965,-0.020517972605675873,0.3328173132053484,-1.5044122489341714
1.619594467613532,6.464020018852931,-0.02048514277047796,0.3189953861601573,-1.5155182439284647
1.6148878583643442,6.392232091999553,-0.020441894178980555,0.30524745604313175,-1.5239619706859424
1.6101926185525977,6.323597362764751,-0.020386278097075553,0.29157627643341033,-1.52952541870115
1.6055118311269567,6.25809780652985,-0.020316221256324467,0.277985082130945,-1.531976504745397
1.6008490723432134,6.195714592741147,-0.020229507297966423,0.2644776464664754,-1.5310678786073009
1.5962084471387024,6.1364279536641675,-0.020123755349953285,0.25105834550724776,-1.5265357036027465
1.5915946298244228,6.080217037554057,-0.019996395209000203,0.23773222936328425,-1.5180984500664534
1.587012910954706,6.027059744631874,-0.019844638440711774,0.22450510039483687,-1.5054557623362317
1.5824692514193182,5.976932544381942,-0.01966544447570282,0.21138359743066984,-1.4882874925672722
1.5779703450560274,5.929810273020632,-0.019455480422477807,0.19837528397203863,-1.466253042864897
1.5735236914396766,5.885665910661288,-0.019211072763180785,0.18548873654399714,-1.4389912276217756
1.5691376810264663,5.844470338909087,-0.01892814822125567,0.1727336265186105,-1.4061209704662996
1.5648216956174408,5.806192081656018,-0.018602159683316136,0.16012078437762567,-1.3672432986903218
1.5605862283144816,5.770797035138273,-0.01822799077719805,0.1476622288201564,-1.3219453110880792
1.5564430290418219,5.738248198474487,-0.017799828985060755,0.1353711334736202,-1.2698070963855657
1.552405284735633,5.708505423744988,-0.017310991068754916,0.12326169026113858,-1.21041299469102
1.548487848185503,5.681525216208957,-0.016753674584551265,0.11134881005216923,-1.1433691416736833
1.544707537419836,5.657260631486917,-0.016118592942985684,0.09964757883514945,-1.0683298971538497
1.5410835403493748,5.635661337811719,-0.01539442506102568,0.08817236616656009,-0.9850364181276956
1.5376379800974977,5.616673935866814,-0.014566968433557047,0.07693547683259878,-0.8933709314882162
1.534396729710612,5.600242648571985,-0.013617817539362535,0.06594528225287204,-0.7934293328584835
1.5313906183104182,5.586310488073046,-0.01252228159275724,0.05520393947704211,-0.6856108501843954
1.5286572586320508,5.574820933067638,-0.011246063436524883,0.044705234483037676,-0.5707138703606472
1.526243886015426,5.565719924869992,-0.009739785403690797,0.034433967235618236,-0.45000889385727316
1.5242119649613608,5.558957477306137,-0.007929093327311933,0.024369924623973527,-0.3252347424508321
1.5226454723362877,5.5544870801724,-0.005692581673322556,0.014503093930265385,-0.1984462382209905
1.521670070189884,5.552257621578772,-0.0027891761214940388,0.004883502536066554,-0.07165708307346091
