x,y,v_x,v_y,omega
2.375,32.48,0.0,3.8974358974358974,-4.204081632653061
2.3735999926001505,31.673568543140487,-0.01333340380809111,3.7828636917022935,-3.854300982529714
2.369665534570591,30.89055099454136,-0.024137625044859667,3.674446294956041,-3.5487369064541245
2.363679062638745,30.129708546714372,-0.03287639335366891,3.5716722557772016,-3.2802653853307966
2.356035258487144,29.38990374962539,-0.03992174142348429,3.4740877164988224,-3.043104841504312
2.3470582274443625,28.670089298737274,-0.045573792317293436,3.3812880062451183,-2.832530911019637
2.3370150098522346,27.969298426034978,-0.05007589903630272,3.292910781395805,-2.644658211027788
2.326126276928579,27.28663660569189,-0.05362631928422537,3.20863036472884,-2.476271919303268
2.314574848646665,26.62127434953149,-0.056387283400672936,3.128153027274972,-2.3246967550542315
2.302512515014308,25.97244091439567,-0.05849208452653439,3.051213021637616,-2.1876942960003865
2.290065527180802,25.339418778862175,-0.06005065674495353,2.9775692215385314,-2.0633819427209055
2.277339039369406,24.721538773758446,-0.061153989077866885,2.9070022556398154,-1.9501685482630442
2.264420718601419,24.118175771856976,-0.06187763728391065,2.839312048183728,-1.8467029703129143
2.251383690809103,23.528744858582293,-0.06228453216671906,2.774315697289462,-1.7518327117108663
2.238288955133351,22.952697918627564,-0.062427236173777885,2.7118456356126797,-1.664570487003814
2.2251873700134657,22.38952058387249,-0.0623497649679845,2.651748028721384,-1.5840670537824812
2.212121292949272,21.83872949650099,-0.06208906421481363,2.5938813748167004,-1.5095890240810188
2.1991259389700937,21.299869848172637,-0.06167621177736036,2.538115275929528,-1.4405006561127676
2.1862305097114243,20.77251316183211,-0.06113740020996745,2.484329355885054,-1.3762488437968097
2.1734591347064525,20.256255287495733,-0.06049474269452476,2.4324123044613732,-1.3163506880941014
2.1608316583915115,19.750714587323955,-0.05976693649539144,2.3822610305079452,-1.2603831626925561
2.1483642999075117,19.25553028862229,-0.058969810971273295,2.333779909507899,-1.2079744863189357
2.1360702076777613,18.770360986227857,-0.05811678169301414,2.286880113296225,-1.1587968917828473
2.123959926669036,18.294883278125944,-0.05721922791389769,2.241479011483885,-1.1125605429064362
2.1120417929766675,17.828790520175527,-0.0562868072515141,2.1974996356629535,-1.0690083986200534
2.100322267745326,17.371791687563196,-0.055327718761259824,2.1548701987402223,-1.027911861626384
2.0888062203127276,16.923610332100058,-0.05434892345396747,2.1135236628134546,-0.9890670793720475
2.077497168740626,16.483983625764832,-0.05335632961366501,2.0733973499029763,-0.9522917893133485
2.06639748449528,16.052661482010826,-0.05235494891343836,2.034432590611362,-0.9174226199262567
2.055508566894566,15.629405747321538,-0.05134902823622091,1.9965744064294806,-0.8843127745977962
2.04483099200088,15.213989456340911,-0.05034216122745599,1.9597712219574424,-0.8528300382294379
2.0343646398680635,14.806196144638509,-0.04933738289460324,1.9239746037797085,-0.822855056693304
2.024108803415136,14.405819213812187,-0.048337249990420786,1.8891390231376466,-0.7942798476872318
2.0140622816742972,14.012661344194218,-0.047343909446141086,1.8552216398906245,-0.7670065084114139
2.004223459725174,13.626533950922209,-0.0463591567359841,1.8221821055570695,-0.7409460911347492
1.9945903772652782,13.247256679572587,-0.04538448573921186,1.7899823834869553,-0.7160176223691178
1.985160787464943,12.87465693793995,-0.04442113140683822,1.758586584442933,-0.6921472452123866
1.9759322075029355,12.508569460886743,-0.04347010632656722,1.727960816063803,-0.6692674676062104
1.966901961967825,12.148835905490223,-0.04253223210305678,1.6980730448554346,-0.6473165019030938
1.9580672201329448,11.795304473982469,-0.04160816632437353,1.6688929695041324,-0.6262376833456803
1.9494250279636627,11.447829562218462,-0.040698425764028545,1.6403919044387982,-0.6059789569081884
1.9409723355899233,11.106271431620609,-0.03980340636682211,1.6125426726836032,-0.5864924234987929
1.9327060208707676,10.77049590273867,-0.03892340048228056,1.5853195071443873,-0.5677339378241782
1.9246229095875527,10.440374068734549,-0.0380586117388145,1.558697959561517,-0.5496627513155546
1.9167197927262667,10.115782027254287,-0.03720916789247993,1.5326548164409919,-0.532241194443573
1.9089934412444407,9.796600629286697,-0.036375131934433716,1.5071680213455674,-0.5154343935360368
1.9014406186629045,9.482715243731494,-0.035556511699243856,1.482216602989686,-0.4992100178803433
1.8940680046392033,9.174016355286366,-0.03465885995505275,1.4577728107734447,-0.4808409594410791
1.8868813830930038,8.870398482757103,-0.033785154770658445,1.4338259752195355,-0.4633345220107054
1.8798757790269138,8.571759169689837,-0.03293488395400789,1.4103579587544386,-0.44663980479547305
1.8730463271086828,8.277999679268607,-0.03210751526723799,1.3873514738286947,-0.4307094807666995
1.8663882752904033,7.9890248210475825,-0.03130250204971017,1.3647900330382101,-0.41549950603498
1.85989698733545,7.704742787792849,-0.03051928799746316,1.3426579027211685,-0.4009688560009788
1.8535679444181057,7.425065001733369,-0.02975731121534064,1.3209400597500578,-0.3870792855325934
1.8473967459380913,7.149905969576892,-0.029016007641938582,1.2996221512639945,-0.3737951107291804
1.8413791096726477,6.87918314569767,-0.02829481393371404,1.2786904571095619,-0.3610830101061443
1.8355108713719184,6.612816802949361,-0.02759316988275689,1.2581318547791016,-0.3489118432726056
1.8297879838888105,6.350729910598879,-0.026910520432557938,1.2379337866540412,-0.3372524853854551
1.8242065159219185,6.092848018915554,-0.02624631734736446,1.2180842293776477,-0.3260776758486122
1.8187626504392103,5.839099149985241,-0.02560002058318983,1.1985716651967682,-0.3153618798899702
1.813452682840759,5.589413694351368,-0.024971099402060864,1.1793850551258198,-0.30508116179310624
1.8082730189106655,5.3437243131142935,-0.02435903326549511,1.1605138137986921,-0.2952130686887594
1.803220172601259,5.101965845147458,-0.023763312538373722,1.1419477858854468,-0.2857365239244219
1.7982907636865586,4.864075219113591,-0.023183439030204873,1.1236772239608865,-0.27663172913093137
1.7934815153166845,4.629991369986961,-0.022618926397166304,1.105692767721297,-0.26788007419427134
1.7887892515003367,4.399655159808546,-0.022069300425194116,1.0879854244540665,-0.2594640544202282
1.784210894538465,4.173009302420255,-0.021534099211681614,1.070546550672519,-0.25136719425030196
1.7797434624288324,3.949998291941938,-0.021012873261008848,1.0533678348352524,-0.24357397695035396
1.775384066258182,3.7305683347712986,-0.020505185507091312,1.0364412810756092,-0.23606977974979065
1.7711299075961282,3.5146672849017264,-0.02001061127437279,1.0197591938726833,-0.22884081395942238
1.7669782759026675,3.302244582367038,-0.01952873818715604,1.0033141636005543,-0.22187406964117665
1.7629265459592536,3.0932511946347674,-0.01905916603583485,0.9870990528972549,-0.21515726444319816
1.7589760952081561,2.8877786766660556,-0.01856417445080646,0.9697820706142897,-0.2350876920494955
1.755126186380675,2.6859309093605432,-0.018101623906157067,0.9525776180096539,-0.2568415166319612
1.7513700397550873,2.487684587667765,-0.017671201099440315,0.93548258858824,-0.2803113492598745
1.7477009501116045,2.2930170463535866,-0.017272509790869715,0.9184939953563114,-0.3053926263853439
1.7441123033466408,2.1019062354178466,-0.016905078446881286,0.9016089659364578,-0.33198338020056184
1.7405975915476006,1.9143306964971494,-0.0165683672582628,0.8848247380701791,-0.3599840157913787
1.737150426654829,1.7302695401730723,-0.016261774577658875,0.8681386554924685,-0.3892970942037671
1.7337645528283414,1.5497024241090323,-0.01598464281746002,0.8515481641650566,-0.419827120559482
1.7304338576287281,1.3726095319416913,-0.01573626384552353,0.8350508088572376,-0.45148033637099516
1.7271523821141015,1.198971552854811,-0.015515883912826498,0.8186442300654403,-0.484164515213587
1.7239143299481356,1.0287696617651179,-0.015322708143990322,0.8023261612649651,-0.5177887609142349
1.720714075608062,0.8619855000508885,-0.015155904618616342,0.7860944264895999,-0.5522633074125142
1.717546171775914,0.6986011567545773,-0.015014608068509435,0.7699469382371875,-0.5874993194379202
1.7144053559913432,0.538599150190997,-0.014897923213116546,0.7538816957016747,-0.6234086931305447
1.7112865566399171,0.381962409892175,-0.014804927752846598,0.737896783334753,-0.6599038557075584
1.7081848983469472,0.22867425881901937,-0.014734675037343268,0.7219903697429538,-0.6968975632460246
1.705095706843587,0.07871839576846185,-0.014686196423228588,0.7061607069290157,-0.7343026956126917
1.7020145133691518,-0.0679211220974878,-0.014658503333298609,0.6904061298895462,-0.7720320475229755
1.6989370586713615,-0.2112598966772623,-0.01465058902660644,0.6747250565845189,-0.8099981146536618
1.6958592966645079,-0.351313206389932,-0.014661430086285914,0.6591159882980177,-0.8481128736661282
1.692777397804369,-0.48809602375468586,-0.014689987629321884,0.643577510413953,-0.8862875549182174
1.6896877522381186,-0.6216230331798585,-0.01473520823972966,0.628108293635295,-0.9244324065522886
1.6865869727874552,-0.7519086490580449,-0.014796024623732616,0.6127070956807908,-0.9624564485433281
1.683471897823802,-0.8789670342719518,-0.014871355982486624,0.5973727634992618,-1.0002672151731258
1.6803395940957024,-1.0028121192244726,-0.014960108094651842,0.582104236048533,-1.0377704842631514
1.6771873595705147,-1.1234576215174386,-0.015061173097611548,0.56690054769397,-1.074869991348573
1.6740127263552704,-1.2409170664158253,-0.015173428952333628,0.5517608322906454,-1.1114671268075391
1.6708134637651413,-1.3552038082488096,-0.015295738572706571,0.5366843280235218,-1.1474606137721488
1.6675875816124697,-1.4663310529159332,-0.015426948595594845,0.5216703830919235,-1.1827461644394128
1.6643333337948407,-1.5743118816861,-0.015565887762776412,0.5067184623382226,-1.2172161121712597
1.6610492222673212,-1.6791592764999308,-0.015711364880266167,0.49182815493636534,-1.2507590165221871
1.6577340014919022,-1.780886147012012,-0.015862166314200135,0.4769991832739072,-1.2832592380623766
1.6543866834664995,-1.8795053596398787,-0.01601705297534923,0.462231413181969,-1.3145964795753655
1.6510065434467738,-1.9750297689215728,-0.01617475673632461,0.4475248656913216,-1.3446452899073653
1.6475931264867287,-2.0674722515237676,-0.016333976216484886,0.4328797305200544,-1.373274526438032
1.6441462549387724,-2.1568457432889545,-0.016493371859288043,0.4182963815293499,-1.4003467718429186
1.6406660370709572,-2.243163279763543,-0.016651560215144023,0.40377539441913074,-1.4257177005461696
1.637152876978773,-2.326438040709924,-0.016807107329467295,0.38931756697499725,-1.4492353900489734
1.6336074859915484,-2.4066833991756056,-0.016958521120290455,0.3749239422219866,-1.4707395722108692
1.6300308957996497,-2.483912975772256,-0.01710424261207701,0.36059583488895663,-1.4900608196253031
1.62642447355885,-2.5581406989076854,-0.017242635871729958,0.3463348616389298,-1.5070196625680001
1.622789939263126,-2.629380871815009,-0.017371976468498272,0.3321429755736634,-1.5214256327533662
1.6191293857176319,-2.697648247335266,-0.017490438250494438,0.3180225055716255,-1.5330762315243827
1.6154453014908206,-2.762958111531752,-0.017596078195328227,0.3039762010615773,-1.5417558224375443
1.6117405972802037,-2.8253263773434583,-0.017686819048640324,0.290007282859405,-1.547234451941763
1.6080186361921986,-2.8847696896159434,-0.017760429408550552,0.27611950068805274,-1.5492666076533133
1.6042832685160309,-2.941305542971321,-0.017814500840666554,0.2623171979345925,-1.5475899325684075
1.6005388716693718,-2.994952414078206,-0.01784642150846746,0.2486053840357476,-1.5419239268498899
1.596790396116341,-3.0457299099310973,-0.017853345663253282,0.23498981456322637,-1.531968688651072
1.5930434182177324,-3.093658933703793,-0.01783215813302019,0.22147707851009912,-1.5174037748355373
1.589304201186355,-3.1387618695356636,-0.017779432642001894,0.20807469131722228,-1.4978873058544082
1.5855797656155346,-3.181062787137982,-0.017691382318193304,0.19479119060965466,-1.473055502909185
1.5818779714723168,-3.2205876662092265,-0.01756379999816597,0.1816362291164695,-1.442522939179912
1.5782076140750074,-3.257364639078588,-0.01739198473811505,0.1686206553536742,-1.4058839235946872
1.574578537533823,-3.291424247393387,-0.01717064898745072,0.15575656669203988,-1.3627156337310844
1.5710017706344133,-3.322799704499708,-0.016893797673594786,0.14305731051104895,-1.3125838982360951
1.5674896925385295,-3.351527148700683,-0.016554565144345015,0.1305373961649085,-1.2550529277300237
1.5640562395500661,-3.3776458628528445,-0.016144987126735566,0.11821226242707839,-1.1897008339967576
1.560717170518337,-3.4011984216949784,-0.015655670318304712,0.10609782178374041,-1.1161434660235825
1.5574904188138685,-3.422230709093384,-0.015075298295679026,0.09420967724868098,-1.034069860274226
1.5543965757832354,-3.440791723647685,-0.014389873424638393,0.08256188993514446,-0.943293192537334
1.551459578263712,-3.4569330675521854,-0.013581531523201702,0.07116519486959609,-0.8438208433228166
1.5487077177263657,-3.470708004641601,-0.012626664070573761,0.0600246821724383,-0.7359445411653054
1.5461751626938838,-3.4821700131092896,-0.011492907667348291,0.04913730323413958,-0.6203438029835001
1.5439043163503787,-3.4913709139605373,-0.010134200366032407,0.03849032392060761,-0.498179531973391
1.5419496045119885,-3.4983590456276943,-0.0084821028567327,0.028063311004681152,-0.37112872643571215
1.5403840603274856,-3.5031788050932846,-0.006427841757580316,0.017839160096149664,-0.24128538543833292
1.5393131939018225,-3.5058751063692952,-0.0037708861058787036,0.00783989967535302,-0.11085217121992719
