x,y,v_x,v_y,omega
2.375,32.48,0.0,2.6153846153846154,-2.979591836734694
2.3742263473722796,31.885473156237996,-0.006727414154089321,2.5544140260240984,-2.792308230337356
2.372018822219039,31.30469163714174,-0.012468456743659175,2.4958600530737782,-2.6225369872955806
2.36858843502785,30.737117232465263,-0.017360997092763477,2.4395695528086248,-2.468148769062398
2.3641168853112227,30.182245435565044,-0.02152204392138741,2.385402594149814,-2.3273205223626436
2.3587609609298736,29.639602575934255,-0.02505121156860303,2.333230967857031,-2.1984853887291806
2.3526562127753583,29.108743270008514,-0.028033554992402374,2.282936909758103,-2.0802917388586453
2.345920035562375,28.589248145378473,-0.030541899033539672,2.234412000068335,-1.9715695032361578
2.3386542597407938,28.08072180135302,-0.03263876028455585,2.1875562088486293,-1.8713023702502087
2.3309473393075897,27.582790975007377,-0.034377939134610874,2.1422770637222026,-1.7786047279982178
2.322876204299644,27.095102886807137,-0.035805843543179686,2.0984889206277098,-1.6927024604340035
2.314507834021863,26.617323743905274,-0.03696259365491435,2.056112321997209,-1.612916890018147
2.305900596887718,26.14913738247463,-0.03788294664199562,2.0150734295735764,-1.538651300478492
2.297105394570138,25.69024403312248,-0.038597073510877176,1.975303521314723,-1.4693795841875399
2.288166641556917,25.240359195655962,-0.03913121356060928,1.9367385436115065,-1.404636646109771
2.2791231058498247,24.799212611320847,-0.039508227370628084,1.899318711476458,-1.3440102655943116
2.2700086321864665,24.366547322191366,-0.0397480653542251,1.8629881505190078,-1.287134172520262
2.260852765600132,23.942118808702812,-0.03986816583129331,1.8276945754684286,-1.2336821385170327
2.2516812902091985,23.52569419743392,-0.03988379408986756,1.7933890007827837,-1.1833629195373003
2.242516695720805,23.117051532198527,-0.03980833189616278,1.7600254795250125,-1.1359159147742934
2.2333785821454875,22.715979102322578,-0.039653525280511207,1.7275608672223681,-1.0911074301989225
2.2242840115721787,22.322274822686566,-0.039429697096088026,1.6959546078733891,-1.0487274539462863
2.2152478144838383,21.935745660722105,-0.03914592975904368,1.665168539643649,-1.0085868662679154
2.2062828569527064,21.55620710608038,-0.03881022268558214,1.635166718110515,-0.9705150194651823
2.1974002741001395,21.18348267915102,-0.03842962820630543,1.6059152551882834,-0.9343576336680997
2.1886096744063446,20.81740347501326,-0.03801036913104143,1.5773821720965486,-0.8999749629493388
2.1799193187832966,20.457807739754852,-0.03755794063459345,1.549537264933105,-0.8672401934064383
2.171336277757944,20.104540476405447,-0.03707719871629649,1.52235198158348,-0.8360380407787287
2.162866569634637,19.757453078005973,-0.036572437138547874,1.4957993088467179,-0.8062635201088605
2.154531224620423,19.41640453958778,-0.03590882385461606,1.4698401556592986,-0.7741252859220766
2.146348907104164,19.08125947801284,-0.0352417632432889,1.4444647276010356,-0.7436369905365213
2.1383201563603165,18.75188628820674,-0.034573460616257316,1.4196499663650675,-0.7146925641885569
2.1304450387919904,18.428158533070494,-0.03390582258657529,1.3953739913414165,-0.687194045353056
2.122723212469354,18.10995468126292,-0.033240493262438095,1.3716160243766093,-0.6610508638004623
2.1151539838560858,17.797157861629874,-0.032578885983371816,1.3483563202585982,-0.6361791954029421
2.107736357682882,17.489655633021748,-0.03192221117492316,1.325576102420749,-0.6125013806917509
2.1004690808035713,17.18733976835125,-0.03127150081908102,1.3032575034096765,-0.5899454001486139
2.0933506807627977,16.89010605184284,-0.030627629970256563,1.2813835097069362,-0.5684444000636235
2.086379499711991,16.597854088515042,-0.029991335688933734,1.25993791053477,-0.5479362635298021
2.079553724230469,16.31048712501768,-0.029363233715601022,1.238905250311858,-0.5283632217860185
2.0728714115391944,16.02791188101927,-0.02874383316505012,1.2182707844569063,-0.5096715016789252
2.066330512534492,15.750038390406097,-0.02813354948453666,1.198020438266359,-0.4918110055024633
2.059928892016677,15.476779851614396,-0.02753271588776605,1.1781407686179848,-0.47473501990005224
2.053664346442897,15.208052486471715,-0.02694159344945341,1.1586189282748778,-0.4583999508881552
2.0475346194937156,14.943775406972843,-0.026360380021685538,1.1394426325848697,-0.44276508238761264
2.041537415708232,14.68387048946088,-0.02578921811295462,1.1206001283887184,-0.4277923559370472
2.035670412412137,14.428262255724977,-0.025228201853088435,1.1020801649669651,-0.41344616951598856
2.0299312701365535,14.176877760563698,-0.02467738315198843,1.0838719668702388,-0.39969319362863437
2.024317641702195,13.929646485397132,-0.02413677714677931,1.065965208491211,-0.3865022029962057
2.01882718012297,13.686500237542063,-0.023606367020394797,1.0483499902485347,-0.373843922380014
2.013457545465203,13.447373054793115,-0.023086108264536727,1.0310168162640583,-0.3616908852114931
2.008206410782899,13.212201114978924,-0.022575932451146183,1.0139565734245377,-0.35001730384206203
2.0030714672356007,12.980922650186375,-0.022075750568842024,0.9971605117280651,-0.3387989503469217
1.9980544322247888,12.753575723467183,-0.021550640829521846,0.9797692858301318,-0.3451296217527253
1.9931553434495086,12.530213827559379,-0.021050131129435844,0.9625080698899031,-0.35388638933417305
1.9883684740322987,12.31080751040222,-0.020574820324565448,0.9453729488679925,-0.36493818961402874
1.9836879776585994,12.09532820182066,-0.020125148142384124,0.9283601692325252,-0.37815826926783974
1.9791079236125488,11.883748177270526,-0.01970140877979454,0.9114661312034199,-0.39342387916375804
1.9746223288097517,11.676040523301811,-0.0193037634184414,0.8946873815680247,-0.4106159811293799
1.970225187066605,11.472179104612323,-0.01893225173935534,0.8780206070362057,-0.4296189661989349
1.9659104958276858,11.272138532570924,-0.018586802512116515,0.8614626281064027,-0.45032038315099304
1.961672280556132,11.075894135095684,-0.018267243327482505,0.8450103934174114,-0.47261067619527947
1.9575046169767567,10.88342192777785,-0.017973309536649527,0.8286609745637485,-0.49638293070752004
1.9534016513477217,10.69469858614714,-0.01770465245495905,0.8124115613554529,-0.5215326259437334
1.9493576189238704,10.509701418978064,-0.0174608468828784,0.7962594575060841,-0.5479573936901982
1.9453668607632097,10.328408342540275,-0.017241397992431823,0.7802020767355499,-0.5755567818225351
1.9414238390174468,10.150797855698805,-0.01704574762289868,0.7642369392772437,-0.6042320217569448
1.9375231508378818,9.97684901577201,-0.016873280025491152,0.7483616687818435,-0.6338857987785536
1.9336595410192738,9.8065414150566,-0.016723327092840246,0.7325739896130481,-0.6644220242258536
1.9298279134964735,9.639855157929741,-0.016595173105422415,0.7168717245335423,-0.6957456084961325
1.9260233418016455,9.47677083843838,-0.016488059023517097,0.7012527927826301,-0.727762233814204
1.9222410785837063,9.317269518285094,-0.016401186349865877,0.6857152085503008,-0.7603781256752329
1.9184765642862112,9.161332705118365,-0.016333720584874818,0.670257079856047,-0.7934998218314394
1.9147254350752636,9.008942331032792,-0.016284794292930276,0.6548766078445891,-0.8270339376413126
1.910983530105134,8.860080731181455,-0.016253509795152166,0.639572086514847,-0.8608869265378923
1.9072468982061166,8.714730622398392,-0.01623894150065258,0.6243419029031015,-0.8949648342988145
1.903511804076759,8.572875081723698,-0.016240137885065776,0.6091845377463989,-0.929173045714157
1.8997747340609774,8.434497524717198,-0.016256123121729145,0.5940985666579488,-0.9634160221475603
1.8960324015897296,8.299581683438475,-0.01628589836738253,0.579082661852684,-0.9975970283704149
1.892281752366915,8.16811158396155,-0.016328442700569934,0.5641355944683867,-1.031617846916803
1.8885199693800419,8.040071523281046,-0.0163827137070241,0.5492562375360119,-1.0653784780569704
1.8847444778179883,7.915446045453251,-0.016447647702135935,0.5344435696622037,-1.0987768233180248
1.8809529499809916,7.794219916799861,-0.0165221595760969,0.5196966794977059,-1.131708350290968
1.8771433102718662,7.6763780999836975,-0.016605142242385275,0.5050147710776393,-1.1640657362519327
1.8733137403625317,7.561905726744392,-0.01669546566487047,0.4903971701336995,-1.195738487891814
1.8694626846362943,7.450788069057147,-0.016791975432846957,0.47584333149451635,-1.2266125341921612
1.8655888560141483,7.343010508448739,-0.01689349084668234,0.46135284770903084,-1.2565697892070196
1.8616912422828036,7.23855850317155,-0.016998802469360225,0.4469254590491462,-1.2854876812127023
1.8577691130533749,7.137417552897563,-0.017106669090887403,0.4325610650724863,-1.3132386443748654
1.853822027492959,7.039573160549487,-0.017215814043164458,0.41825973795425425,-1.3396895687628598
1.8498498429868795,6.945010790834374,-0.017324920792309944,0.40402173782933637,-1.3647012042284061
1.845852724907577,6.853715824985436,-0.017432627723364902,0.3898475304223092,-1.388127513379931
1.8418311576872597,6.765673511149192,-0.017537522018522867,0.3757378072841455,-1.4098149686572214
1.837785957415997,6.6808689097764855,-0.01763813251419918,0.3616935090002474,-1.4296017883911856
1.8337182862154102,6.599286833286222,-0.017732921403944432,0.3477158517846535,-1.447317106791574
1.829629668671179,6.5209117791691575,-0.017820274632849582,0.33380635792895264,-1.462780073146556
1.825522010645953,6.44572785558492,-0.017898490803898243,0.31996689062962475,-1.475798876296427
1.8213976208390488,6.373718698378891,-0.01796576838657392,0.30619969377062467,-1.4861696918858451
1.8172592355117456,6.304867378307748,-0.01802019098127946,0.2925074372827859,-1.4936755523362786
1.8131100468589607,6.239156297116541,-0.018059710347283844,0.2788932687277036,-1.4980851433981461
1.8089537355820635,6.17656707096225,-0.01808212684312798,0.265360871744399,-1.49915153725138
1.804794508307282,6.117080399540203,-0.018085066850624294,0.2519145319255623,-1.4966108814663988
1.8006371406050503,6.060675919159596,-0.01806595664704336,0.2385592105145126,-1.4901810772451654
1.7964870265061559,6.0073320379640265,-0.018021992038996407,0.22530062596870276,-1.4795605014823183
1.7923502355939238,5.957025751553395,-0.017950102849977768,0.21214534281938657,-1.4644268586217535
1.7882335789990322,5.909732437514474,-0.017846911018644298,0.1991008662147048,-1.4444362948775564
1.7841446859691854,5.8654256279344175,-0.01770868054523885,0.18617573882926813,-1.4192229762125512
1.7800920931860449,5.824076760047049,-0.017531256699461914,0.1733796341043851,-1.3883994327643432
1.7760853497496623,5.785654907038918,-0.017309990573431553,0.16072343553154483,-1.351558120777174
1.7721351419014244,5.750126494157964,-0.017039642889504835,0.14821928517238622,-1.3082748687713956
1.7682534433698496,5.71745501025703,-0.01671425738505988,0.13588057483573213,-1.2581151842708729
1.764453700134332,5.687600732651166,-0.01632698814118226,0.12372183912830595,-1.2006448323561212
1.7607510631365277,5.660520494810896,-0.015869855317983562,0.11175848991752664,-1.1354466856620127
1.7571626902326627,5.63616754319975,-0.015333387324321709,0.1000063067011336,-1.0621465867050304
1.7537081514485795,5.614491552282914,-0.01470608036335619,0.08848057083658886,-0.9804517647347442
1.7504099925615715,5.595438894169668,-0.013973562132367544,0.07719471710467457,-0.8902058814686528
1.7472945462740928,5.578953284674466,-0.013117275150055775,0.06615840894055744,-0.7914641926715122
1.7443931360538696,5.5649769309826915,-0.01211237893884174,0.05537510142270709,-0.6845887814500855
1.741743910476242,5.553452242138722,-0.010924365214440042,0.044839584177042806,-0.5703541769370429
1.7393947140073458,5.544323944020405,-0.009503430167267334,0.03453692119960695,-0.45003427680252434
1.7374077767830187,5.537540912203255,-0.007774284826881177,0.024445964166924558,-0.32541290332738687
1.7358681734873318,5.533055866929885,-0.005613569918222419,0.014554429514546446,-0.1986364388133123
1.7349033605401214,5.530817522645652,-0.002776107883606544,0.004909433826624739,-0.07183853431479123
