x,y,v_x,v_y,omega
2.375,32.48,0.0,3.3846153846153846,-6.408163265306122
2.372822376443552,31.71265208345232,-0.018935857012590634,3.2879751940600817,-5.897818172036091
2.3666831314299355,30.966949136843247,-0.034448882236248674,3.1963982547144396,-5.449033678729691
2.3573007099519327,30.241775763659625,-0.04713739148551432,3.1094571642735773,-5.052283730317073
2.345269006250263,29.53610894430312,-0.05748611896378669,3.02677604752213,-4.6997792071487545
2.3310807505459485,28.849007158523072,-0.06589001759546931,2.9480220896956846,-4.385107350292253
2.3151460560863777,28.179601249194658,-0.07267254292253995,2.8728988609861683,-4.102954951639887
2.2978072326876338,27.527086668069142,-0.07809983445784376,2.801140974887875,-3.848893755921047
2.2793506937760766,26.890716833965797,-0.08239180825134586,2.7325097564455807,-3.6192126182381688
2.2600165824579115,26.269797397964375,-0.08573089886313458,2.6667896870450503,-3.4107851742579194
2.240006594598487,25.66368125663659,-0.08826899556664304,2.6037854549356667,-3.2209647412561826
2.2194903674477917,25.071764188595246,-0.09013297965679498,2.5433194845542872,-3.0475002802247104
2.1986107202498104,24.493481015240278,-0.09142916989086793,2.4852298489671973,-2.888468775760416
2.177487971074669,23.928302205992114,-0.09224690989297302,2.4293684923211574,-2.742220506996809
2.1562235065723487,23.375730863216443,-0.09266147708372313,2.3755997057281513,-2.607334508325158
2.1349027447214852,22.83530003364573,-0.09273645205422067,2.3237988122780426,-2.482582134934952
2.1135976022272622,22.30657030223299,-0.09252565659119773,2.273851026093594,-2.366897112406913
2.0923685560255545,21.789127631636475,-0.09207474516277944,2.2256504573543676,-2.2593508021076856
2.0712663709092665,21.282581416370604,-0.0914225167179871,2.17909924060971,-2.159131683856099
2.05033355151206,20.7865627253926,-0.09060199977945968,2.134106767894687,-2.065528265145566
2.029605565939759,20.300722710767182,-0.08964135302315616,2.090589011456787,-1.9779147873669376
2.0091118796049545,19.824731163245623,-0.0885646151055809,2.0484679235133005,-1.895739225215939
1.9888768308177593,19.35827519824842,-0.08739233087003005,2.007670902549341,-1.8185131741346419
1.9689203740476602,18.90105805795966,-0.0861420758264843,1.9681303173529001,-1.7458032984741705
1.949258712213636,18.452798017108275,-0.08482889664329163,1.9297830813547985,-1.6772240747853873
1.9299048356610093,18.01322738159151,-0.08346568207520078,1.8925702709649044,-1.61243161381989
1.910868982470905,17.582091570440443,-0.08206347609961856,1.8564367825226311,-1.5511183841848664
1.892159032285845,17.15914827277672,-0.08063174290090325,1.821331023248872,-1.4930086922390635
1.8737808438156662,16.7441666723968,-0.07917859162239173,1.78720463222869,-1.4378547983631131
1.855738544526588,16.336926733471287,-0.07771096741307205,1.7540122279931727,-1.3854335704435015
1.8380347796452066,15.937218541583842,-0.07623481416415666,1.721711179723728,-1.3355435922572023
1.8206709264743774,15.544841694974526,-0.0747552134082717,1.690261399487722,-1.288002658203082
1.8036472790759823,15.159604741410526,-0.07327650309951134,1.6596251532427255,-1.2426455971028878
1.7869632075915631,14.781324656595462,-0.07180237937369853,1.6297668886273917,-1.1993223770685713
1.7706172958175044,14.409826360456545,-0.07033598387898721,1.6006530777979784,-1.1578964510848067
1.7546074601040391,14.044942268025409,-0.06887997884679682,1.5722520737771086,-1.1182433092897162
1.7389310521882297,13.686511871960551,-0.06743661172545751,1.5445339789607844,-1.080249209196208
1.7235849481850858,13.33438135405276,-0.06600777091057682,1.5174705245852436,-1.04381005947644
1.7085656256357444,12.988403223315043,-0.06459503386630526,1.491034960090538,-1.0088304365903233
1.693894962905095,12.648439414194627,-0.06297594640021074,1.465172075739166,-0.9687757735953904
1.6795923114322786,12.314357281580982,-0.06139493597210732,1.4398899469881659,-0.9307663767686586
1.6656489207580072,11.986025892351861,-0.05985193945633802,1.4151656115259394,-0.8946713644545796
1.652056072377799,11.663319459519435,-0.05834674211069064,1.3909772826690805,-0.8603698204794109
1.6388051117209734,11.346117080508389,-0.056879002731271784,1.3673042739487238,-0.827749915970807
1.6258874747486538,11.034302492115579,-0.055448275288897696,1.3441269294670024,-0.7967081188026813
1.6132947099240544,10.727763840883224,-0.054054027533706764,1.3214265595099974,-0.7671484809238965
1.6010184962043708,10.426393467729667,-0.052695656985281863,1.2991853809557086,-0.7389819950207801
1.5890506576144154,10.130087705782657,-0.05137250466650389,1.2773864620617739,-0.7121260129961885
1.57738317488553,9.838746690450808,-0.050083866889021056,1.2560136712586558,-0.6865037196447021
1.566008194577438,9.552274180850858,-0.0488290053552574,1.2350516296104619,-0.6620436556838355
1.5549180360439894,9.270577391782282,-0.04760715580516541,1.214485666638021,-0.6386792849812538
1.5441051965548778,8.993566835507714,-0.046417535404500825,1.1943017792277992,-0.6163486014118079
1.5335623548432467,8.721156172658265,-0.04525934904446446,1.1744865933761057,-0.5949937712975536
1.5232823733126972,8.453262071637774,-0.04413179469944385,1.1550273285411992,-0.5745608078389092
1.5132582991057424,8.189804075949919,-0.04303406796972979,1.1359117643966563,-0.5549992743443398
1.5034833642085383,7.930704478917534,-0.04196536591900119,1.117128209797994,-0.5362620134168309
1.4939509847431622,7.675888205304766,-0.04092489030166094,1.098665473791279,-0.5183048995642493
1.4846547595782926,7.425282699390401,-0.039911850262422534,1.0805128385075378,-0.5010866129729419
1.47558846837146,7.178817819074993,-0.03892546457960122,1.0626600338003545,-0.48456843242426495
1.4667460691406835,6.936425735635876,-0.037964963514106595,1.0450972134963186,-0.46871404554622553
1.4581216954499965,6.698040838772808,-0.037029590317955864,1.0278149331390511,-0.45348937478052875
1.4497096532817908,6.463599646613297,-0.03611860244904819,1.0108041291175687,-0.43886241761209716
1.4415044176588774,6.233040720370713,-0.0352312725328082,0.9940560990788233,-0.42480309975616826
1.4335082120886067,6.006407992211432,-0.03430094981737161,0.9766632762192762,-0.42947811516122725
1.425721490460468,5.783760592436007,-0.03340967303600819,0.9594010696539983,-0.4366414048614634
1.4181352811990995,5.56506893489038,-0.032557364019369324,0.9422655176992912,-0.4461572798034625
1.4107406453008053,5.350304325464748,-0.031743817704927915,0.925252825132299,-0.45789463144818726
1.4035287041538944,5.139438924741981,-0.03096871400734272,0.9083593550656907,-0.471726603547865
1.3964906647419895,4.932445712444736,-0.030231628704872896,0.8915816214320853,-0.4875302783216447
1.389617842447905,4.729298453545084,-0.0295320434175989,0.8749162820431304,-0.5051863756281767
1.3829016816589865,4.529971665908054,-0.028869354746911477,0.8583601321919215,-0.5245789638042088
1.3763337743595014,4.334440589347317,-0.02824288263991506,0.8419100987710234,-0.5455951808993502
1.3699058768816554,4.142681155977247,-0.027651878037007215,0.8255632348817544,-0.5681249650888109
1.3636099249739715,3.954669961750774,-0.027095529855896375,0.809316714913661,-0.5920607930885767
1.3574380473340668,3.7703842390769324,-0.026572971360665092,0.7931678300762771,-0.617297425431413
1.3513825777421746,3.589801830415798,-0.026083285960136753,0.7771139843683633,-0.6437316574874993
1.3454360659220506,3.4129011627515524,-0.025625512475724498,0.7611526909728916,-0.6712620751304765
1.339591287247106,3.2396612228467205,-0.025198649915097796,0.7452815690691194,-0.6997888139582513
1.3338412514016682,3.070061533182308,-0.02480166178436251,0.7294983410562137,-0.7292133209779562
1.3281792101001484,2.904082128489442,-0.024433479967983212,0.7138008301860933,-0.7594381176558287
1.32259866396056,2.7417035327782955,-0.0240930082023513,0.6981869586064815,-0.7903665632151737
1.3170933686232353,2.5829067367694023,-0.023779125165689443,0.6826547458186678,-0.8219026170386374
1.311657340200738,2.4276731756310603,-0.023490687203851435,0.6672023075582041,-0.8539505989942691
1.3062848601408181,2.2759847069241275,-0.02322653070849701,0.6518278551107705,-0.8864149464577094
1.3009704795808188,2.1278235886522125,-0.022985474161061458,0.6365296950798051,-0.9191999667446294
1.2957090232692168,1.9831724573109,-0.022766319852868408,0.6213062296272741,-0.9522095835974795
1.290495593127946,1.8420143058241258,-0.022567855288616087,0.6061559572142421,-0.9853470762877937
1.2853255715278695,1.7043324612490025,-0.02238885427726696,0.591077473873791,-1.0185148097987584
1.2801946243492133,1.5701105621221423,-0.022228077711048747,0.5760694750554348,-1.0516139544414276
1.275098703899017,1.4393325353106903,-0.02208427402978907,0.5611307580876115,-1.0845441931307402
1.2700340517587185,1.3119825722195912,-0.021956179364110328,0.5462602253132486,-1.1172034144032224
1.2649972016369346,1.1880451041928275,-0.02184251734705465,0.531456887962964,-1.1494873890958706
1.2599849823053884,1.0675047769303312,-0.021741998579434534,0.5167198708413604,-1.1812894284242434
1.2549945206998552,0.9503464237234276,-0.021653319729549342,0.502048417914323,-1.212500020996596
1.2500232452730349,0.8365550372898412,-0.021575162242800445,0.48744189889947565,-1.2430064460797747
1.2450688896925366,0.7261157399639018,-0.021506190631097252,0.4728998169782686,-1.2726923601921876
1.2401294969848071,0.6190137519682111,-0.021445050305680925,0.45842181776685614,-1.3014373538412811
1.2352034242350043,0.5152343574590255,-0.021390364909995973,0.44400769970431486,-1.3291164749513067
1.230289347963695,0.41476286799829154,-0.021340733101389054,0.42965742604118906,-1.3555997152481665
1.2253862703140554,0.31758458306004655,-0.02129472472156388,0.41537113863918335,-1.380751455592284
1.2204935261982204,0.22368474712673958,-0.021250876285697332,0.4011491738243732,-1.4044298659941425
1.2156107915688632,0.1330485028711763,-0.021207685708712846,0.38699208057182105,-1.4264862558353422
1.2107380930023344,0.045660839851422,-0.021163606174147444,0.37290064133906786,-1.4467643696881018
1.2058758188031675,-0.038493461932155526,-0.02111703903599822,0.3588758959094428,-1.4650996241334104
1.2010247318669869,-0.11942989435681994,-0.021066325626441517,0.34491916865286626,-1.4813182812036862
1.1961859845704428,-0.19716429021284654,-0.02100973782176754,0.3310320996604141,-1.495236554638533
1.191361135993584,-0.2717128999033207,-0.020945467194395096,0.3172166802567588,-1.5066596462148207
1.186552171823075,-0.3430924768781196,-0.020871612549163365,0.3034752934371731,-1.5153807112463065
1.1817615273353053,-0.41132037300103264,-0.020786165605356212,0.28981075980554494,-1.5211797553089095
1.1769921139186783,-0.4764146451820537,-0.020686994539225605,0.27622638959464896,-1.523822468867227
1.1722473496669898,-0.5383941747361405,-0.02057182504067392,0.26272604131043287,-1.5230590135298456
1.167531194664968,-0.597278801041071,-0.020438218455168418,0.24931418742806863,-1.5186227842730997
1.1628481916989653,-0.653089471138486,-0.020283546466594755,0.23599598733207505,-1.5102291877895624
1.1582035132701178,-0.7058484069170063,-0.020104961610339377,0.2227773672637778,-1.4975745005373333
1.1536030159791866,-0.7555792913776003,-0.01989936265862759,0.2096651063065871,-1.4803349045845768
1.149053303615987,-0.8023074751200454,-0.019663353543108445,0.19666692623639115,-1.4581658500398629
1.14456180066094,-0.8460602034684968,-0.019393193892082838,0.18379158114146474,-1.4307019670672632
1.1401368384556656,-0.8868668633660377,-0.019084738327694684,0.17104893970669402,-1.39755785867575
1.1357877571285069,-0.9247592470021928,-0.018733360169338256,0.15845004843380409,-1.3583302622848004
1.1315250276423454,-0.9597718256394145,-0.018333852753804284,0.14600715710724255,-1.3126022932260113
1.1273604003518853,-0.991942021629427,-0.017880297598022604,0.13373367758850122,-1.25995080160662
1.1233070896877633,-1.0213104582926746,-0.017365882089994733,0.12164403252668421,-1.1999583119523223
1.1193800098010578,-1.0479211551199157,-0.016782638663966648,0.10975333118848353,-1.1322315897462365
1.115596084466353,-1.0718216186377845,-0.01612105989868359,0.09807678635821572,-1.0564295665639243
1.1119746682784535,-1.0930627570229277,-0.01536951564826949,0.08662876481697014,-0.9723040175481612
1.1085381383748523,-1.1116985215005144,-0.014513353078697487,0.07542136107507519,-0.8797566122448
1.1053127515536487,-1.1277851586158363,-0.013533488844811026,0.06446243992769729,-0.7789147864934134
1.1023299188719573,-1.1413799675975085,-0.01240418664815763,0.05375329034771671,-0.6702243951455902
1.0996281445758693,-1.152539545162135,-0.011089502883043046,0.04328651456206774,-0.5545463173577709
1.0972560522369594,-1.1613177554666407,-0.009537387020520866,0.03304574895537704,-0.43322447866035074
1.0952773386299437,-1.167764236827054,-0.007668818257876369,0.023010610700411986,-0.3080670408365602
1.0937798745665546,-1.1719255235483814,-0.005352608380289631,0.0131744912241791,-0.18116668149093162
1.0928979535040626,-1.1738551626699234,-0.002316270423989242,0.0036049793979457054,-0.05450972055245973
