x,y,v_x,v_y,omega
2.375,32.48,0.0,3.3846153846153846,-5.918367346938775
2.373643244433031,31.844760763200853,-0.014281637547041221,3.3021134237966483,-5.524217861092331
2.369780805486916,31.224858951903517,-0.026375614517328907,3.223168800385855,-5.169479945322753
2.3637977413417213,30.619642324763184,-0.03660400806366866,3.1475325379334356,-4.849049357726542
2.35602281392651,30.02850359948836,-0.04523733314907838,3.0749803596962932,-4.558604732011704
2.3467374186283467,29.450876076521567,-0.05250366998948257,3.005309355743607,-4.294470429730401
2.3361829498002797,28.886229840625216,-0.05859600188491061,2.938335232639063,-4.053506347721332
2.3245669051839952,28.33406844149215,-0.06367815197071289,2.873890021393199,-3.8330187990066213
2.3120679674064712,27.793925975207493,-0.06788961410849008,2.8118201500242193,-3.6306880000236466
2.2988402511338886,27.265364504069407,-0.0713495045502738,2.751984809324087,-3.4445087390138447
2.2850168662554715,26.747971764289264,-0.0741598099593787,2.69425455678265,-3.2727415764999255
2.2707129177597705,26.241359120396226,-0.07640806894273863,2.638510115775682,-3.113872512813181
2.256028039682601,25.745159732453775,-0.07816959502746733,2.584641336250103,-2.9665795012272094
2.241048542128971,25.259026907953793,-0.07950932658968403,2.5325462900655062,-2.8297045250588013
2.225849235773122,24.78263261484898,-0.08048337189293797,2.4821304794588435,-2.7022302194334533
2.210494986575811,24.31566613588584,-0.08114030386823433,2.4333061412057773,-2.583260222402828
2.195042044086344,23.857832847406698,-0.08152224865247383,2.3859916322588886,-2.472002599778454
2.1795391791300514,23.408853108251044,-0.08166580351902249,2.3401108851690267,-2.3677558138088495
2.1640286605440338,22.968461246417704,-0.08160281317590122,2.2955929236029595,-2.2698968054495303
2.148547095623687,22.536404632837037,-0.08136102809090484,2.2523714298777637,-2.1778708393152963
2.1331261548524854,22.112442833014335,-0.08096466423753752,2.210384357729641,-2.091182823910236
2.117793198129238,21.696346828494008,-0.08043488021769538,2.169573584589569,-2.0093898708046245
2.102571816939809,21.287898301100334,-0.07979018493418838,2.129884598501731,-1.9320948976875345
2.087482304632223,20.886888973767093,-0.07904678672461078,2.0912662155323813,-1.8589411136970497
2.072542065056185,20.49312000250135,-0.0782188930231581,2.053670324107057,-1.789607252695596
2.057765968248858,20.106401414656563,-0.07731896810660098,2.0170516532064715,-1.723803442452576
2.0431666605309395,19.72655158923432,-0.07635795523990858,1.9813675617645337,-1.6612676159933957
2.0287548352742686,19.353396775405454,-0.07534546851452516,1.9465778469603356,-1.6017623864425974
2.0145394696768175,18.986770645852054,-0.07428995882706128,1.9126445693912237,-1.5450723191405122
2.000528032102436,18.62651388189017,-0.07319885774537853,1.8795318933654788,-1.4910015451352574
1.9867266638861176,18.272473787647474,-0.07207870242639083,1.8472059407681536,-1.439371668735731
1.9731403389505164,17.924503930846367,-0.07093524426414907,1.8156346571382476,-1.3900199289706323
1.9597730041090515,17.58246380798655,-0.06977354354074454,1.784787688754567,-1.3427975807870698
1.9466277025315102,17.24621853193666,-0.06859805201232168,1.7546362696653355,-1.297568466845416
1.933706682508055,16.91563854013542,-0.0674126850766796,1.7251531177161665,-1.2542077549917197
1.9210114933575828,16.590599321772544,-0.06622088492829237,1.6963123387351517,-1.2126008200513532
1.9085430700785628,16.27098116247085,-0.065025675903495,1.6680893381247746,-1.1726422515990582
1.8963018081282828,15.956668905125941,-0.06382971304682267,1.6404607391900698,-1.1342349719125786
1.8842876295343625,15.64755172568065,-0.06263532478391605,1.6134043076024664,-1.097289450484861
1.8725000413859276,15.343522922719675,-0.06144455046276803,1.5868988814604155,-1.061723003315464
1.860938187617077,15.04447971986701,-0.060259173419869805,1.560924306462362,-1.0274591667767357
1.8496008948790699,14.750323080056283,-0.05908075013810027,1.5354613757557982,-0.9944271371971345
1.8384867131972271,14.460957530822938,-0.05791063598656147,1.5104917740688766,-0.9625612684582799
1.8275939520216415,14.176290999838336,-0.05675000796696969,1.485998025769032,-0.9318006208934861
1.8169295661099283,13.896236817957952,-0.05550668584053697,1.4619407308666095,-0.8994513566065018
1.806499191049948,13.620711286451442,-0.054286735843467354,1.4383280218335097,-0.8685186184069238
1.7962983753870432,13.349631389858846,-0.053090271134477465,1.415144573878012,-0.8389240774591921
1.7863226545788078,13.082916960528074,-0.051917316320632234,1.3923757348669668,-0.8105945560092732
1.776567566675304,12.820490554349348,-0.050767819505721914,1.3700074880669741,-0.7834616345775296
1.7670286658465524,12.562277333335388,-0.04964166290219109,1.3480264173431267,-0.7574612931123786
1.757701534013952,12.30820495459827,-0.048538672177814,1.32641967462652,-0.7325335828287205
1.7485817908117793,12.058203465308313,-0.047458624687161985,1.3051749494782803,-0.7086223258032676
1.7396651020781464,11.812205203251562,-0.046401256719500975,1.284280440592772,-0.6856748397067207
1.7309471870513158,11.570144702631119,-0.045366269878715386,1.2637248290961087,-0.6636416853252474
1.722423824426636,11.331958604783704,-0.04435333669686025,1.2434972535082591,-0.6424764347653125
1.714090857411216,11.097585573506855,-0.043362105570720004,1.223587286248045,-0.6221354584503875
1.7059441978974914,10.866966214714111,-0.04239220510006593,1.2039849115703087,-0.6025777292087112
1.6979798298627748,10.640043000155742,-0.041443247896950405,1.1846805048335711,-0.5837646419209546
1.6901938120894822,10.416760194961103,-0.040514833927181575,1.1656648130047231,-0.5656598473478592
1.6825822802897963,10.19706378877575,-0.03960655343793516,1.1469289363147648,-0.5482290988928373
1.675141448708873,9.980901430282138,-0.03871798951915179,1.1284643109864054,-0.5314401111750445
1.667867611272175,9.768222364907178,-0.037848720340825176,1.1102626929605381,-0.5152624293962329
1.6607571423349725,9.558977375533274,-0.036998321103412134,1.092316142554254,-0.4996673085812065
1.6538064970853894,9.353118726041739,-0.03616636573430512,1.0746170099882222,-0.4846276018582196
1.6470122116464752,9.150600107528891,-0.035352428359528364,1.0571579217259797,-0.47011765702329705
1.640370902917554,8.951376587045583,-0.034556084576486776,1.0399317675719906,-0.45611322070220284
1.633879268190475,8.755404558720713,-0.03377691255065689,1.0229316884792876,-0.44259134948650725
1.6275340845722939,8.562641697138172,-0.03301449395651299,1.0061510650211287,-0.42953032747666875
1.6213322082422599,8.373046912845144,-0.032268414780687975,0.9895835064844261,-0.41690958971593195
1.615277074021662,8.186785954136244,-0.031469840172972774,0.9710581641355572,-0.44791824343509773
1.6093691058281407,8.004034579323235,-0.030719298706199,0.9526405181066526,-0.48036647104080643
1.6035993135111548,7.82477259151824,-0.030015357262073696,0.9343277745775186,-0.514146613915967
1.5979589813934951,7.648980314182733,-0.02935655976592288,0.9161172500067796,-0.5491530018789446
1.5924396722801797,7.4766385704982845,-0.028741430900556152,0.8980063677242414,-0.5852817155609288
1.5870332307985824,7.307728663348257,-0.028168479432047488,0.8799926549076378,-0.6224303521020493
1.5817317861411184,7.1422323558378515,-0.027636201172833476,0.8620737399387532,-0.6604977931539466
1.576527754277252,6.980131852280682,-0.027143081604708633,0.844247350136726,-0.6993839741686574
1.5714138396975548,6.821409779580115,-0.026687598181578096,0.8265113098692516,-0.7389896539378106
1.5663830367490321,6.666049168933217,-0.02626822232918623,0.8088635390454711,-0.7792161833219223
1.5614286306178964,6.5140334377841285,-0.025883421156451536,0.7913020519975819,-0.8199652720765905
1.5565441980134382,6.365346371951997,-0.025531658890478662,0.773824956761697,-0.8611387526401009
1.5517236076045902,6.219972107856272,-0.025211398044761833,0.7564304547722686,-0.9026383396947404
1.546961020259224,6.077895114758999,-0.024921100327513393,0.7391168409885175,-0.9443653842512527
1.5422508891351407,5.939100176939881,-0.024659227294418457,0.7218825044758823,-0.9862206209315219
1.5375879596711677,5.803572375714971,-0.024424240747401044,0.7047259294705525,-1.0281039070378202
1.5329672695267398,5.671297071203991,-0.024214602878156095,0.687645696960812,-1.0699139518967538
1.528384148518854,5.542259883744315,-0.024028776152219707,0.670640486825272,-1.1115480348512659
1.5238342186064064,5.416446674841264,-0.023865222926177727,0.6537090805752397,-1.152901710143519
1.519313393973635,5.29384352753474,-0.023722404787207368,0.6368503647566025,-1.1938684967839115
1.5148178812668065,5.174436726050658,-0.02359878160046026,0.6200633350758478,-1.234339551335654
1.5103441800414141,5.058212734592541,-0.023492810245774393,0.6033471013253782,-1.274203321359073
1.5058890834810907,4.945158175113072,-0.02340294302078762,0.5867008931953314,-1.3133451770541025
1.5014496794542644,4.835259803887588,-0.02332762568264876,0.5701240670729011,-1.3516470184126677
1.4970233519803775,4.728504486690795,-0.02326529509510788,0.5536161139459598,-1.3889868549447528
1.492607783184378,4.6248791723540705,-0.023214376441728066,0.5371766685458941,-1.4252383547737673
1.48820095582629,4.524370864453104,-0.02317327995919724,0.5208055198853226,-1.4602703596106625
1.4838011565021403,4.426966590843836,-0.023140397137115756,0.5045026233701194,-1.4939463618165278
1.4794069796235187,4.332653370727908,-0.023114096322059196,0.48826811469230064,-1.5261239394576922
1.4750173322957925,4.241418178886725,-0.02309271765400852,0.4721023257412091,-1.5566541449579057
1.4706314402297016,4.1532479066748,-0.023074567252211475,0.45600580280539543,-1.585380842677893
1.4662488548380204,4.068129319307481,-0.02305791055495873,0.439979327376894,-1.6121399905321554
1.4618694616884824,3.986049008914911,-0.023040964703335203,0.4240239399132967,-1.6367588606290462
1.4574934905066406,3.9069933427618615,-0.023021889842368533,0.40814096696089813,-1.659055193955855
1.4531215269482192,3.8309484059516983,-0.02299877919364709,0.3923320520934503,-1.6788362844180438
1.448754526390402,3.757899937841284,-0.02296964773074141,0.3765991911740803,-1.6958979882151395
1.4443938300261223,3.687833261292276,-0.02293241926167689,0.36094477249968077,-1.7100236557901347
1.4400411835857247,3.6207332037737316,-0.022884911689877368,0.34537162243238284,-1.7209829857074916
1.4356987590576735,3.5565840092131182,-0.022824820184346277,0.3298830571530133,-1.7285308032073914
1.4313691798360324,3.4953692393721525,-0.02274969793819286,0.314482941172954,-1.7324057714460825
1.4270555497898392,3.437071663407501,-0.022656934126996316,0.299175753191815,-1.732329051428743
1.422761486831999,3.3816731341775643,-0.022543728587111875,0.2839666597548708,-1.7280029386289915
1.4184911616686198,3.3291544497959364,-0.022407062606353518,0.26886159689383654,-1.7191095220964818
1.4142493425426594,3.2794951989435717,-0.022243665035333787,0.25386735944686284,-1.7053094381411258
1.410041446962155,3.232673588588124,-0.02204997265418725,0.23899169692625857,-1.6862408293159685
1.4058736016453222,3.1886662531022942,-0.0218220833124725,0.22424341345091323,-1.6615186760030398
1.4017527122581162,3.1474480444490425,-0.021555699710748534,0.20963246710962155,-1.6307347505031888
1.3976865450225737,3.1089918043006577,-0.021246060663383897,0.19517006076811935,-1.5934585636161165
1.3936838230317636,3.0732681209636965,-0.020887855029354124,0.1808687111998949,-1.5492398472516766
1.3897543412764397,3.0402450772064604,-0.02047511081616089,0.1667422757183955,-1.4976133650675694
1.3859091062285924,3.009888000112934,-0.02000104758223025,0.15280590421347773,-1.438107193216315
1.3821605087650206,2.982159231698283,-0.019457873086948633,0.13907586857231025,-1.370256093438526
1.378522543950107,2.957017950160033,-0.018836493385824084,0.1255692002513683,-1.2936222284340464
1.3750110988689739,2.934420087200916,-0.018126086415578186,0.1123030414235501,-1.2078262172820706
1.3716443421317377,2.9143184070379924,-0.01731345818690745,0.09929359187037955,-1.1125922448270789
1.3684432687233996,2.8966628353826636,-0.01638205137454661,0.08655453081728083,-1.007811179900112
1.365432486029196,2.881401143882787,-0.015310398038122494,0.07409485339193671,-0.893624383795225
1.3626413784257583,2.8684800868311413,-0.014069681998064906,0.06191627346748187,-0.7705260529692443
1.3601058730199291,2.857847009023409,-0.012619848589611222,0.050010861350751216,-0.6394703450854122
1.3578711862415251,2.849451717680836,-0.010903170130430694,0.03836062646579574,-0.5019483448373778
1.3559962981250744,2.843247904740686,-0.008832494253260883,0.026942667641033854,-0.3599720615892368
1.3545620856731133,2.839192301784319,-0.006264478925276399,0.0157478897944153,-0.21588480230518567
1.353690666607119,2.83723616543557,-0.0029083533483490183,0.004843019139798576,-0.07194036330747608
