x,y,v_x,v_y,omega
2.375,32.48,0.0,2.2051282051282053,-2.0
2.374683225996067,32.043161064889745,-0.0031677400393297812,2.1632611459743,-1.9040213785837612
2.373769665281205,31.61457426731758,-0.005967867109289281,2.1226068297473573,-1.814666094125578
2.3723288821593926,31.19400287947052,-0.008439964108834927,2.0831070487232335,-1.7313265170467647
2.3704229851815604,30.78122144137079,-0.010619005669489893,2.0447073322740708,-1.6534617226357662
2.368107489740844,30.376015044345067,-0.01253594873767027,2.0073566379831704,-1.5805891209683791
2.365432070858324,29.97817867307438,-0.014218240087533827,1.9710070747237063,-1.5122772604164478
2.362441221497532,29.587516600238292,-0.01569025352038597,1.935613653637161,-1.4481396234364474
2.3591748294076735,29.20384182851785,-0.016973667378197457,1.901134063567271,-1.3878292639048828
2.3556686835443625,28.826975575359615,-0.018087791254912767,1.8675284680150712,-1.331034160251554
2.3519549194833838,28.456746796447867,-0.019049849354875137,1.8347593211024302,-1.2774731791378848
2.348062411871537,28.092991744299376,-0.019875226763589878,1.8027912003824484,-1.2268925613050126
2.344017120803664,27.735553558798255,-0.020577683915143155,1.771590654628769,-1.1790628551636875
2.339842398039614,27.38428188683709,-0.021169543725353332,1.7411260649828646,-1.1337762352630805
2.335559258149072,27.039032528534086,-0.02166185518006958,1.7113675180471684,-1.090844152396378
2.331186618971093,26.699667107760444,-0.022064536599723433,1.6822866896892683,-1.0500952701292015
2.3267415151786506,26.366052764944147,-0.022386501324698514,1.6538567384736977,-1.011373649255982
2.322239288229639,26.03806187032003,-0.022635768165415435,1.6260522077675132,-0.9745371473289136
2.3176937555507693,25.715571755975535,-0.022819558623282037,1.5988489356773976,-0.9394560051504378
2.3131173614281164,25.398464465200558,-0.022944382603246855,1.5722239720723727,-0.9060115961253588
2.3085213117580987,25.08662651779035,-0.023016114096930926,1.5461555020297202,-0.8740953177569921
2.3039156945374,24.77994869007594,-0.023040058110054357,1.5206227751143528,-0.8436076074452322
2.2993095877330725,24.478325808567977,-0.023021009933221336,1.4956060399652766,-0.8144570671870897
2.2947157724640506,24.181657369266,-0.022917142756998212,1.4710783530544878,-0.7850773863804172
2.2901454338134446,23.88984650353627,-0.02278624374906033,1.447030304242811,-0.7570492026469741
2.2856036737057335,23.602798995537196,-0.022631357328051445,1.4234447757479431,-0.730294297459084
2.2810950148335065,23.32042397475687,-0.022455231394220402,1.40030543205533,-0.7047398340064537
2.2766234570158344,23.042633764056518,-0.022260346782500304,1.3775966749481818,-0.6803179283154137
2.272192527976339,22.769343736399772,-0.02204894361245196,1.3553036016192805,-0.6569652590920827
2.2678053291265856,22.500472179676006,-0.021823044885081588,1.3334119656183783,-0.6346227123898568
2.2634645768746533,22.23594016907302,-0.021584477634241664,1.3119081404114732,-0.6132350576342295
2.2591726399208802,21.97567144649703,-0.0213348919034894,1.2907790853484238,-0.592750651918192
2.254931572951816,21.719592306576843,-0.02107577778715663,1.270012313853484,-0.5731211698162127
2.2507431470984667,21.46763148882453,-0.020808480746334564,1.2495958636696383,-0.5543013562599448
2.2466088774852384,21.219720075557333,-0.02053421538594745,1.229518269002305,-0.5362488002794216
2.2425300481608827,20.97579139521498,-0.02025407785760967,1.209768534421222,-0.5189237276439576
2.238507734671709,20.73578093073373,-0.019969057034127363,1.190336110391299,-0.502288810641043
2.234542824509799,20.499626232663193,-0.019680044584970934,1.1712108703140478,-0.48630899341248146
2.230636035644551,20.267266836734688,-0.01938784406751032,1.1523830889710027,-0.47095133142769585
2.2267879333241987,20.038644185610643,-0.01909317913601286,1.1338434222694453,-0.456184843816992
2.222998945314684,19.813701554563817,-0.01879670095913176,1.1155828881988095,-0.4419803774147415
2.219269375726104,19.59238398085259,-0.018498994926669402,1.0975928489134898,-0.42831048147580936
2.215599417561675,19.374638196574793,-0.018200586717617286,1.0798649938644496,-0.41514929212971574
2.2119891641105425,19.16041256479754,-0.017901947793709433,1.0623913239081095,-0.402472425727416
2.2084386192935863,18.949657018774072,-0.017603500375852836,1.0451641363265458,-0.39025688031644384
2.2049477070605303,18.742323004071608,-0.01730562195470841,1.0281760106980895,-0.3784809445525804
2.2015162799269303,18.538363423445595,-0.01700864938129395,1.0114197955620499,-0.36712411342114054
2.1981441267309325,18.33773258430684,-0.01671288257868417,0.994888595825512,-0.3561670101992471
2.194832731396472,18.14056008907662,-0.0164010707659153,0.9768363564766895,-0.3799974415623626
2.1915809997986706,17.94698678539425,-0.016116245212101674,0.9588966803469874,-0.40552306771720925
2.1883835562869187,17.756990464763316,-0.01585818990541715,0.9410665259623763,-0.43263525523560087
2.1852350770766704,17.570549515224585,-0.015626602197065367,0.9233429694249444,-0.4612278159203815
2.1821303068216307,17.387642898271356,-0.015421100353334792,0.9057232001073376,-0.49119677634953884
2.1790640737370777,17.208250126587473,-0.015241230492194568,0.8882045167315054,-0.522440152322529
2.17603130339322,17.032351242532222,-0.015086472946381185,0.8707843238209831,-0.5548577273041491
2.1730270312894646,16.859926797298286,-0.014956248091174067,0.8534601285183843,-0.588350833965423
2.170046414313196,16.69095783067022,-0.014849921671512558,0.8362295377622418,-0.6228221379185817
2.1670847411800707,16.52542585131201,-0.014766809659738738,0.8190902558198747,-0.6581754227341226
2.1641374419468935,16.36331281751247,-0.014706182672031979,0.8020400821755652,-0.6943153753118632
2.16120009668284,16.204601118317303,-0.014667269968505281,0.7850769097760819,-0.7311473706545003
2.158268443380096,16.049273554975848,-0.01464926305893309,0.768198723638482,-0.7685772550610442
2.1553383851808876,15.897313322629177,-0.01465131893314841,0.7514035998282371,-0.8065111267180762
2.1524059969943474,15.748703992164444,-0.014672562932256182,0.7346897048190862,-0.8448551126184992
2.1494675315737286,15.603429492157566,-0.01471209127393172,0.718055295249682,-0.8835151406795952
2.1465194251221176,15.461474090822986,-0.01476897324217785,0.7014987180961298,-0.9223967058639753
2.1435583024930027,15.322822377884975,-0.014842253048971342,0.685018411283985,-0.9614046290275031
2.140580982050885,15.18745924627975,-0.014930951372204697,0.6686129047682565,-1.000442807126474
2.137584480256546,15.05536987359137,-0.015034066571187802,0.6522808221155594,-1.0394139533111182
2.1345660160416595,14.92653970311693,-0.015150575577676274,0.6360208826288614,-1.0782193253126733
2.1315230150382023,14.800954424447802,-0.015279434456896791,0.6198319040624175,-1.11675844039551
2.1284531137295826,14.6785999534433,-0.01541957862929725,0.6037128059826059,-1.1549287749927946
2.1253541635926823,14.559462411461073,-0.01556992273970881,0.5876626138396455,-1.1926254469725353
2.1222242353030905,14.443528103694533,-0.015729360156209224,0.5716804638257721,-1.2297408782893393
2.119061623079854,14.330783496451197,-0.01589676207615671,0.5557656086075882,-1.266164435564676
2.1158648492510834,14.221215193187014,-0.016070976211546874,0.5399174240342359,-1.3017820459041565
2.112632669127934,14.114809909089686,-0.016250825019947786,0.5241354169390441,-1.3364757850041258
2.1093640762818695,14.011554443978714,-0.01643510344069483,0.5084192341706866,-1.3701234343225042
2.1060583083289335,13.911435653260543,-0.016622576088667494,0.49276867301100274,-1.402598003792578
2.1027148533350966,13.814440416643357,-0.01681197384969859,0.4771836931608523,-1.433767216247776
2.0993334569688935,13.720555604276964,-0.017001989812335368,0.4616644305030928,-1.4634929494081679
2.095914130541649,13.629768039938316,-0.017191274460107885,0.4462112128833797,-1.4916306309680953
2.0924571600919926,13.542064460831444,-0.01737843003645612,0.4308245781853505,-1.5180285820386958
2.08896311669027,13.457431473511196,-0.01756200398077093,0.41550529501713157,-1.5425273039691012
2.0854328681603627,13.375855505372375,-0.017740481318301027,0.40025438637108457,-1.564958703440676
2.081867592441676,13.297322751068464,-0.017912275868565888,0.3850731566680298,-1.5851452507663022
2.0782687928432333,13.221819113136657,-0.018075720115861556,0.3699632226500313,-1.6028990666291119
2.0746383154755743,13.14933013600761,-0.018229053560727466,0.3549265486404508,-1.6180209332051674
2.070978369185318,13.07984093246925,-0.018370409341835578,0.33996548674313876,-1.6302992269409038
2.0672915483629164,13.013336101535064,-0.018497798882181456,0.32508282259873467,-1.6395087725024384
2.0635808590477507,12.949799636540607,-0.018609094269477027,0.310281827345838,-1.6454096210225762
2.059849748818317,12.889214822162693,-0.01870200802485964,0.2955663164333124,-1.6477457613871507
2.0561021410317193,12.831564118932015,-0.018774069841115668,0.2809407158734672,-1.646243781865494
2.0523424740702976,12.776829033706957,-0.018822599773103882,0.2664101363771021,-1.6406115122729923
2.048575746370455,12.724989974517982,-0.018844677225319857,0.25198045551265724,-1.6305366960624978
2.0448075681596865,12.67602608821731,-0.01883710488236608,0.23765840749405615,-1.6156857702065628
2.0410442210283484,12.629915079538957,-0.018796366431014625,0.22345167928945595,-1.5957028727313873
2.0372927267385235,12.586633010584961,-0.018718576467234238,0.2093690102505014,-1.570209259517286
2.033560927065038,12.546154080551755,-0.018599420267617753,0.19542029008156067,-1.538803402473848
2.0298575770418372,12.508450386918643,-0.018434079964393647,0.18161664624957435,-1.5010621732360923
2.0261924548638124,12.47349167167036,-0.018217141815855844,0.16797050623327306,-1.456543707937146
2.0225764930582786,12.441245059902197,-0.017942476239477645,0.15449561144833185,-1.4047928231705995
2.0190219377054826,12.411674804040342,-0.017603077288485456,0.14120694717023397,-1.3453502401390536
2.0155425459762397,12.384742055802985,-0.01719084000394369,0.12812053520335262,-1.2777674026539132
2.012153837932253,12.36040470098516,-0.016696240435922414,0.11525301297490133,-1.2016293579355608
2.0088734278203435,12.338617310067225,-0.016107860683171906,0.10262089620445108,-1.1165889588597646
2.005721475283269,12.319331280341114,-0.015411664687573752,0.09023940105664789,-1.0224163303626082
2.0027213216749,12.302495269231922,-0.014589871396119013,0.07812071003525967,-0.9190675333153935
1.9999004168867491,12.288056032240743,-0.01361917648538651,0.06627165987654486,-0.8067743232465809
1.997291707911221,12.27595975420116,-0.012467913269895858,0.05469112051925932,-0.68615032033543
1.9949357735906825,12.266153841365664,-0.011091429935488041,0.04336800783569776,-0.5582942046363817
1.9928842156647733,12.2585888210305,-0.009424149323603935,0.03228219551596208,-0.42484565188475304
1.9912054068649208,12.25321928895104,-0.0073639386749213415,0.021413125278627612,-0.2879212894622898
1.9899958778408573,12.250001144768934,-0.004731351565714238,0.010768316542443765,-0.14984859379688587
1.9894137036599249,12.248874529702686,-0.0010903902436084846,0.0004978341200231606,-0.01268735059667439
