x,y,v_x,v_y,omega
2.375,32.48,0.0,3.8974358974358974,-5.3061224489795915
2.373571323613114,31.749530598961712,-0.015038698809325322,3.791715692440766,-4.904013515032583
2.369532824904626,31.03865586825218,-0.027471813911602187,3.691176209764827,-4.548015675210461
2.363338183751981,30.346429476362676,-0.0377349350636111,3.5954173890720864,-4.231347842114159
2.3553658023906965,29.671977049608504,-0.04618486873938061,3.5040818399191784,-3.948400916833601
2.3459322897619024,29.014488638251418,-0.053115264195294165,3.416848805944903,-3.6945082470210044
2.3353032994795355,28.373212225434663,-0.05876884404014887,3.333429223705162,-3.4657660729738056
2.323702289979032,27.7474480941162,-0.06334704543883414,3.2535616322786245,-3.25889199571567
2.3113176420641466,27.136543907476742,-0.06701766945469492,3.1770087533998828,-3.071112625555207
2.2983084697816074,26.539890388252616,-0.06992098615097954,3.1035546068541118,-2.9000738092835796
2.284809385869308,25.956917505076927,-0.07217463397848901,3.0330020581531207,-2.7437684594269873
2.2709344263341005,25.387091091244322,-0.07387757165527696,2.9651707190321797,-2.600478201465997
2.256780295331962,24.82990983476141,-0.07511328099881022,2.8998951386827256,-2.4687259387119505
2.242429058076552,24.284902589105222,-0.07595237432129574,2.8370232366455475,-2.3472370955238104
2.227950383541152,23.751625962499293,-0.07645472605133383,2.776414938153711,-2.2349077980765326
2.21340341844251,23.22966215024765,-0.0766712223554241,2.717940980284634,-2.130778630803514
2.1988383580668156,22.718616980120792,-0.07664520265188622,2.66148186315596,-2.034012896702353
2.1842977669180574,22.2181181452452,-0.07641365154556835,2.606926925008207,-1.943878533234114
2.1698176921832775,21.727813602620987,-0.07600818776790717,2.5541735236676884,-1.8597330088985946
2.155428605045099,21.24737011844138,-0.07545588737080906,2.503126309801836,-1.7810106607914977
2.141156198491573,20.776471943935608,-0.07477997108736152,2.453696579732633,-1.707212039516058
2.1270220651400997,20.31481960759975,-0.07400037998078061,2.4058016974869396,-1.6378949114554373
2.113044274445543,19.862128811492227,-0.07313425890928493,2.359364577329092,-1.5726666346863967
2.099237865300027,19.418129420811248,-0.07219636367509373,2.314313219312767,-1.511177677581815
2.085615267295047,18.982564537287757,-0.07119940479837918,2.2705802914608197,-1.4531160913525834
2.07218666168113,18.55518964805674,-0.0701543385060144,2.2281027530762407,-1.3982027816792342
2.0589602912282357,18.13577184264289,-0.06907061362971538,2.1868215144379684,-1.3461874519268295
2.045942726683808,17.72408909153829,-0.06795638157478577,2.146681128768326,-1.2968451125789713
2.033139096283009,17.31992958058025,-0.06681867527573243,2.107629512895246,-1.2499730695260636
2.0205532837379305,16.923091095973753,-0.06566356204088424,2.069617693488953,-1.2053883185282053
2.0081880992799066,16.53338045535873,-0.0644962743593657,2.0325995761428386,-1.1629252851969385
1.9960454276196515,16.150612980809388,-0.06332132206437209,1.996531734902865,-1.122433859718558
1.984126356098169,15.774612010080524,-0.06214258868807375,1.9613732201378238,-1.0837776836843624
1.9724312858064321,15.405208442792738,-0.06096341438284286,1.9270853828915133,-1.0468326531265817
1.9609600280368151,15.042240318581072,-0.05978666740259908,1.8936317140733936,-1.011485607443845
1.9497118880804538,14.685552424526108,-0.0586148058222569,1.8609776970315044,-0.977633178546671
1.9386857380908207,14.334995929447729,-0.057449930910723396,1.8290906722145825,-0.9451807784304536
1.9278800804856626,13.990428042873926,-0.05629383335409847,1.797939712772827,-0.9140417066273916
1.917293103149444,13.651711696703707,-0.0551480333429381,1.76749551007158,-0.8841363617105257
1.9069227275203502,13.318715247767742,-0.054013815384366295,1.737730268201757,-0.8553915433126462
1.8967666504945584,12.991312199655184,-0.05289225857133699,1.7086176066672636,-0.8277398330538965
1.8868223809516214,12.669380942322903,-0.051784262933262167,1.6801324705146283,-0.8011190444046442
1.877087271594857,12.35280450813572,-0.05069057240110063,1.6522510472451886,-0.7754717328940823
1.8675585467066655,12.041470343105345,-0.04961179484301929,1.6249506899166364,-0.7507447592507752
1.8582333263382296,11.735270092202793,-0.048548419561569064,1.598209845899702,-0.7268888990625796
1.849108647384017,11.43409939771555,-0.04750083258803758,1.5720079908081444,-0.7038584933979043
1.8401814819322007,11.137857709707927,-0.0464693300626604,1.5463255671668432,-0.6816111355611927
1.831448753231058,10.846448107721763,-0.04545412994937015,1.5211439274243717,-0.6601073897820529
1.822907349567402,10.55977713292586,-0.044455382299640134,1.4964452809535493,-0.6393105381756509
1.8145616709787813,10.277755783582784,-0.04339386600162807,1.4722005016051534,-0.6170428719148656
1.806415229295022,10.000298141477618,-0.04235815172215694,1.4484062573965935,-0.5957532684939454
1.798463167213642,9.727320082609289,-0.041347764923946075,1.4250469938489663,-0.5753875026654058
1.7907007199460736,9.458740373426142,-0.04036220631361536,1.402107839657836,-0.5558949246409227
1.7831232193868316,9.19448054461117,-0.03940095746788191,1.3795745689208259,-0.5372281867443207
1.7757260972871016,8.934464771808372,-0.038463485687170014,1.3574335658454837,-0.5193429937550912
1.7685048875701432,8.678619762836952,-0.03754924817555007,1.3356717917483976,-0.5021978746519511
1.7614552279083193,8.42687465097443,-0.036657695633122114,1.3142767541729052,-0.4857539737098649
1.7545728606662645,8.17916089392109,-0.03578827533587657,1.2932364779675127,-0.4699748591195418
1.7478536333013528,7.935412178087027,-0.034940433768457124,1.2725394781805017,-0.4548263474892523
1.7412934983009927,7.695564327869242,-0.03411361886691396,1.2521747346382968,-0.44027634275795335
1.7348885127261129,7.459555219610422,-0.033307281921293876,1.2321316680861283,-0.4262946881988332
1.7286348374213363,7.22732469995319,-0.032520879181617134,1.212400117779474,-0.41285303032580417
1.7225287359445782,6.998814508323878,-0.031753873205311194,1.1929703204237974,-0.39992469363418665
1.7165665732620308,6.7739682032986295,-0.031005733979397716,1.1738328903683137,-0.3874845652126015
1.7107448142485642,6.552731092621773,-0.03027593984656765,1.154978800967004,-0.37550898835743934
1.7050600220283787,6.335050166662352,-0.029563978260647626,1.1363993670268984,-0.3639756644055429
1.699508856186207,6.120874035109157,-0.028869346393789706,1.1180862282698816,-0.3528635620760877
1.6940880708753774,5.910152866718224,-0.02819155161494513,1.100031333739935,-0.3421528336800954
1.6887945128455653,5.702838331939102,-0.02753011185675893,1.082226927092931,-0.33182473761646397
1.6836251194100127,5.498883548257744,-0.026884555885901103,1.064665532710828,-0.3218615666276329
1.6785769163693027,5.298243028104501,-0.02625442348999258,1.0473399425864682,-0.3122465813367099
1.6736470159064512,5.100872629185517,-0.02563926559265649,1.0302432039291534,-0.30296394863168263
1.668832614466003,4.906729507104988,-0.025038644306798315,1.0133686074448343,-0.2939986845017544
1.6641309906280353,4.715772070154159,-0.024452132934966616,0.9967096762480933,-0.2853366009663585
1.6595446112386139,4.5281583205374005,-0.023825544848416366,0.9781718986651678,-0.3185637888903531
1.6550730499397983,4.344056556055058,-0.023243521454906827,0.9597414116752748,-0.35320119632047364
1.6507079604242485,4.1634466557662115,-0.022704789235089614,0.9414154334704778,-0.3891440287648995
1.6464412410572562,3.9863090170678497,-0.02220804620693552,0.9231912896701772,-0.42628941743228643
1.6422650399051055,3.812624535602559,-0.021751965920964282,0.9050664099644514,-0.46453619042548766
1.6381717590424651,3.642374585769087,-0.02133520105419796,0.8870383251247419,-0.5037846469920325
1.6341540582125567,3.4755410017664303,-0.020956386629051128,0.8691046643768935,-0.5439363338658383
1.6302048579091488,3.3121060591028737,-0.020614142880504092,0.851263153134219,-0.5848938227250404
1.6263173419452475,3.152052456501476,-0.020307077792143347,0.8335116110910115,-0.6265604877735348
1.6224849595696913,2.9953632981332454,-0.020033789318972223,0.815847950679824,-0.6688402824284676
1.6187014271897233,2.8420220761082646,-0.01979286731226935,0.7982701758989129,-0.7116375140620133
1.614960729754936,2.692012653153512,-0.019582895159177712,0.7807763815195468,-0.754856615702797
1.611257121855838,2.5453192454039417,-0.019402451147116643,0.7633647526864628,-0.7984019135495792
1.607585128588615,2.4019264052305047,-0.019250109560495582,0.7460335649286771,-0.8421773890865486
1.6039395462364863,2.2618190040250745,-0.01912444151454271,0.728781184602178,-0.8860864345148921
1.600315442817415,2.124982214857738,-0.01902401552831267,0.7116060697908384,-0.9300316001282002
1.5967081585477985,1.9914014949163672,-0.018947397836071685,0.6945067716972625,-0.9739143321586122
1.593113306272214,1.8610625676318016,-0.01889315243323915,0.6774819365613284,-1.0176346995051517
1.5895267719103203,1.733951404384129,-0.01885984084985156,0.6605303081510261,-1.0610911076240817
1.5859447149736834,1.6100542056763771,-0.018846021641063426,0.6436507308779547,-1.1041799977118745
1.5823635692076385,1.4893573816510965,-0.018850249580460717,0.6268421535986847,-1.1467955291430045
1.578780043416396,1.371847531812758,-0.01887107453788033,0.6101036341733032,-1.188829242935702
1.575191122533498,1.2575114238042104,-0.018907040018941872,0.5934343448640386,-1.2301697038075576
1.5715940690045378,1.14633597106846,-0.018956681338535716,0.5768335786701594,-1.2707021181481626
1.5679864245548525,1.0383082092072868,-0.019018523394994342,0.5603007567106235,-1.3103079249768486
1.5643660124218042,0.9334152708253391,-0.01909107800551258,0.5438354367835446,-1.3488643566697909
1.5607309401394156,0.8316443586219826,-0.019172840756473186,0.5274373232517794,-1.3862439659329524
1.5570796029726675,0.7329827164624767,-0.019262287314559264,0.511106278427228,-1.4223141151679581
1.5534106881098872,0.6374175981248378,-0.01935786913575752,0.49484233565319574,-1.4569364240317395
1.5497231797345457,0.5449362333778751,-0.01945800849941676,0.478645714314837,-1.489966170636141
1.5460163651126937,0.4555257909989052,-0.01956109278323627,0.4625168370427501,-1.5212516414844242
1.542289841849478,0.3691733382854565,-0.019665467882193376,0.4464563494146166,-1.5506334249194764
1.5385435264879979,0.28586579655311795,-0.01976943065970316,0.4304651425047059,-1.5779436425967377
1.5347776646465987,0.2055898920404573,-0.019871220302391957,0.4145443786811978,-1.603005113343429
1.5309928429169912,0.12833210156063757,-0.01996900843031723,0.39869552110634915,-1.6256304437988924
1.5271900027759004,0.05407859214744093,-0.020060887791692152,0.3829203674536444,-1.6456210405584601
1.523370456797975,-0.017184846160297695,-0.020144859344367466,0.3672210884172625,-1.6627660393263024
1.5195359074982973,-0.08547287536657677,-0.02021881749434216,0.3516002716488166,-1.676841148056995
1.5156884691801742,-0.15080069349497904,-0.020280533222742883,0.33606097180802835,-1.6876074035759392
1.5118306932194856,-0.21318412872422954,-0.02032763478450783,0.32060676744721706,-1.6948098452193434
1.5079655972829056,-0.2726397450491902,-0.020357585600544032,0.30524182544706924,-1.6981761153624566
1.5040966990568476,-0.3291849609639641,-0.02036765888427786,0.28997097365578034,-1.6974150063893867
1.5002280551616582,-0.38283818277143666,-0.0203549084335029,0.2747997822123215,-1.6922149882806758
1.4963643060484526,-0.43361895418217955,-0.020316134863398463,0.25973465369027127,-1.6822427728754337
1.4925107278350227,-0.48154812383264556,-0.020247846330601275,0.24478292157777554,-1.6671420034055089
1.4886732922500652,-0.5266480321600682,-0.020146212458425482,0.22995295555296263,-1.6465322060837986
1.484858736149905,-0.5689427186143305,-0.02000700964852266,0.21525427028138283,-1.6200082116314243
1.4810746424954315,-0.6084581493017183,-0.01982555513540797,0.20069763169115054,-1.587140359186163
1.477329535305846,-0.645222463594699,-0.019596625807599324,0.18629515034025704,-1.5474759480987517
1.4736329920676772,-0.679266235634806,-0.01931435564681002,0.1720603448187446,-1.500542625660402
1.4699957785854865,-0.7106227424615241,-0.018972102060459017,0.15800814809407948,-1.445854718700808
1.466430013671199,-0.7393282239593475,-0.018562265458356816,0.1441548150409356,-1.3829239680923722
1.4629493749771147,-0.7654221099302134,-0.018076036584634473,0.13051766886293742,-1.3112767403267345
1.4595693636707934,-0.788947175226923,-0.017503029797696013,0.11711459741824413,-1.2304805789333693
1.4563076561488817,-0.8099495641403038,-0.016830733590849523,0.10396318061731581,-1.140183848385657
1.453184588210961,-0.8284786006442175,-0.016043665755681693,0.09107930889757264,-1.0401729265201594
1.4502238452357892,-0.8445862763623495,-0.01512204977244486,0.07847517234590969,-0.9304511424476083
1.4474534776263384,-0.8583262978640036,-0.014039714537561495,0.06615663293463415,-0.8113407118919826
1.4449074359724539,-0.8697526140235894,-0.012760723924381524,0.05412037927151293,-0.683600139086205
1.442627952197106,-0.8789175025600002,-0.011233842131913932,0.042352131638071416,-0.5485308111090541
1.4406693689348637,-0.8858696946258178,-0.009382823786424306,0.03082883747577462,-0.40801660819274055
1.4391048010509566,-0.8906538909270125,-0.00708631183365107,0.01953112358944623,-0.264410354146285
1.4380402051481194,-0.8933153194100925,-0.004119960827793627,0.008483913074526306,-0.12018024764524263
