x,y,v_x,v_y,omega
2.375,32.48,0.0,2.3076923076923075,-2.7346938775510203
2.3746390827626027,32.06841718657712,-0.0040101915266342915,2.2654500636729953,-2.609953501135401
2.3735963177231487,31.664333672339552,-0.007576086689525417,2.2243667611888758,-2.4933368960178575
2.3719475937007206,31.267545670450552,-0.010743069115227448,2.184388815355576,-2.3841374724415907
2.3697610818381216,30.877858737244615,-0.013551507135874002,2.1454659980437163,-2.281722448490245
2.3670980832908732,30.49508719286751,-0.016037365611328635,2.1075511617019074,-2.185524009522371
2.3640137741916365,30.119053589018115,-0.018232735491303352,2.0705999921802456,-2.0950316554511574
2.3605578616037985,29.749588218912365,-0.020166293262450022,2.034570786772524,-2.0097855591811036
2.356775162168582,29.386528665217106,-0.021863700462180332,1.9994242542858998,-1.9293707883626179
2.3527061134627787,29.029719382232585,-0.023347951824525346,1.9651233344310206,-1.853412266334711
2.3483872266627532,28.679011309053543,-0.024639679286864925,1.9316330342249817,-1.7815703676897687
2.3438514879090033,28.334261510824543,-0.025757417977024494,1.8989202794305764,-1.713537060099389
2.339128714747225,27.995332845535984,-0.026717839376068336,1.8669537793312174,-1.649032517511678
2.3342458731562186,27.662093654092693,-0.027535956079555897,1.83570390337198,-1.587802141067774
2.329227359935169,27.334417471633966,-0.02822530193210529,1.8051425683916837,-1.5296139334897376
2.324095254592425,27.012182758298533,-0.028798090765053727,1.7752431353353346,-1.4742561805867194
2.318869544337926,26.695272647815525,-0.029265356507157,1.745980314475869,-1.4215354001734415
2.31356832531785,26.383574712466306,-0.02963707704924238,1.717330078293223,-1.37127452430748
2.3082079828311803,26.07698074310645,-0.029922283913753903,1.6892695812607308,-1.32331128550351
2.3028033529239837,25.775386543064098,-0.03012915949954429,1.661777085876537,-1.2774967816160248
2.2973678674600446,25.4786917348434,-0.030265123433112773,1.634831894353391,-1.233694197514176
2.291913684509278,25.186799578661482,-0.030336909353180983,1.6084142854457346,-1.1917776645999436
2.2864518056722396,24.899616801935867,-0.030350633280580356,1.582505455949978,-1.1516312417237449
2.2809921817652055,24.617053438918653,-0.030311854575352418,1.5570874664635475,-1.1131480031962293
2.2755438081215686,24.339022679744076,-0.030225630353948284,1.5321431910317596,-1.0762292214365803
2.2701148106181672,24.06544072821974,-0.03009656412828508,1.5076562703497263,-1.0407836333822897
2.2647125234066956,23.79622666774846,-0.02992884933251499,1.483611068220065,-1.006726781151668
2.2593438763981433,23.531303485099656,-0.029722784095840178,1.4599798500999697,-0.9729748112564076
2.25401454119518,23.27059674952103,-0.029492051492641336,1.4367616563292378,-0.9406458365076539
2.24872871286871,23.014033351691303,-0.029239374357024145,1.4139427640010784,-0.9096639199698031
2.243490118808052,22.761542600452124,-0.02896722631695713,1.391510027545329,-0.8799579392183372
2.2383020615072065,22.513056121658508,-0.028677854803548057,1.3694508479392786,-0.8514612322408933
2.2331674574115867,22.268507762394925,-0.028373301814446306,1.3477531438783523,-0.8241112728728417
2.228088872208369,22.02783350021742,-0.028055422665752845,1.3264053247605785,-0.7978493730165942
2.223068552903796,21.790971357107352,-0.027725902940615017,1.305396265351272,-0.7726204091764619
2.2181084569953753,21.55786131784523,-0.027386273819613217,1.284715282005645,-0.7483725710917626
2.2132102790154162,21.32844525253437,-0.027037925957710988,1.264352110337269,-0.7250571304738995
2.208375474694309,21.102666843023357,-0.0266821220545927,1.244296884229553,-0.7026282280516511
2.2036052829669535,20.880471512994077,-0.026320008249355046,1.2245401160957794,-0.6810426773058412
2.1989007460234276,20.66180636149838,-0.025952624456490412,1.2050726783008445,-0.6602597834324502
2.1942627275850524,20.446620099741473,-0.02558091374767683,1.1858857856647662,-0.6402411762142934
2.1896919295692028,20.234862990923958,-0.02520573087287494,1.1669709789743095,-0.620950655607586
2.185188907290243,20.026486792967134,-0.024827850004456992,1.1483201094348139,-0.602354048962722
2.180754083329695,19.821444703958043,-0.02444797177940786,1.1299253239995324,-0.5844190788999248
2.1763877601959263,19.619691310161414,-0.02406672970691396,1.1117790515185673,-0.5671152409513707
2.1720901318821437,19.4211825364559,-0.023684696001779443,1.0938739896538472,-0.5504136901631143
2.167861294421165,19.225875599061098,-0.023302386897981375,1.076203092510587,-0.5342871359236554
2.163701255526138,19.033728960430608,-0.022920267491209786,1.058759558939324,-0.5187097443521825
2.1596099433980367,18.84470228619413,-0.02253875615435857,1.0415368214659788,-0.5036570476391945
2.155587214773243,18.658756404039252,-0.02215822856557238,1.024528535810465,-0.4891058597860416
2.1516328622777317,18.475853264430164,-0.021779021384554256,1.0077285709571955,-0.47503419823855064
2.1477466211482805,18.295955903067103,-0.02140143560934701,0.9911309997434348,-0.4614212109538569
2.143930143709116,18.119252877057015,-0.02100386927026319,0.9722359559242192,-0.49741440593031994
2.1401820097124875,17.94594163531925,-0.02064206402560626,0.9534445078287062,-0.5346127044725127
2.1364958761893695,17.776003762312822,-0.020314975120149063,0.9347540811316446,-0.5729135852183422
2.13286559135614,17.60942129675162,-0.020021523026844706,0.9161622028817107,-0.612215889439765
2.1292852005299894,17.446176713577977,-0.019760597263719364,0.897666499047688,-0.6524196004808507
2.1257489513914676,17.28625290634586,-0.01953105983096451,0.8792646924202321,-0.6934256236816748
2.1222512986606366,17.129633169949635,-0.019331748289380012,0.8609546008711761,-0.7351355658253644
2.118786908249717,16.97630118363346,-0.0191614784986175,0.8427341359751963,-0.7774515131163457
2.1153506609520494,16.82624099421554,-0.01901904703102228,0.8246013020017074,-0.820275806660383
2.1119376557245753,16.679436999459455,-0.018903233274247058,0.8065541952881584,-0.8635108143707799
2.108543212618906,16.535873931522666,-0.01881280123318602,0.788591004009482,-0.9070586981694699
2.105162875414398,16.395536840409196,-0.018746501039126295,0.7707100083623956,-0.9508211752858925
2.101792414005459,16.258411077349695,-0.018703070171307165,0.7529095811876019,-0.9946992723796627
2.0984278265946457,16.12448227802761,-0.01868123439328452,0.7351881890577907,-1.0385930711241267
2.0950653417429272,15.993736345564578,-0.018679708403586234,0.7175443938647725,-1.0824014437858744
2.0917014203288677,15.866159433171681,-0.018697196197077024,0.6999768549451867,-1.1260217772189731
2.0883327574694137,15.741737926365413,-0.01873239113018953,0.6824843317911392,-1.1693496835608366
2.084956284456526,15.620458424638212,-0.018783975679677874,0.6650656873999689,-1.2122786957679181
2.081569170766086,15.502307722462852,-0.01885062088076238,0.6477198923262679,-1.2546999459624624
2.078168826198441,15.387272789497636,-0.018930985426405048,0.6304460295094817,-1.2965018243750495
2.0747529032136214,15.275340749845196,-0.019023714404923845,0.6132432999620722,-1.3375696164604285
2.0713192995288447,15.166498860201116,-0.019127437648151464,0.5961110294165952,-1.3777851155352334
2.0678661610513998,15.060734486709539,-0.019240767656792772,0.5790486760453721,-1.4170262080351579
2.064391885226578,14.958035080320894,-0.019362297063447206,0.56205583938403,-1.455166428216357
2.0608951248880527,14.858388150421398,-0.019490595586836103,0.5451322706103783,-1.4920744788327596
2.0573747927071677,14.761781236474672,-0.0196242064229953,0.5282778843532366,-1.5276137140109871
2.05383006634816,14.668201877381971,-0.01976164201042534,0.5114927722323314,-1.5616415802237664
2.0502603944485567,14.577637578228607,-0.019901379096278468,0.4947772183606164,-1.5940090109412004
2.046665503558144,14.490075774039425,-0.020041853019416727,0.4781317170747476,-1.624559770233007
2.043045406186193,14.405503790114857,-0.0201814511133742,0.46155699319825383,-1.6531297403283403
2.039400410125403,14.323908798460327,-0.020318505117622176,0.4450540251854019,-1.6795461479498623
2.0357311292426323,14.245277769754882,-0.020451282468719738,0.42862407154177984,-1.7036267241799312
2.0320384959513342,14.169597420228847,-0.020577976323480067,0.4122687009697348,-1.7251787927692983
2.0283237756092984,14.09685415273481,-0.020696694143587196,0.39598982674178934,-1.7439982822797662
2.024588583118387,14.02703399120059,-0.020805444644316287,0.379789745860665,-1.7598686584324428
2.020834902041384,13.960122507547656,-0.020902122877939924,0.3636711836163694,-1.772559774760387
2.017065106595875,13.896104740044912,-0.020984493183272585,0.34763734419191294,-1.7818266424983915
2.0132819869378253,13.834965101948708,-0.021050169683942854,0.3316919679881183,-1.7874081251057696
2.0094887782102964,13.776687279161305,-0.021096593955267015,0.31583939631636615,-1.7890255696692248
2.0056891939086325,13.721254115531284,-0.0211210093965569,0.30008464401719864,-1.786381397775846
2.0018874642070603,13.668647484337537,-0.021120431732022264,0.2844334803577484,-1.7791576938874454
1.9980883800099525,13.618848144469766,-0.02109161490250852,0.2688925181730442,-1.7670148521264812
1.994297343644967,13.571835579885594,-0.02103101137510808,0.25346931053996924,-1.7495903761069374
1.99052042732226,13.52758782115366,-0.020934725543855805,0.23817245314818455,-1.7264979759599914
1.9867644407718954,13.486081248385549,-0.020798458349087192,0.22301168871969201,-1.6973271791723825
1.9830370098858952,13.447290375773253,-0.02061744038424783,0.20799800697248255,-1.6616437775358561
1.9793466688066539,13.411187619516987,-0.0203863493850988,0.1931437292082573,-1.6189915858714996
1.9757029688426027,13.377743053496722,-0.02009920577102504,0.17846255990579962,-1.5688962090782492
1.9721166090587419,13.346924161106685,-0.01974923627187242,0.1639695777612804,-1.5108718282470655
1.9685995957213231,13.318695597921128,-0.01932868969944724,0.1496811243004678,-1.4444324542003506
1.965165441530349,13.293018989169312,-0.01882857908915486,0.13561452849750028,-1.3691096844590938
1.9618294216667127,13.269852799328415,-0.018238308284581735,0.12178758084579877,-1.284479737179061
1.958608913600561,13.249152329133622,-0.017545114672657406,0.10821764354077594,-1.190203338483032
1.9555238637345,13.230869917179891,-0.016733217172465602,0.09492026705624058,-1.0860826108876247
1.9525974500528647,13.21495544434207,-0.015782490401261208,0.08190720891954306,-0.9721386894660361
1.949857052056658,13.201357245720416,-0.014666376223257362,0.06918388687660804,-0.8487107502782368
1.947335708156186,13.190023495084048,-0.013348556004208872,0.056746675749700395,-0.7165685986240187
1.9450743613169643,13.180903979073342,-0.01177751998714476,0.044581279924826994,-0.5770133537168144
1.9431254458757181,13.173951816499105,-0.009877096026700732,0.03266497090003282,-0.4319134067749735
1.9415590741596518,13.169123899032098,-0.007527034151813682,0.02097855651114959,-0.28359608132696623
1.940475884194542,13.166376821593264,-0.004508409904962245,0.009544526142563675,-0.13451552493108265
1.940049982556386,13.165643589150271,-0.00022383051899515626,-0.0013974989981891985,0.013233661303290706
