x,y,v_x,v_y,omega
2.375,32.48,0.0,3.1794871794871797,-3.3469387755102042
2.3743524190133245,31.914050018909933,-0.0071953442963950814,3.1088459437357696,-3.1466439194313294
2.3725002994456714,31.36057603838928,-0.013383762010860521,3.0408649509381473,-2.9641820245921355
2.3696127971747027,30.81911361051874,-0.018699596555456263,2.975384247623391,-2.7974861996988225
2.365836633143808,30.28922590556182,-0.02325778156559982,2.912256918564614,-2.6447731254944866
2.3612993099275705,29.770501489500635,-0.027156920837038207,2.851347704337432,-2.5044988092614417
2.3561118221010324,29.262552333695385,-0.030481832791161893,2.792531804609786,-2.375322028839172
2.3503709476576042,28.765012026008026,-0.03330566102470779,2.7356938363608787,-2.2560739965189036
2.3441611913245333,28.277534157726713,-0.03569163156497003,2.6807269223203654,-2.1457330794588243
2.3375564375760938,27.79979086465144,-0.037694521195465396,2.627531889627159,-2.043403650360085
2.330621360702777,27.331471503970747,-0.03936188850805726,2.576016562380513,-1.9482983269144911
2.323412630896466,26.872281451238138,-0.040735109339843666,2.526095134648459,-1.8597230034261651
2.315979948525002,26.4219410039681,-0.041850250343085926,2.4776876127964056,-1.7770641922893289
2.3083669332610857,25.98018438021088,-0.04273880814487355,2.4307193178393884,-1.69977828363052
2.3006118902408708,25.546758802004636,-0.04342833652418312,2.3851204400077615,-1.6273824036591396
2.292748471754095,25.121423654900653,-0.0439429799955481,2.3408256389254065,-1.5594466101244675
2.2848062499506594,24.70394971585623,-0.04430392893151552,2.2977736837904077,-1.4955872098242466
2.276811213562159,24.29411844272619,-0.04452980871848937,2.255907128765559,-1.4354610207212046
2.268786199580821,23.89172131938547,-0.04463701329637211,2.215172019464657,-1.3787604317395044
2.2607512691326845,23.496559251204804,-0.04463999168292643,2.175517626987203,-1.3252091381685167
2.2527240353625992,23.10844200619725,-0.044551494651351414,2.1368962064300447,-1.2745584509219647
2.2447199499642227,22.72718769766999,-0.044382787552832675,2.099262777206182,-1.2265840945730895
2.236752553996922,22.352622304665676,-0.044143834306063695,2.062574922841773,-1.1810834228128093
2.228833697799707,21.984579226870764,-0.04384345677410274,2.0267926082127827,-1.1378729913157226
2.220973734112448,21.6228988710128,-0.043489473084334145,1.9918780124312876,-1.0967864373934633
2.2131816879243287,21.267428266071526,-0.04308881789476517,1.9577953758050501,-1.0576726236231675
2.205465406070366,20.91802070489603,-0.04264764714926786,1.9245108594782367,-1.0203940091476074
2.197831689173788,20.574535410056132,-0.04217142947937218,1.8919924165206448,-0.9848252177845654
2.1902864081727604,20.236837221965853,-0.041665026087604445,1.8602096733713493,-0.9508517766439308
2.182834607364003,19.90479630750273,-0.04113276067637005,1.82913382066338,-0.9183690027843115
2.175480595634891,19.578287887512488,-0.04057848075820488,1.7987375125615201,-0.8872810186710546
2.168228027332493,19.257191981736554,-0.040005611490657664,1.7689947738377578,-0.8574998799261598
2.1610799740268765,18.941393169832043,-0.039417203016195904,1.7398809139901263,-0.8289448011711185
2.154038988261966,18.630780367272532,-0.038815972149475395,1.7113724477822145,-0.8015414677248518
2.1471071602461786,18.32524661502419,-0.03820433913705005,1.6834470216437802,-0.7752214225873186
2.140286168313513,18.02468888198766,-0.03758446011479172,1.6560833454287924,-0.7499215195618545
2.133577323880896,17.729007879282157,-0.03695825580317182,1.6292611290767882,-0.7255834345847686
2.1269816115369067,17.438107885526176,-0.03632743690782591,1.6029610237674663,-0.7021532283714814
2.120499724818452,17.151896582339315,-0.03569352663055995,1.577164567197651,-0.6795809543814662
2.1141320981638714,16.8702848993535,-0.035057880642558666,1.5518541326447293,-0.6578203068719906
2.1078789354717298,16.593186868079403,-0.03442170482567867,1.5270128815119115,-0.6368283044719828
2.1017402356430788,16.320519484026253,-0.03378607104822455,1.5026247190786397,-0.616565005278108
2.0957158154400575,16.052202576520767,-0.033151931207566716,1.4786742532045356,-0.5969932499686508
2.0898083546445876,15.788159442831525,-0.03248652207543234,1.4551383433425997,-0.5770402460037607
2.0840198281113747,15.528315932826668,-0.031830439404707964,1.4320117678224857,-0.5579222442808955
2.078348529658789,15.272599584421297,-0.031183987846243936,1.409280992237209,-0.5395949954588642
2.0727927040111047,15.020940320889977,-0.030547408239139272,1.3869330469996908,-0.5220170366528732
2.0673505576116735,14.773270351878715,-0.02992088508787237,1.364955497569891,-0.5051494878862448
2.0620202681643205,14.529524079608457,-0.029304553216049377,1.3433364165440749,-0.48895586540045
2.0567999930428362,14.289638009947108,-0.028698503689335072,1.3220643574709268,-0.47340191026539996
2.051687876692764,14.053550668050388,-0.028102789089241898,1.3011283302703962,-0.458455430890595
2.04668205713584,13.821202518293337,-0.02751742820991444,1.280517778141294,-0.4440861581787583
2.0417806716751965,13.592535888233861,-0.026942410241682008,1.2602225558528632,-0.43026561218911424
2.036981861888642,13.367494896367951,-0.026377698497808636,1.240232909323929,-0.41696697928934
2.032283777987742,13.14602538345272,-0.025823233734416216,1.220539456400853,-0.40416499887504137
2.0276845826119354,12.92807484718892,-0.025278937107878704,1.2011331687524673,-0.39183585882477384
2.023182454119418,12.713592380068611,-0.02474471280898535,1.1820053548065077,-0.37995709893838864
2.0187755894298203,12.50252861020682,-0.024220450408763115,1.1631476436578494,-0.3685075216778938
2.0144622064678055,12.29483564498804,-0.023706026946959183,1.1445519698841486,-0.3574671095940374
2.0102405462514117,12.090467017369626,-0.023201308790749355,1.1262105592093317,-0.3468169488792664
2.006108874664306,11.889377634694405,-0.022706153288201497,1.1081159149598077,-0.33653915853932465
2.0020654839469176,11.691523729874412,-0.02222041023833624,1.0902608052623517,-0.32661682472216225
1.998108693937715,11.49686281481653,-0.021743923197247758,1.0726382509363277,-0.31703393978461303
1.9942368530925751,11.305353635968991,-0.02127653063763837,1.0552415140363518,-0.30777534571494636
1.9904483393072352,11.116956131875302,-0.020818066977249947,1.0380640870046383,-0.29882668156336334
1.9867415605651815,10.93163139262932,-0.020368363490014207,1.021099682395168,-0.2901743345631746
1.9831149554309762,10.749341621131652,-0.019927249112268428,1.004342223134484,-0.28180539465311155
1.9795669934069156,10.570050096053777,-0.01949455115507096,0.9877858332863719,-0.27370761213629763
1.9760996573060559,10.39394332026179,-0.01903140552114817,0.9689561199579309,-0.3147839575746745
1.9727118380744453,10.22121684031384,-0.018611030385636912,0.9502269905748718,-0.35694710149933107
1.9693959655335425,10.051852773703235,-0.018231997846614816,0.931595971765169,-0.4000987610364034
1.9661447276354718,9.885833674528715,-0.017892867687503745,0.9130606857294947,-0.44414185898298153
1.9629510724501296,9.723142516489787,-0.017592189927409754,0.8946188480363678,-0.48898030913413926
1.9598082097207388,9.563762676248409,-0.017328507065821376,0.8762682657567251,-0.5345188016658803
1.9567096120413943,9.407677917095626,-0.017100356038007594,0.858006835940853,-0.5806625876105075
1.9536490157074229,9.25487237286104,-0.01690626989500632,0.839832544443447,-0.6273172614281668
1.9506204212871023,9.105330532001624,-0.016744779219668257,0.82174346510561,-0.674388540637003
1.9476180939614305,8.95903722180459,-0.016614413287795005,0.8037377593058992,-0.7217820414138345
1.9446365636772427,8.815977592636408,-0.016513700980958453,0.7858136758961368,-0.7694030490167669
1.941670625157999,8.676137102167004,-0.01644117145508345,0.7679695515416747,-0.8171562818098388
1.9387153378160755,8.539501499494133,-0.016395354566288236,0.7502038114902185,-0.8649456475866398
1.9357660256103597,8.40605680908817,-0.016374781052775143,0.7325149707982545,-0.9126739907937469
1.932818276893426,8.275789314471858,-0.01637798246871316,0.7149016360496658,-0.9602428291445246
1.9298679442935702,8.148685541542722,-0.016403490863015607,0.6973625076074033,-1.0075520779879603
1.9269111446785605,8.0247322414379,-0.016449838192648406,0.6798963824461826,-1.0544997606542317
1.9239442592501317,7.903916372831738,-0.01651555545655986,0.6625021576222959,-1.1009817028370246
1.9209639338211209,7.786225083545602,-0.016599171532448925,0.6451788344458836,-1.1468912088905197
1.9179670793307113,7.671645691336625,-0.016699211694326328,0.6279255234316345,-1.1921187177147226
1.9149508726576525,7.560165663717331,-0.01681419578410481,0.6107414501160775,-1.236551435674736
1.9119127577966144,7.451772596640954,-0.016942636005205444,0.5936259618436586,-1.2800729437461562
1.9088504474691188,7.346454191867426,-0.01708303430030074,0.5765785356399648,-1.3225627757988683
1.9057619252479059,7.244198232802013,-0.01723387926873389,0.5595987873090916,-1.3638959646246263
1.9026454482822626,7.144992558571968,-0.01739364257174537,0.5426864819136468,-1.4039425519804851
1.8994995507219308,7.048825036075879,-0.017560774765274272,0.5258415458206523,-1.4425670585626391
1.8963230479488993,6.955683529704757,-0.01773370049063342,0.5090640805251316,-1.4796279094482947
1.8931150417399072,6.86555586839286,-0.017910812942611178,0.49235437849592584,-1.5149768101554786
1.889874926498063,6.778429809608905,-0.018090467522324218,0.47571294132579167,-1.5484580680864537
1.8866023967099166,6.694292999843636,-0.01827097456819055,0.45914050051055,-1.5799078537623534
1.8832974558049622,6.613132931086955,-0.018450591042413172,0.44263804123035383,-1.6091533959596513
1.879960426618266,6.534936892715805,-0.018627511031991843,0.4262068295601851,-1.6360121046759544
1.876591963684203,6.459691918131728,-0.01879985490203955,0.409848443596239,-1.660290615862136
1.8731930676207194,6.387384725393655,-0.018965656914444646,0.3935648090490094,-1.6817837521767787
1.8697651018997945,6.318001650986389,-0.01912285109583244,0.3773582399206217,-1.7002733948192388
1.866309812341798,6.2515285757480825,-0.01926925510412796,0.3612314849494411,-1.7155272630320624
1.8628293497203336,6.187950841852011,-0.01940255180103055,0.3451877805624793,-1.7272976005025074
1.8593262959215275,6.127253159601096,-0.019520268185706968,0.329230911114351,-1.7353197721798905
1.8558036941697162,6.069419502653517,-0.01961975127886271,0.31336527719208596,-1.7393107817573294
1.8522650839132595,6.014432990163364,-0.0196981404595446,0.29759597269850013,-1.7389677304133595
1.848714541064381,5.962275754208317,-0.019752335639103127,0.28192887124648264,-1.733966253090814
1.8451567244126998,5.912928790813474,-0.019778960490687614,0.2663707220295562,-1.7239589921376168
1.8415969291945953,5.866371792910758,-0.01977431971047579,0.2509292546672859,-1.7085742032698121
1.8380411490176627,5.822582963766191,-0.01973434892210829,0.23561329138344542,-1.6874146410126647
1.834496147640294,5.7815388098721385,-0.019654555270876506,0.22043286299491316,-1.660056948042865
1.8309695425386405,5.743213913207235,-0.0195299458586064,0.20539932217066495,-1.6260518868380052
1.8274699028362362,5.707580684371294,-0.019354939723665008,0.19052544267311194,-1.5849259194257748
1.824006865158048,5.6746091007931305,-0.019123256700646594,0.17582548597315045,-1.5361848851289326
1.8205912725235605,5.644266438552837,-0.018827772571438143,0.16131520558566362,-1.4793208781041054
1.8172353438876547,5.616517013154155,-0.01846032338306985,0.1470117432885582,-1.4138239239003587
1.8139528860033658,5.5913219548748785,-0.01801143088680771,0.1329333487034099,-1.3392007335457214
1.8107595659687592,5.568639059307436,-0.017469902831043216,0.11909882426815604,-1.2550036837690526
1.8076732738685721,5.548422774270801,-0.016822231615480198,0.10552656502778442,-1.16087414664148
1.8047146231569935,5.5306244097445365,-0.016051665179838144,0.09223304081958261,-1.0566050333272277
1.8019076663912,5.5151926825292,-0.015136743328978752,0.07923059490636856,-0.9422270171900035
1.7992809530053602,5.502074715635082,-0.014048960958129894,0.06652459280605325,-0.8181193535633545
1.796869137383408,5.491217565236724,-0.012748990396893853,0.054110411620145855,-0.6851358885693406
1.7947154912894547,5.482570168374668,-0.01118041064703193,0.04197177573603925,-0.5447151871564397
1.792875990450821,5.47608515761387,-0.00925848756001009,0.030083899383958168,-0.398910097889017
1.7914265814118873,5.471719001491071,-0.006846057317030539,0.018428946424904582,-0.25024069838815166
1.7904793079155272,5.469426137655091,-0.0036792037536352152,0.007047318419308545,-0.10128023409705855
