x,y,v_x,v_y,omega
2.375,32.48,0.0,3.230769230769231,-2.36734693877551
2.374530536543296,31.904985563774055,-0.005216260630045112,3.1582800606301253,-2.223685618142165
2.3731889391220164,31.342770995991433,-0.009690377384169356,3.0885484702878854,-2.0930144622051
2.371099724657177,30.79287484353634,-0.013523116669604797,3.0214087792131745,-1.9738065607975304
2.3683706042202624,30.254844281224365,-0.016800443740555823,2.956708579808762,-1.8647470993236064
2.365094932809805,29.728252844178463,-0.019595905264525832,2.8943073873679084,-1.7646999329457582
2.361353767950735,29.21269838795233,-0.021972593169590184,2.834075459589142,-1.672680008999738
2.3572176052992497,28.707801248206536,-0.02398476962468574,2.775892759808574,-1.587830517262868
2.3527478465415586,28.213202575971735,-0.02567921657188626,2.7196480428003356,-1.5094038804880348
2.3479980446113995,27.728562828007107,-0.02709636042987766,2.665238045695527,-1.4367458783073415
2.3430149630422044,27.25356039463801,-0.028271212561183454,2.6125667695166377,-1.3692823386967625
2.3378394796737467,26.78789034985425,-0.029234158199456548,2.5615448391918196,-1.3065079419721262
2.332507359610272,26.331263310462184,-0.03001162028359342,2.512088931831138,-1.2479767697261934
2.3270499180139224,25.883404392782268,-0.03062661967584916,2.464121264612375,-1.1932943004777519
2.321494589808635,25.44405225682517,-0.031099249271784462,2.4175691349109263,-1.1421106090844069
2.3158654205048306,25.012958229109582,-0.03144707632604571,2.3723645063733807,-1.0941145712277236
2.3101834900076312,24.589885496339065,-0.03168548475394839,2.3284436355212352,-1.0490289098629133
2.3044672793411336,24.17460836306291,-0.031827967096023736,2.285746734213849,-1.0066059492525377
2.298732988628916,23.766911567230416,-0.03188637415084138,2.2442176639249896,-0.9666239654869136
2.29299481335326,23.366589648228697,-0.03187112891199715,2.2038036583163056,-0.9288840413358413
2.2872651848218086,22.97344636258657,-0.03179141032635317,2.164455071040638,-0.8932073487422372
2.2815549798598127,22.587294143044648,-0.03165531147360324,2.1261251460918444,-0.8594327949400757
2.2758737039859946,22.207953597145185,-0.0314699760132637,2.0887698083466653,-0.8274149785964199
2.2702296516936946,21.83525304189355,-0.031241716123402836,2.0523474722270256,-0.7970224109690563
2.264630046924885,21.46902807139414,-0.030976114641150885,2.0168188666553384,-0.7681359641794797
2.259081166375217,21.109121154673346,-0.03067811368849179,1.9821468746868014,-0.7406475145996155
2.253588447889164,20.755381261176762,-0.03035209171209683,1.9482963863863516,-0.7144587542598961
2.2481565858837613,20.407663511670975,-0.03000193057015636,1.9152341636779393,-0.6894801472836518
2.242789615467778,20.065828852496942,-0.029631074051877405,1.8829287160335493,-0.665630011781903
2.2374909866923827,19.72974375131466,-0.029242579008072946,1.8513501859918036,-0.6428337105201773
2.232263630172911,19.39927991265109,-0.028839160097171086,1.8204702436034457,-0.6210229360898851
2.2271100151537713,19.074314011717178,-0.02842322900437757,1.7902619889955727,-0.600135078358654
2.2220322009452564,18.754727445097885,-0.027996928868008763,1.7606998623298853,-0.5801126637003942
2.217031882538322,18.440406097042843,-0.027562164542374437,1.731759560503931,-0.5609028569689577
2.2121104310980972,18.131240120196626,-0.027120629237898923,1.7034179600095922,-0.5424570184220779
2.207268929946341,17.827123729707875,-0.026673828003838822,1.6756530454209844,-0.5247303088603725
2.2025082065650596,17.527955009746798,-0.02622309845484354,1.6484438430354127,-0.507681337148984
2.19782886108621,17.233635731542293,-0.025769629087933173,1.6217703592368757,-0.49127184506136307
2.1932312916742176,16.94407118212365,-0.025314475489757435,1.5956135231924975,-0.47546642504610837
2.188715717157678,16.65917000301873,-0.024858574694015735,1.5699551335288024,-0.4602322670856383
2.1842821972229,16.378844038221068,-0.024402757914630868,1.5447778086674429,-0.4455389313039767
2.17993065044401,16.103008190793364,-0.02394776185081388,1.5200649405292852,-0.43135814340199335
2.1756608703913036,15.831580287524943,-0.02349423873481026,1.495800651342062,-0.4176636103620405
2.1714749813978584,15.564481322759029,-0.023015638970134703,1.4719656238347463,-0.4036169428101133
2.167374601370266,15.301634945055984,-0.02254413911422351,1.4485496839768737,-0.39016283504880384
2.1633584349645143,15.042966972599984,-0.022079932060798398,1.425538898867572,-0.37726965911688465
2.1594251561246365,14.788405678831392,-0.02162316616006597,1.4029199207834508,-0.3649077932448568
2.155573415619408,14.537881689904136,-0.02117395056469451,1.3806799561860672,-0.3530494742661256
2.151801847670612,14.291327887546629,-0.02073235997748581,1.3588067366751162,-0.3416686623368974
2.1481090757744328,14.048679316988757,-0.02029843886894884,1.3372884917456933,-0.330740916819487
2.1444937178059904,13.809873099641877,-0.019872205224852595,1.316113923219662,-0.32024328230111676
2.1409543904868484,13.574848350241247,-0.019453653876727383,1.2952721812317842,-0.3101541838245626
2.1374897132863575,13.343546098180905,-0.019042759462061454,1.2747528416609153,-0.3004533304997394
2.134098311819778,13.11590921278994,-0.018639479055486925,1.2545458849053428,-0.29112162674790437
2.1307788207991125,12.89188233231662,-0.018243754507464818,1.2346416759093388,-0.28214109050378916
2.1275298865863905,12.671411796402804,-0.01785551452277739,1.2150309453552828,-0.2734947777666999
2.124350169393671,12.454445581846016,-0.017474676507441864,1.1957047719423517,-0.26516671295037086
2.1212383451691545,12.240933241460109,-0.017101148209408706,1.1766545656788527,-0.2571418245339201
2.1181931072045086,12.03082584585814,-0.01673482917554367,1.1578720521208132,-0.2494058855633381
2.1152131674946717,11.824075927992759,-0.01637561204486745,1.1393492574945256,-0.24194545859516695
2.1122972578780117,11.620637430300167,-0.016023383695797904,1.1210784946453927,-0.23474784471193225
2.1094441309817045,11.420465654303712,-0.015678026263170677,1.1030523497596763,-0.22780103627295703
2.106652560994503,11.223517212542472,-0.01533941803907316,1.0852636698096678,-0.22109367309483519
2.1039213442866873,11.029749982698728,-0.015007434269985836,1.0677055506763828,-0.21461500178344192
2.101249299894866,10.839123063806209,-0.014681947861360494,1.0503713259071825,-0.20835483796423987
2.098635269887384,10.651596734428374,-0.014362829999555128,1.033254556068758,-0.20230353118009042
2.0960781196244263,10.467132412702902,-0.014049950699972192,1.016349018658705,-0.19645193224606028
2.0935767379253925,10.285692618154886,-0.013743179289294168,0.9996486985414854,-0.19079136286904633
2.0911324381336325,10.107455115829797,-0.013415707285815662,0.9807679939595163,-0.23234183551456233
2.088743551112101,9.932606998405909,-0.013127481842314864,0.9619888663058908,-0.27501133877548034
2.0864031230981315,9.761130208422767,-0.012877273868454536,0.9433088001734812,-0.3187025592513615
2.0841044234934105,9.593007132620365,-0.012663832850668405,0.9247253754087819,-0.3633194487536021
2.081840948441627,9.428220585004215,-0.01248588994692258,0.9062362647706563,-0.40876701468393567
2.0796064238791496,9.266753790302207,-0.0123421607472707,0.8878392319183087,-0.4549511107181371
2.0773948081172047,9.108590367753845,-0.0122313477187863,0.8695321297301568,-0.5017782268722929
2.0752002940109313,8.953714315171915,-0.012152142350917454,0.8513128989579464,-0.5491552779986886
2.073017310768016,8.802109993215602,-0.012103227014808903,0.8331795672232909,-0.5969893897199229
2.0708405254473945,8.653762109812487,-0.012083276547650961,0.8151302483668962,-0.6451876807626535
2.0686648441967503,8.508655704664697,-0.012090959570616702,0.7971631421640806,-0.6936570405956932
2.066485413276218,8.36677613377178,-0.012124939546412175,0.7792765344238872,-0.742303901210147
2.0642976199148535,8.228109053899242,-0.012183875579859577,0.7614687974931719,-0.7910340018009605
2.0620970930460656,8.092640406917614,-0.012266422962228995,0.7437383911916046,-0.8397521450185182
2.059879703968317,7.960356403931591,-0.012371233457196616,0.7260838642086423,-0.888361943354558
2.0576415669780728,7.831243509112877,-0.012496955323298394,0.7085038559993041,-0.9367655541072634
2.055379040023168,7.7052884231429495,-0.01264223306452692,0.6909970992221265,-0.9848634012344265
2.0530887254266093,7.582478066163645,-0.012805706897239384,0.6735624227701363,-1.0325538822493665
2.05076747073326,7.462799560123454,-0.012986011917754626,0.6561987554541946,-1.07973305814004
2.0484123697350847,7.346240210395873,-0.013181776950859392,0.6389051304078301,-1.1262943240955867
2.0460207637345706,7.232787486532718,-0.013391623054852815,0.6216806902939015,-1.1721280586044829
2.0435902431108044,7.122429001999695,-0.013614161653659966,0.6045246934063434,-1.2171212482425962
2.041118649258498,7.0151524927233595,-0.013847992260856196,0.5874365207751556,-1.2611570851960496
2.0386040769771547,6.9109457942575965,-0.014091699754068605,0.5704156843999961,-1.304114534261526
2.0360448773956943,6.809796817353412,-0.014343851151050219,0.5534618367576247,-1.3458678657348084
2.0334396615273427,6.711693521687597,-0.014602991830631629,0.5365747817514233,-1.3862861502374462
2.030787304560652,6.616623887473171,-0.01486764113260005,0.5197544872977657,-1.4252327111436762
2.0280869510053026,6.524575884636654,-0.015136287260170819,0.5030010997746398,-1.4625645298602081
2.0253380208261653,6.43553743920355,-0.015407381396907109,0.48631496059318347,-1.498131598789388
2.0225402167161604,6.34949639648277,-0.015679330936481585,0.46969662519325145,-1.5317762163870943
2.0196935326781316,6.26644048058245,-0.015950491708285802,0.45314688481029397,-1.563332218335222
2.0167982641086035,6.186357249722342,-0.016219159064247174,0.43666679141313214,-1.5926241385230988
2.0138550196023504,6.1092340467307835,-0.01648355767189619,0.42025768627083604,-1.6194662933309303
2.0108647347267112,6.035057944025965,-0.016741829835209276,0.4039212326715972,-1.6436617827188604
2.007828688049182,5.96381568228076,-0.016992022137336447,0.3876594533862349,-1.665001401977583
2.004748519741787,5.895493601857265,-0.01723207016705108,0.3714747735415089,-1.6832624588833822
2.0016262531320477,5.830077565970985,-0.017459781052274647,0.3553700696393889,-1.69820749270632
1.9984643196243825,5.767552874406622,-0.017672813477340118,0.33934872552021816,-1.7095828944640419
1.9952655874791745,5.7079041664601355,-0.017868654802748914,0.32341469610740564,-1.717117432612561
1.9920333950120146,5.651115311631369,-0.01804459483236153,0.3075725797677741,-1.7205206959290926
1.9887715888662802,5.59716928644858,-0.01819769567579811,0.29182770004098535,-1.7194814770126843
1.9854845681235433,5.546048035689729,-0.018324757021278882,0.2761861972795761,-1.713666137588392
1.9821773351564453,5.497732316206381,-0.018422275946474775,0.26065513031319826,-1.702717023580753
1.9788555543105126,5.452201521605502,-0.018486400119444107,0.24524258747435632,-1.6862510380551916
1.975525619745635,5.409433486283373,-0.01851287282364061,0.22995780499375426,-1.6638585400088048
1.9721947341085904,5.369404267861881,-0.018496967587968472,0.21481128857835313,-1.6351028260312628
1.9688710002014171,5.332087908149148,-0.018433409158398587,0.19981493045200713,-1.5995205837693527
1.9655635285510864,5.2974561746372935,-0.018316275845278413,0.18498210856859534,-1.5566239006073748
1.9622825649331028,5.265478287716935,-0.018138875465648845,0.17032774610203966,-1.5059046954957902
1.9590396437253887,5.236120643898062,-0.01789358239784217,0.15586829632990182,-1.446842852760921
1.955847775927074,5.209346553314347,-0.01757161536120759,0.14162159904470606,-1.3789199170364026
1.9527216855452436,5.185116021858228,-0.017162722214686513,0.12760652824548954,-1.3016409960057782
1.9496781161357193,5.163385625752266,-0.016654715668919105,0.11384231737629652,-1.2145685083184155
1.9467362427510289,5.144108549960361,-0.01603276638319553,0.1003474136448619,-1.1173724674018055
1.943918246954411,5.127234889979572,-0.015278298023670906,0.08713769725277613,-1.0099026169871688
1.9412501496774164,5.112712341063617,-0.014367227276268754,0.07422395736895446,-0.8922866661324027
1.9387630582121071,5.100487396515753,-0.013267122338278188,0.061608759829535065,-0.7650534169326727
1.936495088398922,5.0905070943897535,-0.0119325422526672,0.049283486014894615,-0.6292651838796423
1.9344944213122974,5.082721087884259,-0.010297092043161512,0.03722769737948675,-0.48661587836967235
1.9328244302137452,5.0770831889301675,-0.008258364607417253,0.025415624332633027,-0.3394123519730269
1.931573433486677,5.073550089571967,-0.005641599026673718,0.013841035202940622,-0.19033028264187898
1.930880250407581,5.0720696081829075,-0.00206043518550406,0.002608758008818969,-0.041874413957638024
