x,y,v_x,v_y,omega
2.375,32.48,0.0,2.871794871794872,-3.591836734693878
2.374308907093486,31.94025152889583,-0.007274662173827688,2.8097679819332195,-3.385442038187234
2.372328778705736,31.412075605049278,-0.013568794539336546,2.7499785848725673,-3.1965905257931673
2.3692339939035008,30.895059518077876,-0.019007887589451128,2.692296014826395,-3.023332542926587
2.365176742506131,30.38881439053809,-0.02370002185654822,2.6366000645397705,-2.863975691724507
2.360290080321203,29.89297329579247,-0.02773852745848411,2.582779880150997,-2.7170461180185703
2.3546905215090823,29.40718957162822,-0.03120419687962585,2.530733005788472,-2.5812563085337095
2.3484802451458817,28.93113530356488,-0.03416713325933019,2.480364552773004,-2.455478189680008
2.341748978996492,28.464499956087803,-0.03668829989213957,2.4315864733014876,-2.3387205650612346
2.334575612253508,28.006989133500177,-0.038820823718218066,2.384316922357721,-2.2301101201605626
2.3270295799347456,27.558323454887816,-0.04061109542665174,2.3384796946145188,-2.128875372643427
2.319172054296755,27.1182375299802,-0.04209970076272025,2.2940037254656485,-2.034333065018214
2.311056972656418,26.68647902457608,-0.04332221124083093,2.250822647209274,-1.945876590254332
2.3027319261399266,26.26280780576475,-0.04430985735381068,2.2088743929099635,-1.8629661158303084
2.294238929881606,25.846995158478816,-0.0450901032600948,2.1681008416788394,-1.785120131717306
2.2856150919038467,25.438823066010286,-0.04568713861105474,2.128447500095184,-1.7119081961680878
2.2768931951894715,25.03808354804808,-0.046122300487631614,2.0898632152964485,-1.6429446923218238
2.2681022052021103,24.64457805058209,-0.046414436221432064,2.0522999159245066,-1.5778834404456605
2.2592677132333714,24.25811688269129,-0.04658021608108495,2.0157123776628563,-1.5164130365918287
2.2504123243891483,23.878518695810616,-0.04663440333178581,1.9800580105547638,-1.4582528097123915
2.241555997716164,23.505610001568936,-0.046590087962787796,1.9452966656734534,-1.4031493067552105
2.2327163448690683,23.139224724721515,-0.046458889375059036,1.9113904590362598,-1.3508732296871082
2.2239088927918633,22.779203788075097,-0.04625113249025687,1.8783036109260152,-1.3012167603285234
2.215147315105426,22.425394726630834,-0.0459760010511863,1.846002299013604,-1.2539912187976452
2.2064436362313264,22.077651328456646,-0.045641671307760236,1.8144545238725647,-1.2090250096196598
2.1978084117210166,21.735833300052434,-0.04525542880076438,1.7836299856454816,-1.1661618164553058
2.1892508877825123,21.39980595419322,-0.044823770551912674,1.7534999707672956,-1.1252590121824357
2.1807791425902963,21.069439918431577,-0.044352494629307467,1.7240372477762915,-1.0861862559195257
2.1724002116172185,20.744610862614344,-0.04384677877151234,1.6952159713524775,-1.0488242526696525
2.1641201989302834,20.42519924392316,-0.04331124951201531,1.6670115938178802,-1.0130636547169112
2.1559443761376973,20.11109006808594,-0.042750043041523744,1.6394007834160413,-0.9788040868307348
2.147877270455892,19.80217266552917,-0.04216685887221117,1.6123613487604636,-0.945953279814373
2.139922743177065,19.498340481350915,-0.041565007220708605,1.5858721689053803,-0.9144262990437836
2.132084059655489,19.199490878092824,-0.040947450901143496,1.5599131285482355,-0.8841448564418943
2.1243639517907,18.905524950378087,-0.040316842412426085,1.5344650579227017,-0.8550366958698508
2.116764673864342,18.616347350561874,-0.03967555681239466,1.5095096769848055,-0.8270350432324699
2.109288052482333,18.33186612461263,-0.039025720892962586,1.4850295435335183,-0.8000781137237927
2.1019409870990207,18.051993833816447,-0.03831180945769191,1.460994570110538,-0.7722982506002929
2.094729202299729,17.776646060284655,-0.03760171474538006,1.4374030460135656,-0.7457365165543375
2.0876518755989624,17.50573999772552,-0.03689646105216398,1.4142397177668204,-0.7203254820187657
2.0807080030406997,17.23919567461024,-0.03619693429797054,1.3914899992361205,-0.6960021547106041
2.0738964240484195,16.976935830875103,-0.03550389719971299,1.3691399348179507,-0.672707641128842
2.0672158435494725,16.718885801388204,-0.03481800278920203,1.3471761650441596,-0.6503868373213241
2.0606648516704396,16.464973405739315,-0.03413980646377779,1.3255858944177994,-0.6289881460974485
2.054241941266544,16.215128843945013,-0.03346977673512558,1.3043568613116894,-0.6084632181633617
2.0479455235186115,15.969284597691704,-0.03280830482205846,1.283477309775771,-0.5887667149215847
2.04177394180501,15.727375336767327,-0.032155713215848925,1.2629359631124073,-0.5698560909118335
2.035725484032999,15.48933783035804,-0.03151226333163893,1.2427219990906202,-0.5516913940779915
2.0297983935935973,15.255110862909739,-0.030878162346268948,1.222825026680976,-0.5342350822310173
2.0239908790861287,15.024635154275803,-0.03025356931129744,1.2032350642025476,-0.5174518542418672
2.018301122942672,14.797853283892252,-0.029638600619822656,1.1839425187822044,-0.5013084946447407
2.0127272890685943,14.574709618739664,-0.029033334896786504,1.1649381670344972,-0.48577373046127875
2.0072675296028146,14.355150244868007,-0.028437817374579327,1.1462131368776993,-0.4708180991726203
2.0019199908903897,14.139122902275847,-0.027852063808838458,1.1277588904082085,-0.45641382687009624
1.996682818750144,13.926576922949717,-0.027276063983225345,1.1095672077615684,-0.44253471570824454
1.991554163111313,13.717463171882446,-0.02670978484657352,1.091630171893899,-0.42915603986701417
1.9865321820853903,13.51173399090138,-0.026153173321034555,1.0739401542225715,-0.4162544493045948
1.9816150455324066,13.309343145148624,-0.02560615881563412,1.0564898010695836,-0.4038078806492258
1.9768009381747091,13.11024577206576,-0.02506865547591853,1.0392720208553154,-0.3917954746384546
1.9720880623057757,12.914398332745055,-0.02454056419706526,1.0222799719942217,-0.3801974995683775
1.9674746401366892,12.721758565518087,-0.024021774424897877,1.0055070514475617,-0.3689952802640659
1.9629589158184928,12.532285441660871,-0.0235121657666421,0.9889468838915338,-0.35817113212624074
1.9585431779892781,12.346143796818833,-0.02296928506719649,0.9704388512878148,-0.3904762455628704
1.9542267649284015,12.16350851766084,-0.022466641889399678,0.9520377714278887,-0.4241792185030677
1.9500021353091255,11.984359545921674,-0.022003143576664518,0.9337408784580719,-0.45917497345977387
1.9458619589433228,11.808677338621237,-0.021577660273888088,0.9155455141781085,-0.49536029201174947
1.9417991234316054,11.636442847920492,-0.021189029323137227,0.8974491247771035,-0.5326335863778127
1.9378067400184749,11.4676375015625,-0.02083605923613292,0.8794492579386157,-0.5708946736625192
1.9338781487303436,11.302243183828793,-0.02051753327051298,0.8615435603109163,-0.610044551808023
1.9300069228694232,11.14024221694185,-0.020232212633910722,0.843729775341117,-0.6499851762740513
1.926186872932182,10.981617342844348,-0.019978839337049525,0.8260057414746947,-0.690619236447379
1.9224120500173043,10.826351705285386,-0.01975613871429435,0.8083693907249084,-0.7318499307534848
1.9186767487848437,10.674428832142642,-0.019562821627395713,0.7908187476197813,-0.7735807394057345
1.9149755100255201,10.525832617907678,-0.019397586365483707,0.7733519285377398,-0.8157151936808663
1.9113031228968886,10.380547306259153,-0.01925912025169195,0.7559671414467216,-0.8581566405530617
1.9076546268813896,10.238557472645478,-0.019146100964086192,0.7386626860656502,-0.9008080014516686
1.9040253135200995,10.099848006794431,-0.019057197575809058,0.7214369544716904,-0.9435715238287982
1.9004107279753302,9.964404095062356,-0.018991071316499544,0.7042884321817307,-0.9863485241315086
1.8968066704751263,9.832211202529585,-0.018946376054068317,0.6872156997421741,-1.0290391206679863
1.8932091976931766,9.703255054741668,-0.018921758492769856,0.670217434867474,-1.0715419547367806
1.8896146241187475,9.577521618987628,-0.01891585808016844,0.6532924151750338,-1.113753898251416
1.8860195234729915,9.454997084996634,-0.018927306612000684,0.6364395215722612,-1.155569745938151
1.8824207302304474,9.335667844922988,-0.018954727520041955,0.6196577423608733,-1.1968818900108633
1.8788153413077797,9.219520472475956,-0.018996734823829672,0.6029461781341932,-1.237579975032569
1.8752007179858858,9.106541701035447,-0.019051931722419493,0.5863040475553711,-1.2775505304566834
1.8715744881365244,8.996718400576434,-0.01911890879717764,0.5697306941184557,-1.316676578101774
1.8679345488306605,8.890037553204202,-0.019196241790862018,0.5532255940103112,-1.3548372115507767
1.8642790694129554,8.786486227078285,-0.019282488921822667,0.5367883652098602,-1.3919071441798008
1.8606064951353118,8.686051548475024,-0.019376187684951175,0.520418777982359,-1.4277562222143565
1.8569155514523654,8.588720671706373,-0.019475851082905445,0.504116766950803,-1.462248898885822
1.8532052490934006,8.49448074657537,-0.019579963221987372,0.48788244495450156,-1.4952436654248278
1.8494748900386264,8.403318883005696,-0.019686974196688026,0.4717161189368053,-1.5265924342920976
1.845724074543303,8.315222112433371,-0.019795294175137805,0.45561830814029847,-1.55613986972871
1.8419527093711596,8.230177345491803,-0.01990328658426509,0.43958976492883783,-1.5837226604337522
1.8381610174192373,8.148171325456392,-0.020009260278076358,0.4236314986018021,-1.6091687289886933
1.8343495489401196,8.069190576840633,-0.020111460554742083,0.40774480261671536,-1.632296372605163
1.8305191945949963,7.99322134845136,-0.02020805886760775,0.3919312856914316,-1.6529133299656198
1.8266712006027122,7.920249550115759,-0.020297141051172973,0.37619290731490285,-1.670815769485896
1.8228071862866684,7.850260682186764,-0.02037669385455215,0.3605320182534607,-1.6857871954465675
1.81892916436413,7.783239756816883,-0.020444589540587504,0.3449514066926758,-1.6975972703963509
1.8150395643724462,7.719171209865049,-0.0204985682666106,0.3294543506950671,-1.7060005554332123
1.8111412596856904,7.658038802170566,-0.02053621790976616,0.3140446776679069,-1.7107351750124487
1.807237598645814,7.599825508799441,-0.020554950931037503,0.2987268315018385,-1.7115214206838625
1.8033324404182587,7.54451339475375,-0.02055197778007151,0.2835059479264719,-1.708060319890541
1.7994301962886858,7.492083475554516,-0.020524276215431292,0.2683879383812694,-1.7000322135242272
1.7955358772536556,7.442515561095679,-0.020468555732255218,0.2533795822380599,-1.687095412039819
1.7916551489372774,7.395788081273974,-0.0203812160190959,0.2384886264114466,-1.6688850385505343
1.7877943951097879,7.351877892208552,-0.02025829795447937,0.22372389006666635,-1.6450122242402287
1.7839607914279139,7.310760062502457,-0.020095425012615784,0.20909536999748862,-1.6150639050297892
1.7801623915185156,7.272407640159155,-0.019887731928416717,0.1946143388793558,-1.5786035907602498
1.776408228281815,7.2367914027428775,-0.019629775826326572,0.18029342339724008,-1.5351736561586156
1.772708434456989,7.203879596591168,-0.019315422329736355,0.16614664135757687,-1.484299959598289
1.7690743883350675,7.173637675966187,-0.018937694743121656,0.15218936522116755,-1.4254999605712608
1.7655188934615569,7.146028060803314,-0.018488567083305346,0.13843816280909593,-1.3582960125053176
1.762056405973469,7.121009943216858,-0.017958669633409835,0.12491044336411058,-1.2822361777165439
1.7587033310626636,7.098539189187857,-0.017336855743489067,0.11162380957273048,-1.1969257261468753
1.7554784228986173,7.0785684032672265,-0.0166095459833132,0.09859498959179264,-1.1020732929395407
1.752403343293496,7.061047248720087,-0.01575971301796224,0.08583821616758576,-0.9975560300195583
1.7495034683905346,7.045923135267024,-0.014765285960578951,0.07336297807516914,-0.883506900262296
1.7468090878495786,7.033142380029787,-0.01359661447053977,0.061171287579969605,-0.760422313702956
1.7443572332467046,7.022651867899693,-0.012212381349185559,0.04925515589469115,-0.6292760343724623
1.7421945440782503,7.014400998854978,-0.01055276779243839,0.0375960972075767,-0.4916023274771012
1.7403819842100736,7.008343163510812,-0.008526809767317194,0.026170590625730853,-0.3494804911493916
1.7390035465872449,7.004434773172733,-0.0059830599466684006,0.014970360301405488,-0.20533252929543683
1.7381875942846985,7.002625757937274,-0.0026059116590834174,0.0040719053350038,-0.061472110230375215
