x,y,v_x,v_y,omega
2.375,32.48,0.0,3.7435897435897436,-4.204081632653061
2.373386482075189,31.632252600624888,-0.014030590650530689,3.6281267727155395,-3.8364760418143415
2.3688668100884898,30.810311063695693,-0.02527090488598417,3.519190939712248,-3.5177006532288098
2.3620210854025494,30.01273975362262,-0.03425713586132474,3.4162117565753527,-3.239502630366762
2.3533188527759483,29.238226465333717,-0.041414452196073454,3.3186864024585674,-2.9952585262558595
2.343141753298648,28.48556805932077,-0.04708206499784195,3.226169302001841,-2.77961191194043
2.331801119880764,27.7536582607353,-0.05153213863593367,3.138263729176161,-2.5882000240612952
2.3195517429264547,27.041477212031307,-0.05498418270588612,3.0546149552064015,-2.4174455695824237
2.3066027112514758,26.348082463892958,-0.057616092728714936,2.9749045938226963,-2.2643967473010296
2.2931260021238096,25.672601158357867,-0.05957268229446636,2.8988458890911453,-2.1266033079844617
2.2792633266839992,25.014223209259548,-0.060972321529972104,2.8261797552420753,-2.002019798843391
2.2651316141910987,24.372195323698,-0.06191213493003489,2.7566714235539664,-1.8889294880323642
2.2508274277125895,23.745815737781975,-0.0624720953178702,2.6901075844114875,-1.7858841457390586
2.2364305361253143,23.134429562818124,-0.06271826631060931,2.6262939370133087,-1.6916560735033075
2.222006816357072,22.537424656156777,-0.06270538384801996,2.5650530774331837,-1.6051996603568197
2.207610621221915,21.95422794525075,-0.06247892167508275,2.506222669575725,-1.5256203976501994
2.1932867187874696,21.38430214501514,-0.062076751667921405,2.4496538542121993,-1.452149769635124
2.179071886640451,20.827142817930515,-0.06153048439311315,2.3952098595671805,-1.3841248000621338
2.1649962269910255,20.28227573398388,-0.06086655603667185,2.342764783447007,-1.3209713089174078
2.151084255027858,19.74925449384796,-0.060107113208261446,2.2922025220827504,-1.2621901413564998
2.137355802375646,19.22765838393165,-0.05927073594140871,2.243415825015587,-1.2073457898040239
2.123826769222092,18.71709043630301,-0.058373030611235464,2.1963054587117368,-1.1560569523874666
2.1105097521497376,18.217175670153193,-0.057427117844021464,2.150779464330143,-1.1079886653963
2.0974145695349393,17.727559494564616,-0.05644403532813484,2.1067524973096288,-1.062845720983632
2.084548702260837,17.24790625497027,-0.05543307140318948,2.0641452382933916,-1.0203671388279247
2.0719176642032826,16.77789790792538,-0.05440204214076235,2.0228838664447992,-0.9803215056707102
2.0595253143113235,16.317232810722903,-0.05335752213714372,1.9828995874897672,-0.9425030323494555
2.0473741199799904,15.865624614023652,-0.05230503726575128,1.9441282098950263,-0.9067282062806435
2.0354653796964848,15.4228012470837,-0.051249226069082,1.9065097634958639,-0.8728329399389683
2.0237994115483233,14.988503986381755,-0.05019397521927636,1.869988155651491,-0.8406701339677127
2.0123757130485234,14.562486599506492,-0.049142533474637456,1.834510860655133,-0.8101075881007904
2.001193096807203,14.144514557083092,-0.048097607754236354,1.8000286386787785,-0.7810262048202092
1.9902498058205975,13.734364306319446,-0.04706144430320167,1.7664952810050885,-0.753318440190768
1.9795436115252412,13.331822600452874,-0.04603589739554872,1.7338673787042402,-0.7268869640573835
1.96907189725139,12.936685878991746,-0.045022487594460626,1.7021041122620908,-0.7016434981134082
1.9588317292851831,12.548759694185424,-0.04402245124212325,1.6711670599667943,-0.6775078055294661
1.9488199173971337,12.167858179630308,-0.04303678256700279,1.6410200231211791,-0.6544068100924239
1.939033066402123,11.793803557338379,-0.04206626956352444,1.6116288663738472,-0.6322738263184517
1.9294676200724363,11.426425679964698,-0.04111152460766359,1.5829613716581687,-0.6110478849125829
1.9201198985219248,11.065561605218083,-0.04017301061417539,1.5549871043993646,-0.5906731403616831
1.9109861300090527,10.71105519977024,-0.03925106341079907,1.5276772907992637,-0.57109834945826
1.9020624779636852,10.362756770237326,-0.038345910896744904,1.5010047051391302,-0.552276411231558
1.893345063922309,10.020522719038418,-0.037457689463046784,1.4749435661557069,-0.5341639601685709
1.8848441489130339,9.684216287371758,-0.03646331061760782,1.4494601874674333,-0.5131359913245264
1.8765687556963184,9.35370611189245,-0.03549663039730795,1.4245413384395962,-0.4931705317065486
1.868512577230264,9.028864886469144,-0.03455709539447099,1.4001649695891432,-0.4742002900520692
1.860669438124495,8.709570248604443,-0.033644114220909446,1.3763101422778279,-0.4561630446809384
1.8530333022960148,8.395704531979991,-0.032757066896309875,1.3529569588043673,-0.4390012015107999
1.845598278633113,8.087154534479517,-0.0318953127810978,1.3300864977214872,-0.42266139569805067
1.8383586249777957,7.783811300540073,-0.031058197265142057,1.3076807539258521,-0.40709413210770856
1.8313087506921533,7.48556991678058,-0.030245057392616046,1.2857225831132002,-0.3922534603955619
1.8244432180356458,7.192329319946058,-0.029455226577014892,1.264195650230477,-0.378096680989662
1.817756742547421,6.903992116286478,-0.028688038537981724,1.2430843815919663,-0.3645840786963998
1.8112441925997045,6.620464411562249,-0.02794283057259695,1.2223739203578587,-0.35167868103827876
1.804900588264231,6.341655650934385,-0.02721894625760906,1.2020500851018339,-0.3393460387638681
1.798721099613097,6.067478468057438,-0.026515737665296902,1.1820993312194314,-0.3275540262619525
1.792701044557741,5.797848542747769,-0.025832567163884816,1.162508714951592,-0.3162726598672505
1.7868358863146059,5.532684466649258,-0.025168808863376142,1.1432658598180594,-0.3054739322691086
1.7811212305730248,5.271907616363716,-0.024523849759068517,1.1243589252736037,-0.29513166143144004
1.7755528224297024,5.015442033554358,-0.02389709061764821,1.1057765774164778,-0.28522135260542764
1.7701265431445614,4.763214311568227,-0.02328794664444666,1.0875079615933545,-0.27572007216920746
1.764838406764472,4.515153488157775,-0.02269584796502503,1.0695426767583915,-0.2666063321635328
1.7596845566542902,4.271190943913101,-0.022120239949600533,1.05187075145618,-0.25785998451155606
1.7546612619685305,4.031260306045073,-0.021560583404830087,1.0344826213092895,-0.24946212401632004
1.7497649140917617,3.795297357185884,-0.021016354654028065,1.0173691079010554,-0.24139499932302386
1.744992023071296,3.563239948897639,-0.020487045523935033,1.0005213989532618,-0.23364193111609072
1.740339214061879,3.3350279196017603,-0.01997216325360525,0.9839310297065443,-0.22618723689479314
1.7358075179682562,3.110708167133449,-0.01943388973441989,0.9666755134961678,-0.2373402440106601
1.7313962557637113,2.890342791253591,-0.018924912044230927,0.9495451463286868,-0.2507406721211537
1.7270986639576122,2.6739034342855454,-0.018445451487064373,0.9325362186108518,-0.26626409213256635
1.7229079434180439,2.461362574434901,-0.017995596683095756,0.9156451713947458,-0.2837900163079321
1.7188172885327484,2.2526934919526482,-0.017575315362950462,0.8988685893205052,-0.3032016097028936
1.714819913767449,2.0478702368608026,-0.017184465204871945,0.8822031940868471,-0.3243854129486497
1.7109090778333544,1.8468675981223655,-0.016822803787252556,0.8656458384213037,-0.3472310752084008
1.7070781056596775,1.6496610741435127,-0.016489997722981112,0.8491935005252352,-0.371631096181789
1.7033204083523406,1.4562268445013622,-0.016185631036470843,0.8328432789717235,-0.3974805760719095
1.6996295013066565,1.2665417427953152,-0.015909212839043705,0.8165923880373714,-0.42467697246178493
1.695999020629512,1.0805832305240521,-0.015660184353518777,0.8004381534518742,-0.453119863071915
1.6924227380154075,0.8983293718936025,-0.015437925334343424,0.7843780085520236,-0.4827107133877017
1.6888945742105397,0.719758809464718,-0.015241759925378361,0.7684094908295833,-0.5133526481552081
1.6854086111898725,0.544850740549812,-0.015070961993466234,0.7525302388652674,-0.5449502257457376
1.6819591031638272,0.37358489427126074,-0.014924759972143977,0.7367379896438935,-0.577409214383946
1.6785404865237097,0.20594150919360743,-0.014802341246269371,0.7210305762487146,-0.6106363692203491
1.6751473888283264,0.04190131144236631,-0.014702856104890116,0.7054059259359855,-0.6445392092068017
1.6717746369283328,-0.1185545067785867,-0.014625421286357859,0.6898620585940478,-0.6790257927023398
1.6684172643197102,-0.2754443083602851,-0.014569123136448514,0.6743970855946602,-0.7140044906961284
1.6650705178133565,-0.4287860322441901,-0.01453302039706192,0.65900920904802,-0.7493837564834656
1.6617298636041054,-0.5785972142545646,-0.01451614663990562,0.643696721476976,-0.7850718905690617
1.6583909928195317,-0.7248950079064116,-0.014517512356384977,0.6284580059303949,-0.8209767994982277
1.6550498266267033,-0.867696205292873,-0.014536106711688998,0.6132915365605913,-0.8570057472301164
1.651702520973569,-1.0070172581622998,-0.014570898967739457,0.5981958796952642,-0.8930650975665898
1.648345471041014,-1.1428742993029246,-0.01462083957621873,0.5831696954406009,-0.9290600460343287
1.6449753154817335,-1.2752831643624063,-0.014684860939263807,0.568211739859244,-0.9648943394850296
1.6415889405230888,-1.4042594142403217,-0.014761877831560547,0.5533208677748092,-1.0004699815274232
1.6381834840130138,-1.529818358204757,-0.014850787473438357,0.5384960362637582,-1.0356869217337983
1.634756339490958,-1.651975077899266,-0.014950469240089588,0.5237363089058702,-1.0704427263711205
1.6313051603698252,-1.770744452424239,-0.015059783987151654,0.5090408608765331,-1.1046322281911805
1.6278278643200386,-1.8861411846974931,-0.015177572967515297,0.49440898497785774,-1.13814715257417
1.6243226379533229,-1.9981798293229218,-0.015302656308272291,0.47984009872149624,-1.1708757170548247
1.6207879419117113,-2.106874822224242,-0.01543383101009006,0.46533375259435267,-1.2027022009696506
1.6172225164768042,-2.2122405123334374,-0.015569868423885202,0.4508896396594928,-1.233506481648885
1.6136253878256541,-2.3142911956612053,-0.015709511151331172,0.4365076066689037,-1.2631635332407374
1.6099958750730239,-2.4130411521207975,-0.01585146930632469,0.42218766689277687,-1.29154288390401
1.6063335982554512,-2.508504685527214,-0.015994416063871985,0.40793001490216013,-1.3185080267486815
1.6026384874308723,-2.600696167252501,-0.016136982410726978,0.3937350435786088,-1.3439157795591627
1.5989107930888387,-2.689630084085664,-0.01627775099826225,0.3796033636662668,-1.36761558802795
1.5951510980910897,-2.7753210909236046,-0.01641524898216289,0.365535826228894,-1.389448766998542
1.5913603313908928,-2.857784069009,-0.016547939715201694,0.3515335484267095,-1.4092476741264537
1.587539783812768,-2.9370341905328488,-0.016674213138057184,0.33759794308504476,-1.4268348105066244
1.5836911262127524,-3.0130869905351716,-0.016792374688164954,0.32373075258735085,-1.442021843319008
1.5798164303841633,-3.0859584471666466,-0.01690063251695829,0.3099340876863602,-1.4546085466103502
1.575918193126149,-3.1556650715172623,-0.016997082770122497,0.29621047188422667,-1.464381658252106
1.5719993639538101,-3.222224008372777,-0.017079692641520948,0.2825628920767667,-1.4711136543235912
1.5680633770015988,-3.2856531494216625,-0.01714628085596864,0.2689948561744366,-1.4745614473014714
1.564114187759316,-3.3459712605954905,-0.017194495163880292,0.2555104583805946,-1.4744650224286708
1.560156315387087,-3.4031981253685544,-0.01722178633376452,0.2421144526895038,-1.4705460388708427
1.5561948914894876,-3.457354705941917,-0.017225377993185485,0.2288123349049402,-1.4625064407901485
1.5522357164008591,-3.5084633242492913,-0.01720223147314969,0.2156104329852501,-1.4500271512950305
1.5482853242618404,-3.5565478645776594,-0.01714900451831856,0.2025160046527058,-1.4327669638237475
1.544351058480639,-3.6016339991839104,-0.01706200227473643,0.18953733974949197,-1.4103618074650737
1.5404411596197602,-3.6437494374372577,-0.01693711825464418,0.17668386245351744,-1.382424654645057
1.5365648684100774,-3.6829241974595703,-0.016769761829553437,0.16396622469705266,-1.3485464754637155
1.5327325476037557,-3.7191908965684846,-0.016554766921071936,0.15139637625004446,-1.3082988425268214
1.5289558279623203,-3.752585052451309,-0.016286273439234406,0.13898758794844437,-1.2612390803560882
1.525247786219265,-3.7831453800528436,-0.015957567804724647,0.12675439119534188,-1.2069192684812022
1.5216231670051332,-3.810914058485139,-0.015560860144248945,0.11471237778113687,-1.1449009834237676
1.5180986675649986,-3.8359369264629564,-0.015086961074314047,0.10287777854771293,-1.074778422243495
1.5146933154452324,-3.858263542583238,-0.014524796488869857,0.09126670945476209,-0.9962134428155531
1.5114289881511036,-3.8779470182927156,-0.013860658242685253,0.07989394888853901,-0.9089868489709007
1.5083311548830485,-3.8950435010745537,-0.01307702234909791,0.06877111877959903,-0.8130702600924916
1.5054299716350164,-3.9096111686203656,-0.01215065806857393,0.057904251184001214,-0.7087205415139023
1.502761945852715,-3.9217086301741872,-0.011049566125349878,0.047291066675321736,-0.5965909709468515
1.5003725361038254,-3.931392799254482,-0.009727909951951165,0.036919099240263945,-0.47783575818057755
1.4983203631825692,-3.9387167473539435,-0.008117071972015909,0.026767405972455055,-0.3541551771724405
1.496684588538277,-3.9437290479813356,-0.006107055369656099,0.016817816874402328,-0.22769716007266402
1.4955806569091634,-3.9464787751671153,-0.0034923501008958806,0.007092854306321058,-0.10072705020234457
