x,y,v_x,v_y,omega
2.375,32.48,0.0,2.358974358974359,-5.551020408163265
2.3737471907807524,31.943393411386232,-0.010893993210850338,2.3071698898409925,-5.2316424344236525
2.370156785245677,31.41848002907594,-0.020326924485455367,2.257294304161525,-4.939390395666178
2.3645433865620036,30.904830316343777,-0.0284852379812688,2.2092249369877455,-4.671229753802701
2.3571817155202655,30.40204163594337,-0.03552929281645621,2.1628505447549267,-4.424533140924063
2.348312139276285,29.909735793086032,-0.041597457131197044,2.1180698279175556,-4.197017175281168
2.3381453418133975,29.427556889853506,-0.046809477328697474,2.074790200191385,-3.9866904284933926
2.326866286165895,28.955169440004877,-0.05126926743219557,2.0329267550140697,-3.791810328186075
2.314637588862355,28.49225670320412,-0.055067230859451644,1.9924013910794722,-3.610847271839518
2.301602404027455,28.038519205498588,-0.05828220248750925,1.9531420672294857,-3.442454598530726
2.2878868964973997,27.593673418980593,-0.060983080382533514,1.9150821633617905,-3.2854433479234286
2.273602368975951,27.157450578373563,-0.06323020241267248,1.878159928873241,-3.1387609533068197
2.2588470968161163,26.729595616105172,-0.06507651202067387,1.8423180038954123,-3.0014731841910582
2.243707914810191,26.309866200487768,-0.06656854890041643,1.807503001473316,-2.872748785903126
2.2282615929212692,25.898031864092204,-0.06774729361194637,1.773665141096809,-2.751846367564645
2.2125760318227763,25.493873211402626,-0.06864888985320912,1.7407579257690589,-2.6381031722736616
2.196711304145233,25.0971811964761,-0.06930526386455833,1.7087378562007451,-2.5309254291157877
2.180720563241743,24.707756462676734,-0.0697446570353541,1.6775641768372234,-2.429780039463342
2.1646508379042544,24.325408737668354,-0.06999208502976408,1.6471986493225743,-2.334187392673715
2.148543728656803,23.949956277777567,-0.0700697345132922,1.6176053497277811,-2.2437151409084217
2.132436018913088,23.58122535661628,-0.06999730673640377,1.588750486457305,-2.1579727910135142
2.1163602123289285,23.219049793507523,-0.06979231573455057,1.560602236227542,-2.0766069945139827
2.1003450060373368,22.86327051781239,-0.06947034767059528,1.53313059590407,-1.9992974357840503
2.0844157080702854,22.51373516572784,-0.06904528682550172,1.506307248309379,-1.9257532341525505
2.0685946061022946,22.170297706528295,-0.06852951289615485,1.4801054403823288,-1.8557097887138725
2.0529322724063688,21.832824834166253,-0.06766469315537402,1.4544412758093272,-1.7821191210231255
2.037473621621977,21.501188479556568,-0.06675835714368811,1.4293531121009895,-1.7122890369957875
2.022227396521578,21.17525880137766,-0.06581751329456398,1.4048180024982242,-1.6459786320262513
2.0072008205815566,20.854911098698935,-0.06484836444474981,1.3808141947080719,-1.5829653697249402
1.9923997728901304,20.54002554532845,-0.06385639808939272,1.3573210519917853,-1.523043459504492
1.9778289435096217,20.230486941583024,-0.06284646608894384,1.3343189805771454,-1.4660223967074986
1.9634919715684847,19.92618448209541,-0.06182285513833589,1.3117893627933965,-1.4117256470813906
1.9493915680770741,19.627011538403877,-0.06078934913479766,1.2897144953938657,-1.3599894596558653
1.9355296252169687,19.332865455185782,-0.0597492844313387,1.2680775325895368,-1.3106617940233962
1.9219073136413845,19.04364735910069,-0.058705598834611086,1.2468624333677973,-1.263601349708709
1.9085251691394367,18.759261979301137,-0.057660875095369095,1.2260539127152856,-1.218676686776397
1.8953831698558576,18.479617478752523,-0.05661737954444805,1.2056373964031033,-1.1757654280988799
1.8824808051170896,18.20462529557802,-0.0555770964448392,1.1855989790273431,-1.1347535348165623
1.8698171367916288,17.934199993711594,-0.05454175855916795,1.16592538502855,-1.0955346474910959
1.857390854004763,17.668259122202606,-0.05351287437009844,1.1466039324408905,-1.058009486300447
1.8452003219333843,17.406723082570124,-0.05249175233754284,1.1276224991459274,-1.0220853043674767
1.8332436253236277,17.149515003654198,-0.051479522529906487,1.1089694914273391,-0.9876753889660265
1.821518607301201,16.896560623456217,-0.050477155925978415,1.0906338146420536,-0.9546986059220776
1.8100229039801183,16.647788177500743,-0.049485481648653164,1.0726048458403312,-0.9230789830327263
1.7987539753190385,16.403128293288106,-0.04850520236073704,1.0548724081826133,-0.8927453287713377
1.7877091326245584,16.162513890440422,-0.047536908026045,1.0374267470146372,-0.863630882940921
1.7768855630568021,15.92588008617416,-0.04658108821531548,1.0202585074746107,-0.8356729962860752
1.7662803514537337,15.693164105760093,-0.04563814311571413,1.003358713517284,-0.8088128363824542
1.7558904997562113,15.464305197656888,-0.04470839338448148,0.9867187482497117,-0.7829951173965055
1.7457214251789568,15.239366498468257,-0.0437183420699053,0.9692699403470614,-0.7794832132337199
1.7357762639734173,15.01842551075859,-0.0427613205869589,0.951956039737018,-0.7786667487092481
1.7260473825838591,14.801451684913406,-0.04183764801789494,0.9347728806558786,-0.780399858117539
1.7165270918078814,14.588415408688249,-0.040947489164521976,0.9177164778237406,-0.7845416763193246
1.707207680724675,14.379287966719215,-0.04009086808075029,0.9007830175591642,-0.7909559819073131
1.6980814476361055,14.174041501999632,-0.039267680515506866,0.8839688495676402,-0.7995108564676131
1.6891407282617101,13.972648979172419,-0.038477705348799754,0.8672704793646561,-0.8100783583889151
1.6803779214104562,13.77508414949617,-0.03772061509688823,0.8506845612983966,-0.8225342097541829
1.6717855123353482,13.581321517350627,-0.036995985556223,0.8342078921411015,-0.836757494921281
1.663356093961632,13.391336308153882,-0.03630330465000516,0.8178374052218973,-0.8526303694602129
1.6550823861652617,13.205104437569446,-0.03564198053582336,0.801570165077557,-0.8700377781659806
1.6469572532654428,13.022602481886395,-0.03501134902781942,0.7854033626011451,-0.8888671809079055
1.638973719883295,12.84380764945999,-0.034410680382162245,0.7693343106719389,-0.9090082851088548
1.6311249853079688,12.668697753103576,-0.03383918549023832,0.7533604402533958,-0.9303527836714217
1.6234044365018079,12.497251183325265,-0.03329602151985865,0.7374792969493141,-0.9527940971827915
1.6158056598673203,12.329446882304744,-0.0327802970409022,0.7216885380117478,-0.9762271192358165
1.6083224518907815,12.165264318506654,-0.03229107666813186,0.7059859297977203,-1.000547963700636
1.6009488287701503,12.004683461827245,-0.03182738525039909,0.6903693456753984,-1.0256537127688496
1.5936790351286667,11.847684759170395,-0.031388211632067266,0.6748367643841651,-1.0514421645705196
1.586507551909921,11.694249110347656,-0.030972512009200627,0.6593862688570425,-1.0778115791328176
1.5794291035453796,11.5443578441945,-0.03057921289985529,0.6440160455182066,-1.1046604214075084
1.5724386644812625,11.397992694791515,-0.03020721374464042,0.6287243840729769,-1.1318871000421888
1.5655314651483145,11.25513577767466,-0.029855389150559592,0.6135096778127369,-1.1593897005067102
1.5587029974553843,11.115769565912974,-0.029522590787961784,0.5983704244628087,-1.1870657111108993
1.5519490198858414,10.97987686592489,-0.029207648947194076,0.5833052276074879,-1.2148117403618983
1.5452655622747193,10.847440792895696,-0.028909373758216967,0.568312798733323,-1.242523224008544
1.5386489303441317,10.71844474564833,-0.02862655607297912,0.5533919599394377,-1.2700941200055942
1.5320957100749677,10.592872380807474,-0.028357968006708343,0.5385416473723648,-1.2974165895018372
1.5256027719941987,10.470707586082597,-0.028102363130412922,0.523760915452648,-1.3243806618129288
1.519167275459385,10.351934452478815,-0.027858476302750124,0.5090489419715433,-1.3508738811823475
1.5127866730251995,10.236537245224987,-0.027625023124948866,0.49440503414869164,-1.3767809329628509
1.5064587149811057,10.124500373185963,-0.02740069899760593,0.47982863575586565,-1.4019832466678595
1.5001814541548049,10.015808356499818,-0.02718417775283521,0.4653193354280101,-1.4263585731502246
1.4939532510828535,9.910445792150977,-0.026974109829351476,0.45087687630105294,-1.4497805329696507
1.487772779658054,9.808397317155652,-0.02676911995151327,0.4365011671365691,-1.472118132817236
1.4816390333730383,9.709647568996544,-0.026567804266014468,0.42219229511654494,-1.493235246687678
1.4755513322910563,9.614181142898644,-0.026368726881654675,0.407950540517376,-1.5129900583437996
1.4695093308886167,9.521982545486544,-0.02617041574825463,0.39377639350087934,-1.5312344615293458
1.4635130269305578,9.433036144305433,-0.025971357800083278,0.3796705732914036,-1.5478134143909827
1.4575627715567134,9.347326112622131,-0.025769993276825488,0.36563405004166244,-1.5625642447217931
1.4516592807809938,9.264836368848986,-0.025564709120735826,0.35166806972483033,-1.5753159030119108
1.445803648628972,9.18555050985174,-0.02535383133162782,0.33777418242512597,-1.585888160995571
1.4399973621696274,9.109451737313304,-0.025135616140934208,0.3239542744308463,-1.5940907545725613
1.4342423187316973,9.036522776229567,-0.024908239841066434,0.31021060455815835,-1.599722471877012
1.428540845636355,8.966745784513837,-0.024669787074953344,0.2965458451438516,-1.6025701901837046
1.4228957228274504,8.900102252587377,-0.024418237350303292,0.2829631281296946,-1.6024078697335205
1.4173102088408447,8.836572891743106,-0.024151449489745985,0.269466096603088,-1.5989955190719722
1.41178807062917,8.776137510000009,-0.02386714365525192,0.25605896203255174,-1.5920781560541093
1.4063336178532506,8.7187748741379,-0.023562880483177243,0.24274656720318627,-1.581384802602366
1.4009517423749733,8.66446255664686,-0.02323603671923431,0.229534454458026,-1.5666275715113855
1.3956479638518164,8.613176766491321,-0.022883776525607996,0.2164289381988391,-1.5475009327920723
1.3904284825612736,8.564892162948421,-0.02250301730519793,0.203437179565504,-1.5236812891039473
1.3853002409067887,8.519581652443414,-0.022090388385975115,0.1905672596084707,-1.4948270502056415
1.3802709955277477,8.477216169433657,-0.021642180127427187,0.17782824482420417,-1.460579482677985
1.375349402638104,8.43776444422371,-0.021154279782517292,0.1652302352622931,-1.4205647338237313
1.37054512028556,8.401192763464831,-0.020622088500472178,0.1527843800323123,-1.3743976012007892
1.365868932871668,8.36746473346933,-0.0200404107507636,0.14050283731988528,-1.32168785814574
1.3613329058490058,8.336541062964802,-0.019403302489776876,0.12839864532817213,-1.262050267664412
1.356950582567132,8.308379391248174,-0.01870385648303813,0.11648545655555018,-1.195119831353655
1.3527372416467938,8.282934200547672,-0.01793389065033724,0.1047770712749076,-1.1205743079972819
1.3487102433790497,8.260156867918468,-0.017083485590915624,0.09328669071815847,-1.0381665066713002
1.3448895095453348,8.239995930708847,-0.016140286876169332,0.0820258067567962,-0.947769055366657
1.3412982058659422,8.222397655079202,-0.015088440770723932,0.07100267697925329,-0.8494336834774313
1.33796373487847,8.20730699540826,-0.013906959120337903,0.06022045059417398,-0.743464393532865
1.3349192082023715,8.19466898455747,-0.01256718588921489,0.049675295934425205,-0.6304974117455622
1.3322056721765252,8.18443044794802,-0.011028779552928043,0.03935545719122997,-0.511568576751932
1.3298755793054446,8.176541602040686,-0.009232897586903505,0.02924320287254482,-0.3881313000872037
1.3279986021867023,8.170956417911064,-0.007088642576074403,0.019323615645915712,-0.26197283609457633
1.326673175877823,8.167628963835412,-0.004436803588093723,0.009610767620632838,-0.1349790902319422
1.3260610538884032,8.166494615065101,-0.0008859963199035008,0.00025313472989530773,-0.008768331438239352
