x,y,v_x,v_y,omega
2.375,32.48,0.0,2.41025641025641,-5.183673469387755
2.374107436658057,32.002801971743075,-0.008925633419430758,2.361723872312793,-4.915338957201936
2.3715388178793666,31.535151258369996,-0.016760554367472775,2.314783261418004,-4.667281470475197
2.3674997321945432,31.07673841484739,-0.023630302480761152,2.2693451738080603,-4.437470315107965
2.362172239974381,30.627271151789035,-0.029644619720860466,2.2253274567754886,-4.224119218639294
2.3557178105639514,30.186472966646978,-0.0348996743834349,2.1826543946450956,-4.02565232307666
2.3482798498033692,29.75408192583413,-0.03947993322238813,2.1412560134833876,-3.8406755515734528
2.3399858820463186,29.329849576133416,-0.04345974434811566,2.1010674835237486,-3.6679523943085166
2.330949439509456,28.91353996752496,-0.04690468102051161,2.062028602560766,-3.50638334811298
2.3212717027351704,28.50492877258113,-0.04987268672234494,2.024083346877566,-3.354988392074002
2.311042928635561,28.103802490007997,-0.052415054273750816,1.9871794788537727,-3.212891997516259
2.3003436966354083,27.709957721879434,-0.05457726572777493,1.9512682024318753,-3.079310262798084
2.28924599856295,27.323200515713715,-0.056399714996809465,1.9163038592253032,-2.953539836759625
2.2778141939310528,26.943345763858268,-0.05791833132216236,1.88224365932916,-2.8349483535614572
2.2661058489383747,26.570216653733606,-0.05916511860461609,1.8490474419174698,-2.7229661491913637
2.2541724747675347,26.203644163388404,-0.060168623103783556,1.8166774615345445,-2.617079068493276
2.2420601784604846,25.843466597569424,-0.06095433996672112,1.785098196655248,-2.5168222030338665
2.229810237727039,25.489529160140673,-0.061545067367731084,1.7542761776322713,-2.421774425902628
2.217459609424409,25.141683559218105,-0.06196121565856899,1.724179831593401,-2.331553610760378
2.2050413800801345,24.79978764183697,-0.06222107778417765,1.6947793422179236,-2.2458124399890282
2.192585165674866,24.46370505535276,-0.06234106626850512,1.6660465226242078,-2.164234721347949
2.180117466919801,24.13330493310511,-0.06233592128214433,1.637954699852317,-2.0865321446625043
2.1676619854275976,23.808461602156292,-0.062218893639892144,1.6104786096358417,-2.012441420200415
2.155239905461715,23.48905431115934,-0.062001906018936924,1.5835943003336657,-1.9417217488865715
2.1428701453379464,23.174966976621857,-0.06169569521874601,1.5572790450411673,-1.874152581653325
2.130569582027388,22.866087946015107,-0.06130993788683654,1.5315112610263473,-1.80953163125333
2.1183532520588786,22.56230977633812,-0.060853361798256504,1.5062704357434777,-1.747673104964746
2.106234531429975,22.263529026886943,-0.060333844490782204,1.4815370587683128,-1.6884061309485074
2.0942373345553404,21.96965050438944,-0.05963812425556444,1.4572481662067227,-1.6278426428175146
2.0823824415661774,21.68058240331879,-0.05891080563606259,1.4334328444997484,-1.57004563933082
2.07067570295755,21.3962317093946,-0.05815658045021381,1.4100740947421662,-1.5148559264711268
2.059122079345667,21.116508729388293,-0.05737965566861652,1.3871557053209116,-1.4621252104875118
2.0477257335411245,20.84132693830147,-0.056583802376804,1.3646622055472957,-1.4117152323075834
2.036490113346335,20.57060283548781,-0.055772399571093555,1.3425788225893216,-1.3634969799574856
2.0254180260524266,20.30425580908629,-0.05494847336799132,1.320891441425887,-1.3173499711310936
2.014511705501879,20.042208008186506,-0.05411473213748596,1.2995865675719318,-1.2731615989245386
2.0037728724871426,19.784384222194532,-0.053273598009875765,1.2786512923478075,-1.2308265345203409
1.9932027891708741,19.530711766910983,-0.05242723515280909,1.2580732604876785,-1.1902461812810596
1.9828023081387007,19.28112037687212,-0.05157757516892478,1.2378406399009594,-1.1513281753076103
1.9725719166294122,19.03554210354023,-0.0507263399239595,1.2179420934179317,-1.1139859280426438
1.9625117764290492,18.79391121896184,-0.04987506207967225,1.1983667523660142,-1.0781382069635759
1.9526217598636055,18.556164124541546,-0.04902510357476407,1.1791041918369054,-1.0437087508207088
1.9429014822791715,18.32223926460614,-0.04817767226957532,1.1601444075171499,-1.0106259162400555
1.9333503313575904,18.092077044457845,-0.04733383694623643,1.1414777939657785,-0.9788223528337265
1.9239674935794957,17.865619752638004,-0.04649454083470959,1.1230951242326597,-0.9482347042480535
1.9147519781143822,17.642811487142716,-0.04566061381642518,1.1049875307202173,-0.9188033328353502
1.9057026383886724,17.42359808535076,-0.044832783440673325,1.0871464871993133,-0.8904720658631096
1.8968181915571765,17.207927057441083,-0.04401168487428542,1.069563791897461,-0.8631879613777952
1.8880972360805284,16.995747523092916,-0.04319786989219628,1.0522315515842107,-0.8369010920220801
1.8795382675908079,16.787010151276036,-0.042391815005009464,1.0351421665846066,-0.8115643452669064
1.8711396932093551,16.58166710295186,-0.04159392880951729,1.0182883166571146,-0.7871332386652946
1.8628998444644935,16.37967197651841,-0.04080455863909763,1.0016629476774266,-0.7635657488653338
1.8548169889422952,16.180979755843257,-0.04002399658288537,0.9852592590741016,-0.7408221532369238
1.8468956035572661,15.985736812513654,-0.03918985726740587,0.9671701742219323,-0.756607692583748
1.8391372715392014,15.794100084897437,-0.03839346291324121,0.9491971019402438,-0.7742708288537223
1.83153450823179,15.606046688566213,-0.037634170160874086,0.9313368613720083,-0.7936921159750333
1.824079965029506,15.421554362273785,-0.03691126186196387,0.9135864015522772,-0.8147549675001702
1.816766443433505,15.240601442463504,-0.03622395409804954,0.8959427965505403,-0.8373453936691077
1.8095869077632,15.063166838702543,-0.035571402604999074,0.8784032410590833,-0.8613517451665381
1.8025344966382597,14.88923000995527,-0.03495270864440342,0.8609650464136545,-0.8866644625061636
1.7956025333378758,14.718770941610341,-0.03436692435943684,0.8436256370356464,-0.913175829991758
1.7887845351370084,14.551770123177988,-0.03381305764923529,0.8263825472878964,-0.9407797332138467
1.7820742217128296,14.388208526575283,-0.03329007659255376,0.8092334187391523,-0.9693714190423888
1.7754655227087417,14.228067584917842,-0.03279691344832539,0.792175997835265,-0.9988472570696638
1.7689525845381358,14.071329171736483,-0.032332468257733935,0.7752081339783023,-1.0291045014434719
1.7625297765054122,13.917975580536847,-0.03189561206950168,0.7583277780180631,-1.060041052008485
1.7561916963177358,13.767989504618644,-0.031485189807261796,0.7415329811639585,-1.0915552136427984
1.7499331750574993,13.62135401706935,-0.031100022795102128,0.7248218943289647,-1.1235454526369955
1.7437492816825282,13.478052550844314,-0.0307389109546105,0.708192767921393,-1.1559101489138992
1.7376353271186677,13.33806887884171,-0.030400634683993098,0.6916439521046356,-1.188547342828035
1.7315868680075635,13.201387093876257,-0.030083956427049523,0.6751738975498964,-1.221354475214113
1.7255997101711644,13.067991588450038,-0.029787621936941074,0.6587811567122834,-1.2542281192728353
1.7196699118537953,12.937867034212147,-0.029510361236751437,0.642464385666617,-1.287063702789402
1.7137937868025421,12.810998360990887,-0.029250889275777403,0.6262223465459986,-1.3197552190744954
1.707967907247238,12.687370735272918,-0.029007906277264642,0.610053910633696,-1.3521949248986604
1.7021891068425234,12.566969537992811,-0.02878009776988001,0.5939580621673768,-1.3842730235583098
1.6964544836363813,12.449780341483645,-0.028566134291542727,0.5779339029243001,-1.415877331064759
1.6907614031321998,12.335788885424524,-0.028364670750272845,0.5619806576669245,-1.4468929232867436
1.6851075015149322,12.224981051603763,-0.02817434542240167,0.5460976805406957,-1.477201761702348
1.679490689116316,12.117342837296718,-0.027993778563762433,0.5302844625297388,-1.506682295229533
1.6739091541995126,12.012860327034542,-0.027821570604270013,0.5145406400920108,-1.5352090354080334
1.6683613671500332,11.911519662514,-0.027656299890523373,0.4988660051134076,-1.5626521020036044
1.662846085167518,11.8133070103686,-0.02749651993462888,0.4832605163405792,-1.588876735905168
1.6573623575620318,11.71820852748704,-0.027340756120233123,0.46772431247501695,-1.61374277599673
1.651909531769145,11.62621032352589,-0.027187501808634548,0.4522577271364964,-1.6371040965243788
1.6464872602104168,11.53729842021901,-0.027035213778646063,0.43686130593228745,-1.6588080013668882
1.641095508140213,11.451458707035819,-0.026882306923394602,0.4215358258996163,-1.6786945715892037
1.635734562636354,11.36867689268362,-0.026727148115193923,0.4062823176223821,-1.6965959627586715
1.6304050429112698,11.288938451885542,-0.02656804913564919,0.39110209035838417,-1.7123356488019237
1.6251079121425303,11.212228566794806,-0.02640325855174571,0.3759967605489861,-1.7257276097725247
1.6198444910474419,11.138532062328217,-0.02623095239913672,0.36096828411692367,-1.7365754619235418
1.614616473456512,11.067833334617916,-0.026049223510162155,0.3460189929860864,-1.7446715301312683
1.609425944176015,11.000116271691954,-0.02585606929480902,0.33115163627354177,-1.749795865275708
1.6042753994719716,10.935364165404657,-0.025649377745623564,0.3163694265994181,-1.7517152130480025
1.5991677705585001,10.873559613552711,-0.025426911389093008,0.30167609192004247,-1.7501819463920223
1.5941064505354947,10.814684411041519,-0.025186288840961142,0.2870759331918748,-1.7449329822062114
1.5890953252980875,10.758719428923836,-0.024924963533110123,0.2725738879849685,-1.7356887151879916
1.5841388090395667,10.705644480141846,-0.024640199052097782,0.2581755998349464,-1.7221520194461029
1.5792418850999883,10.655438170900613,-0.024329040343686388,0.24388749257738898,-1.70400739408827
1.5744101530895152,10.608077736839057,-0.02398827976104539,0.2297168480381702,-1.6809203657564669
1.5696498834619725,10.563538863625546,-0.023614416514382102,0.21567188409694546,-1.652537313756077
1.5649680810673,10.521795492409137,-0.02320360743234318,0.20176182806713042,-1.6184859586192393
1.5603725597305669,10.482819611880643,-0.022751605934988567,0.18799697721782105,-1.5783768617384628
1.555872030684473,10.446581040793202,-0.022253684525947785,0.1743887336565917,-1.5318064341991469
1.5514762088732401,10.413047208014856,-0.021704533586383,0.16094959412685708,-1.4783621623564345
1.5471959429911328,10.382182942012157,-0.021098125234688708,0.14769306590012263,-1.4176310431593966
1.5430433780059778,10.353950288690076,-0.02042752461686204,0.13463346732070638,-1.349212597970223
1.5390321634608168,10.328308386380755,-0.019684620834746994,0.12178555577249514,-1.2727382981482136
1.5351777280064798,10.305213439921506,-0.018859733708623365,0.10916390881999692,-1.1878997414839205
1.5314976518748806,10.2846188517948,-0.017941027607367058,0.09678197244707286,-1.0944883081073706
1.5280121866018033,10.26647558458183,-0.016913625123408157,0.0846506996826161,-0.9924489079094017
1.5247449986606554,10.2507328378408,-0.01575825428807094,0.07277676772769429,-0.8819489896416408
1.5217242563486129,10.237339106457217,-0.01444916883235284,0.06116054610813417,-0.7634597523395348
1.5189842485514267,10.22624361236057,-0.012950909139510218,0.04979439485833322,-0.6378374657990521
1.5165678510859988,10.217397909028875,-0.011213065514767358,0.038662638458622195,-0.5063776535323418
1.5145304506150914,10.21075705365947,-0.009160939194307908,0.02774591523542438,-0.37079654338664003
1.5129468496565046,10.206278897870195,-0.006675070391560409,0.017035642657319106,-0.23308407997382466
1.51192664243767,10.203917506978112,-0.003527001796783589,0.006578266263531581,-0.09518927814558073
