x,y,v_x,v_y,omega
2.375,32.48,0.0,2.3076923076923075,-7.510204081632653
2.3736558677942674,32.000338204534835,-0.012801259102214985,2.2605152681663916,-7.118696765950482
2.369787847886501,31.530411486720244,-0.024037025733656153,2.2149772824487393,-6.757176007138811
2.3637055266214455,31.069886444501957,-0.03388984345734789,2.170975500582566,-6.422573453509154
2.3556826486566003,30.61845024509882,-0.042518518112607546,2.128416874685415,-6.112203095626979
2.345961729398537,30.17580870326214,-0.05006166529751694,2.0872168570925,-5.823705221758583
2.33475798691006,29.74168461003903,-0.05664064411654826,2.047298316460914,-5.554999883345971
2.32226270931319,29.315816270752215,-0.06236199966316924,2.0085906291277977,-5.304248025411524
2.308646150914646,28.897956218893068,-0.06731950889439281,1.9710289123879097,-5.0698188407375095
2.29406003258241,28.487870078877116,-0.07159590379356855,1.9345533734782827,-4.850262212261767
2.2786397080286975,28.085335555543008,-0.07526433005131167,1.8991087535132174,-4.644285341622435
2.262506046680564,27.690141532192698,-0.07838958754996213,1.8646438498230966,-4.450732841839444
2.2457670750649927,27.3020872621019,-0.08102918974119254,1.831111103422584,-4.268569712171689
2.228519411596701,26.92098164094869,-0.08323427186158289,1.7984662408936984,-4.096866723006868
2.21084952395642,26.546642549646457,-0.08505037233156768,1.7666679619847312,-3.934787825405163
2.1928348335994015,26.17889625872671,-0.08651810725908614,1.7356776658223685,-3.7815792689542493
2.174544688120257,25.817576886775214,-0.08767375444705422,1.7054592099061439,-3.636560166888671
2.1560412190529745,25.462525906542393,-0.08854976047944656,1.6759786970731207,-3.4991142919920275
2.1373801000736457,25.113591693273392,-0.08917518218082711,1.64720428644117,-3.3686829229275124
2.118611218395989,24.770629110571715,-0.08957607189209654,1.6191060250033815,-3.244758590089214
2.0997792703256697,24.433499129752278,-0.0897758144918931,1.5916556970864804,-3.126879594191904
2.0809242904047975,24.102068479178776,-0.08979542284974922,1.5648266893278273,-3.0146251906779846
2.0620821222816854,23.776209320534576,-0.08965379737036362,1.5385938691883756,-2.907611349444947
2.0432848383419744,23.455798949361377,-0.08936795443640999,1.5129334753182746,-2.8054870130377862
2.02456111420219,23.140719517527273,-0.08895322784724824,1.4878230183398784,-2.7079307878258296
2.005965446506194,22.83086881318487,-0.08814836925747724,1.4631360706353753,-2.607429604615315
1.9875460984947138,22.526148378351657,-0.0872739927566194,1.4389633087285585,-2.5117171547758614
1.9693167117841277,22.22645228348005,-0.08633921401086699,1.4152852138581873,-2.4205063703683796
1.9512891114598028,21.93167859534393,-0.08535221764937109,1.3920832445810452,-2.3335307041696436
1.933473491625999,21.641729178437657,-0.08432035219637823,1.369339773573927,-2.250542424914673
1.9158785820927482,21.356509509117494,-0.08325021478696322,1.3470380294752409,-2.1713110738234542
1.8985117982211566,21.075928501477936,-0.08214772684724228,1.32516204328246,-2.09562206527312
1.881379375716115,20.79989834405128,-0.08101820177220162,1.3036965988761873,-2.0232754165017175
1.8644864919518374,20.528334346503925,-0.07986640550663254,1.2826271872890778,-1.9540845929907058
1.8478373752371064,20.261154795578744,-0.0786966108241392,1.2619399643793103,-1.8878754577080556
1.8314354032702274,19.998280819600435,-0.07751264600327969,1.2416217116045873,-1.8244853137341792
1.8152831918956494,19.739636260921383,-0.07631793851651197,1.221659799624482,-1.763762030965814
1.7993826751525437,19.48514755573968,-0.07511555427497153,1.2020421544869573,-1.705563248621361
1.7837351774982575,19.234743620769695,-0.07390823290870648,1.1827572261795822,-1.6497556461744973
1.7683414789946537,18.988355746289322,-0.0726984195065671,1.163793959347793,-1.5962142761377751
1.7532018741613664,18.745917495127607,-0.07148829319140654,1.1451417660018792,-1.5448219528186118
1.7383162251255828,18.507364607191995,-0.07027979286367489,1.1267905000515321,-1.4954686917887605
1.7236840096319423,18.27263490916677,-0.06907464040909064,1.1087304335220536,-1.4480511953555026
1.7093043644175046,18.041668229043363,-0.06787436163317442,1.0909522343199238,-1.4024723798074552
1.6951761244045942,17.814406315169876,-0.066680305156448,1.07344694542757,-1.3586409406378186
1.6812978581179208,17.590792759531087,-0.06549365947853784,1.0562059654180398,-1.3164709523298432
1.6676678996910057,17.370772924992238,-0.06431546839684314,1.039221030190026,-1.2758814996291046
1.6542843777900638,17.154293876259885,-0.06314664494546197,1.0224841958324185,-1.2367963375299067
1.641145241750539,16.94130431433126,-0.061987984002391104,1.0059878225354302,-1.1991435774731949
1.6282482851920665,16.731754514220434,-0.06084017369734624,0.9897245594724183,-1.1628553974945899
1.6156019715255299,16.525760391425838,-0.05960090884109984,0.9721242290475498,-1.1587425925668966
1.6032119498095652,16.323448981206855,-0.05839929797761164,0.954651106371333,-1.1571269130679571
1.5910703311855674,16.124793962247704,-0.05723516510808082,0.9373014551443832,-1.1578696204441894
1.579169275651155,15.929769780999145,-0.05610822093394294,0.9200716996037877,-1.160836241113824
1.5675010148078563,15.73835161872054,-0.055018072811757295,0.9029584173353173,-1.1658962475858723
1.5560578726012306,15.550515359971477,-0.05396423391801228,0.8859583326557411,-1.1729227522922994
1.5448322842133346,15.366237562436254,-0.05294613168099598,0.869068310536854,-1.181792212814005
1.5338168132559424,15.185495427970022,-0.051963115532264494,0.8522853510463219,-1.1923841472415715
1.5230041674023298,15.008266774760362,-0.051014464025951126,0.8356065842837852,-1.2045808584630666
1.5123872125857378,14.834530010502206,-0.05009939137016277,0.8190292657938941,-1.2182671662139366
1.5019589858837186,14.664264106487533,-0.04921705341097265,0.8025507724410961,-1.2333301457585286
1.4917127071994352,14.497448572514138,-0.04836655310601347,0.786168598734104,-1.2496588720993298
1.4816417898435594,14.334063432519994,-0.04754694552137375,0.7698803535910624,-1.26714416862876
1.4717398501136656,14.17408920085128,-0.04675724238237772,0.7536837575395442,-1.2856783591494663
1.4620007159619004,14.017506859073016,-0.04599641620586101,0.7375766403486844,-1.3051550221925656
1.4524184348362197,13.864297833231532,-0.04526340403871734,0.7215569390940245,-1.325468746559167
1.4429872807755544,13.714443971477461,-0.044557110824762346,0.7056226966590435,-1.346514886998727
1.4337017608349258,13.567927521956765,-0.04387641241931776,0.6897720606809368,-1.3681893189182242
1.4245566209127218,13.424731110875307,-0.043220158268339914,0.6740032829520114,-1.3903881909886346
1.4155468510490765,13.284837720639668,-0.042587173766378404,0.6583147192921521,-1.413007674479572
1.406667690261568,13.148230667973209,-0.04197626230513139,0.642704829912232,-1.4359437081090356
1.397914630982236,13.014893581901642,-0.041386207021839726,0.6271721802931557,-1.459091737142783
1.389283423158251,12.88481038149676,-0.040815772254208335,0.6117154426105055,-1.4823464454167985
1.3807700780774357,12.757965253259897,-0.04026370470593444,0.5963333977405773,-1.505601478886562
1.3723708719792684,12.634342628018683,-0.03972873432423042,0.5810249378900407,-1.5287491592284397
1.364082349511992,12.513927157200872,-0.039209574887924786,0.5657890698986179,-1.5516801859317975
1.3559013270970734,12.39670368833794,-0.038704924301775294,0.5506249192721495,-1.5742833252259798
1.3478248962634898,12.28265723963807,-0.038213464589497335,0.5355317350123202,-1.5964450840852278
1.3398504270162535,12.171772973453255,-0.03773386157465851,0.520508895319244,-1.6180493674486682
1.3319755713062424,12.064036168448045,-0.037264764234970146,0.5055559142542008,-1.6389771166844498
1.3241982666718561,11.959432190257829,-0.036804803711566254,0.49067244946215627,-1.6591059272210162
1.3165167401273352,11.857946460402225,-0.03635259195053673,0.4758583110674137,-1.6783096431703606
1.3089295123778628,11.759564423193702,-0.0359067199492011,0.4611134718708906,-1.6964579266864852
1.3014354024478973,11.664271510352872,-0.03546575557427934,0.44643807899413707,-1.7134157997494224
1.29403353281672,11.572053103009495,-0.035028240913124065,0.43183246713325957,-1.7290431560582442
1.2867233351640426,11.482894490731955,-0.03459268911237676,0.4172971736052191,-1.743194240779673
1.2795045568389292,11.396780827187541,-0.03415758065060781,0.40283295538919184,-1.7557170960658823
1.2723772681774594,11.31369708199113,-0.03372135898243792,0.38844080838616246,-1.766452970572799
1.2653418708088024,11.233627988250923,-0.03328242548096212,0.3741219891396086,-1.7752356917439358
1.2583991071060878,11.156557985267145,-0.032839133592510776,0.359878039277315,-1.781891000465165
1.2515500709581457,11.082471155783658,-0.032389782102175343,0.3457108129463915,-1.7862358489687777
1.2447962200615645,11.01135115713506,-0.031932607389073664,0.33162250751643263,-1.7880776647456276
1.238139389960532,10.943181145575426,-0.03146577452552299,0.3176156978134183,-1.787213585955235
1.2315818100959535,10.877943693023418,-0.030987367041891027,0.30369337411046743,-1.7834296777436807
1.2251261221673218,10.815620695418907,-0.030495375135553136,0.28985898402772975,-1.7765001444585349
1.2187754011635703,10.75619327186785,-0.029987682043032156,0.2761164783632709,-1.7661865606440446
1.212533179486862,10.699641653770225,-0.029462048211333882,0.26247036066174534,-1.7522371548196138
1.2064034746821486,10.645945063202053,-0.02891609278593518,0.24892573998750675,-1.7343861956560018
1.2003908214047485,10.595081579989579,-0.028347271760732762,0.23548838584557544,-1.7123535520189206
1.194500308422303,10.547027997218244,-0.027752851881605475,0.22216478340521664,-1.6858445288604154
1.188737621677957,10.5017596654295,-0.02712987901692649,0.20896218601141017,-1.6545501233907105
1.1831090947716285,10.459250326570935,-0.02647513913858402,0.1958886602606531,-1.6181479047623704
1.177621768696867,10.419471940015487,-0.025785109192476393,0.1829531164579006,-1.5763038013923314
1.1722834633807087,10.382394504839176,-0.025055893818557193,0.17016531379267652,-1.52867519019229
1.1671028646341868,10.347985885290772,-0.024283141862604014,0.15753582476354844,-1.4749158295341023
1.162089631717643,10.316211650311061,-0.02346193353305154,0.14507593694798993,-1.4146833703452264
1.1572545331410238,10.28703494341661,-0.022586624339511988,0.1327974620467584,-1.3476504202320874
1.1526096219825908,10.260416406570936,-0.02165062478842219,0.12071241267396836,-1.2735204128261666
1.1481684675555308,10.23631419090692,-0.020646084040719565,0.10883249841188478,-1.192049803933338
1.1439464686086191,10.214684097741063,-0.019563429739392305,0.09716838888198538,-1.103078262021597
1.1399612857480197,10.195479903066204,-0.018390692742507788,0.08572870325952808,-1.006568292883221
1.1362334493496193,10.178653922287364,-0.017112511051780327,0.07451873272941167,-0.902654661398679
1.1327872269748147,10.164157858327311,-0.015708654422548686,0.06353901927110073,-0.7917012703638202
1.1296518773580324,10.151943925330833,-0.014151818118234601,0.0527841521239292,-0.6743578459926276
1.1268634928048717,10.141966119809048,-0.012404225245201083,0.04224256713115372,-0.5516003093933581
1.1244677915485353,10.134181272151167,-0.010411977196099377,0.03189883913439034,-0.42472854200415483
1.1225246606186177,10.128549054709048,-0.008094031660258284,0.021741326981026918,-0.29528877359317574
1.1211168132332032,10.125029032571792,-0.005314038677021604,0.011782693373802765,-0.1648933947804299
1.1203731669544046,10.123567930247024,-0.0017683068353469425,0.0021325668620782445,-0.03495116457023076
