x,y,v_x,v_y,omega
2.375,32.48,0.0,2.2564102564102564,-3.3469387755102042
2.374399341273506,32.01084282146307,-0.005720559299945674,2.2117533487033154,-3.176490069236902
2.3726701120667553,31.55091576242603,-0.01074829028815303,2.168504356411378,-3.0186704558293167
2.3699495471965246,31.099930926783134,-0.01516185133309306,2.1265893163781087,-2.872242249199184
2.3663593809839965,30.657615385373184,-0.019030207833838637,2.085939649430941,-2.736112822509884
2.362007744044891,30.223710100528002,-0.02241395349097842,2.046491634808879,-2.6093151130065904
2.3569908035359672,29.797968954016028,-0.02536643230829296,2.0081859510194247,-2.490991071371718
2.3513941852188154,29.3801578655238,-0.02793469452172646,1.9709672727161172,-2.380377561615317
2.3452942093711546,28.970053990801738,-0.03016031355123334,1.9347839151130315,-2.276794308871204
2.3387589673967097,28.567444990222526,-0.03208008620538302,1.8995875189746882,-2.179633565308588
2.3318492617264894,28.172128359834854,-0.033726634463384524,1.8653327704317144,-2.0883512227808607
2.3246194280871535,27.78391081810092,-0.03512892400648182,1.831977150843851,-2.002459147931261
2.3171180562947447,27.402607742427207,-0.03631271211169718,1.7994807127153392,-1.9215185536443105
2.309388623302504,27.02804265037022,-0.03730093543345144,1.7678058783035628,-1.8451342518126508
2.3014700502007646,26.66004672104984,-0.0381140464878745,1.736917258081015,-1.772949657811002
2.2933971931636457,26.298458352854443,-0.03877030624659198,1.7067814866370599,-1.7046424379503144
2.2852012769040164,25.943122753991947,-0.039286039083209344,1.6773670739581377,-1.639920708405026
2.2769102779884722,25.593891562843005,-0.03967585535054673,1.648644270317518,-1.5785197083600824
2.268549264340024,25.25062249541843,-0.039952846063247165,1.620584943249845,-1.5201988819649503
2.260140696387,24.91317901752169,-0.040128753489361076,1.593162465290558,-1.4647393135510731
2.2517046945769232,24.581430039476217,-0.04021412089232002,1.5663516113329643,-1.4119414688217558
2.243259277343038,24.255249631503045,-0.04021842419230289,1.5401284646020248,-1.3616232016453402
2.2348205730714654,23.93451675803115,-0.040150187917913624,1.5144703303683766,-1.3136179919053064
2.2264030091543967,23.619115029396063,-0.04001708748273794,1.489355656632463,-1.2677733847728818
2.2180319472901946,23.308934803310336,-0.0397073112239496,1.4647417346602145,-1.2207798932908889
2.209729830042143,23.003870508341286,-0.03936047209082862,1.440632503140227,-1.176019945908943
2.201503949086079,22.703818113097633,-0.03898125130025718,1.4170093563231427,-1.1333602325714285
2.1933606633612897,22.408677400350697,-0.03857385084059584,1.393854574600069,-1.0926769084744552
2.1853054945296417,22.1183517865354,-0.03814204279414538,1.3711512712598917,-1.0538548156082144
2.1773432126392,21.832748152028817,-0.03768921330529674,1.348883343088536,-1.0167867768752559
2.169477913051558,21.55177668143367,-0.037218401815103434,1.3270354244843046,-0.9813729552321446
2.161713085569847,21.275350713159305,-0.03673233610595656,1.3055928447953415,-0.9475202711688228
2.154051676597233,21.003386597651364,-0.03623346363322362,1.2845415886136324,-0.9151418725981448
2.1464961450616635,20.735803563674487,-0.03572397956267629,1.263868258785184,-0.8841566518922555
2.1390485127599677,20.472523592100597,-0.035205851882045947,1.2435600419185338,-0.8544888053853685
2.1317104097016912,20.213471296698795,-0.0346808439110613,1.2236046761938588,-0.8260674311748819
2.1244831149689554,19.95857381146268,-0.03415053449594657,1.2039904212929402,-0.7988261615038663
2.1173675935520944,19.707760684046853,-0.03361633614082874,1.18470603028639,-0.7727028264057473
2.110364529570895,19.460963774917232,-0.03307951129916631,1.1657407233290351,-0.7476391456432873
2.103474356247108,19.218117161849808,-0.03254118702261121,1.147084163027388,-0.7235804462846607
2.096697282954806,18.97915704943967,-0.03200236814216976,1.1287264313548866,-0.7004754035345825
2.090033319640522,18.74402168330728,-0.031463949136726156,1.1106580080011719,-0.6782758026825035
2.083482298874375,18.512651268711778,-0.03092672482657762,1.0928697500512543,-0.6569363202466328
2.0770438957660833,18.284987893301995,-0.030391400014297142,1.0753528728990756,-0.6364143225853001
2.070717645955501,18.06097545375527,-0.02985859818172429,1.0580989323078218,-0.616669680418809
2.0645029618657245,17.84055958607162,-0.029328869339956827,1.0410998075364635,-0.5976645978579598
2.0583991473875676,17.623687599307154,-0.02880269711867834,1.0243476854584577,-0.5793634546720194
2.0524054111470638,17.410308412545547,-0.02828050517183716,1.007835045604432,-0.561732660651009
2.0465208784923345,17.200372494920153,-0.0277626629684407,0.991554646066018,-0.5447405210264209
2.040748462707575,16.993977376805837,-0.02721272545784055,0.9741131454988494,-0.5559897041952316
2.0350887668878017,16.791232567428608,-0.026689139492382274,0.9567898009509694,-0.5692986411905349
2.029536244942024,16.592113604206027,-0.02619202189597605,0.9395812773593398,-0.5845502004642275
2.024085338060164,16.396596710963617,-0.025721376978879,0.9224843725683458,-0.6016304959354908
2.0187304973460614,16.204658770612156,-0.025277106012575705,0.9054960117312856,-0.6204286346744292
2.013466204538752,16.016277298954606,-0.024859015961801286,0.8886132421501335,-0.6408364728093093
2.008286990972477,15.831430419532708,-0.024466827526532186,0.8718332285345906,-0.6627483786862352
2.0031874549152366,15.650096839426855,-0.024100182542421092,0.8551532486640053,-0.6860610023384126
1.9981622774159524,15.47225582592612,-0.023758650784095767,0.8385706894382536,-0.7106730503440737
1.993206236781368,15.29788718398796,-0.023441736211944644,0.822083043306134,-0.7364850651677387
1.9883142217956724,15.126971234409275,-0.02314888269944524,0.8056879050622946,-0.7633992080888037
1.9834812437883844,14.959488792632087,-0.022879479274726278,0.7893829690061794,-0.7913190448244081
1.9787024476493174,14.795421148108243,-0.022632864906864322,0.7731660264590022,-0.8201493329500613
1.9739731218833372,14.634750044148127,-0.022408332864375016,0.7570349636373482,-0.849795810211403
1.9692887077921815,14.477457658178313,-0.022205134670442463,0.7409877598847049,-0.8801649828035064
1.9646448078657404,14.323526582332587,-0.022022483676613722,0.7250224862650677,-0.9111639126699969
1.960037193460932,14.172939804299546,-0.021859558273944136,0.7091373045257935,-0.9427000028425646
1.9554618118425895,14.025680688348125,-0.021715504757888898,0.6933304664401272,-0.9746807798017567
1.950914792657651,13.88173295644986,-0.02158943986057165,0.6776003135433579,-1.0070136717917053
1.9463924539113444,13.741080669413364,-0.02148045296139641,0.6619452772804214,-1.0396057819640983
1.9418913075120487,13.603708207942283,-0.021387607984277433,0.6463638795870208,-1.0723636551595528
1.937408064450063,13.469600253522884,-0.021309944987014544,0.6308547339310601,-1.1051930370568745
1.932939639674648,13.338741769041246,-0.021246481445508305,0.6154165468464539,-1.1379986243317044
1.928483156733451,13.211117979022653,-0.021196213232557555,0.6000481199972866,-1.1706838043649292
1.9240359522388055,13.086714349377157,-0.021158115287875576,0.5847483528169526,-1.2031503829271508
1.9195955802264493,12.96551656652506,-0.02113114197266161,0.5695162457744338,-1.2352982981376588
1.9151598164739743,12.847510515764263,-0.021114227098528372,0.5543509043284052,-1.2670253188540597
1.9107266628488684,12.732682258727628,-0.02110628361676601,0.5392515436395516,-1.2982267254914586
1.9062943517593824,12.621018009762611,-0.021106202949765174,0.5242174941225184,-1.3287949710977198
1.9018613507857611,12.51250411104694,-0.021112853941866336,0.5092482079314855,-1.3586193203242047
1.8974263675746676,12.407127006232926,-0.02112508140188136,0.49434326648768534,-1.3875854637306675
1.8929883550860533,12.3048732123885,-0.02114170420396874,0.47950238917349974,-1.4155751046510843
1.8885465172893654,12.205729289974968,-0.02116151290734666,0.4647254433363325,-1.4424655156282473
1.8841003154150127,12.109681810569171,-0.021183266848393743,0.4500124557665116,-1.4681290612057467
1.8796494748775876,12.016717322000773,-0.021205690650893252,0.43536362583727534,-1.4924326836569572
1.8751939929996493,11.926822310533087,-0.02122747009137493,0.4207793405216418,-1.5152373480476817
1.8707341476791703,11.839983159667582,-0.021247247246518778,0.40626019153078025,-1.5363974428956295
1.866270507160277,11.75618610509746,-0.021263614838180074,0.39180699485136,-1.5557601326402672
1.8618039410860274,11.675417185273595,-0.021275109678482694,0.3774208129949658,-1.5731646582206187
1.8573356330340536,11.597662186976539,-0.02128020510222048,0.36310298031032984,-1.5884415823482487
1.8528670947614432,11.522906585210471,-0.02127730225597469,0.34885513174745536,-1.6014119766613857
1.8484001824148897,11.451135476649565,-0.02126472009215484,0.3346792354992715,-1.6118865490023782
1.843937114996708,11.382333505774536,-0.021240683890524914,0.32057762997720896,-1.6196647107872484
1.839480495417903,11.316484782739401,-0.021203312098096973,0.30655306559549894,-1.6245335871380648
1.835033334517596,11.253572791909221,-0.02115060123815843,0.29260875183477525,-1.6262669765637063
1.8305990784859585,11.193580289915236,-0.021080408586961464,0.27874841001271855,-1.6246242731302636
1.8261816401984448,11.136489191995135,-0.020990432246502197,0.2649763320834627,-1.6193493731608561
1.8217854350573572,11.082280445340377,-0.02087818814480708,0.2512974455809002,-1.6101696018426601
1.8174154220496845,11.030933888186357,-0.020740983356836183,0.23771738445736795,-1.5967947145601795
1.8130771508788908,10.982428093497145,-0.020575884936438436,0.22424256496370298,-1.5789160559940367
1.8087768162302842,10.936740196377915,-0.0203796831455301,0.21088026474323307,-1.556206000853347
1.8045213205124564,10.893845704892414,-0.02014884750044882,0.1976387017853653,-1.5283178589938158
1.8003183468253647,10.853718294913751,-0.01987947332899551,0.18452710753523463,-1.49488651227299
1.7961764445104254,10.816329591207634,-0.019567215384712483,0.17155578490398912,-1.4555301713716922
1.7921051305552598,10.781648939444278,-0.01920720323591238,0.15873613665178155,-1.4098538120401192
1.788115011543418,10.74964317768966,-0.018793930210199872,0.1460806419636386,-1.3574550894031236
1.7842179330624246,10.720276421714185,-0.018321102942117244,0.1336027482789845,-1.2979338553246198
1.78042716700479,10.693509886885852,-0.017781430940118206,0.12131663103846582,-1.2309068315570806
1.7767576528069586,10.669301781208045,-0.017166323324940388,0.10923675636920949,-1.1560295116484545
1.773226317623707,10.647607319583493,-0.016465440325074233,0.09737716386462478,-1.073027903644531
1.7698525146859119,10.62837892770667,-0.015666016225358764,0.08575037781938599,-0.9817430568296199
1.7666586416562722,10.611566720837551,-0.014751822152161916,0.07436587807698962,-0.8821908949542603
1.7636710364290251,10.597119346505963,-0.013701560964476599,0.06322816317622844,-0.7746375946155395
1.7609213048659187,10.584985245418576,-0.012486358684155208,0.052334704322681724,-0.6596847171949912
1.7584483324284876,10.575114263220154,-0.011065759767568803,0.04167464994800275,-0.5383462588660969
1.7563014282332103,10.567459256425781,-0.00938094685412118,0.031230176665069595,-0.4120813125832187
1.754545569715387,10.561976732723256,-0.00734151522038443,0.020984334787563102,-0.28272750853877515
1.7532716006631497,10.558624141053269,-0.004791523372352521,0.010945109688520424,-0.1522781290170064
1.7526248870812995,10.557345073983214,-0.0013676535976505787,0.0012364814548651102,-0.022500217070254624
