x,y,v_x,v_y,omega
2.375,32.48,0.0,3.6923076923076925,-6.8979591836734695
2.372862947019167,31.71558242604441,-0.02035288553174219,3.5878596786978907,-6.351808237717532
2.366835521673543,30.97252699492487,-0.037051165378964405,3.4888587129167754,-5.871277498311859
2.357618473741171,30.249737756144825,-0.050730243500767824,3.3948483230836732,-5.446262220302874
2.345791715685355,29.546208886302363,-0.06190554750700297,3.305426627796912,-5.068490399246278
2.3318368926879645,28.861014159042274,-0.07099752865862227,3.2202374413468036,-4.73114440864372
2.3161553075196624,28.193298086888774,-0.07835090151568194,3.1389632458293852,-4.428570029952266
2.2990822558621424,27.542268392610225,-0.08424959046069885,3.0613195568234497,-4.156050522136164
2.2808985628966787,26.907189552761945,-0.08892843778181253,2.9870503464934903,-3.9096296622159623
2.2618399204092885,26.287377216832333,-0.09258244305047664,2.915924281407603,-3.6859720436260854
2.24210448306942,25.682193349596258,-0.09537410304350792,2.8477315970311805,-3.482251987413139
2.221859078049506,25.09104197689357,-0.09743927809852779,2.7822814763277495,-3.2960646145723826
2.2012443036342506,24.513365439482687,-0.09889190680866995,2.719399832347341,-3.1253542162395185
2.180378732887594,23.948641078178266,-0.09982781458805905,2.6589274181709572,-2.9683562224004145
2.159362392839625,23.396378287764787,-0.1003278049164087,2.6007182048145516,-2.823549931765195
2.13827965447341,22.856115888305915,-0.10046017952373286,2.544637980508053,-2.6896198099800013
2.1172016414577772,22.327419771239676,-0.1002828015775341,2.4905631344084864,-2.5654236495267644
2.0961882441980717,21.809880784635894,-0.0998447913720406,2.4383795951513667,-2.4499662543585856
2.075289808963825,21.303112827613248,-0.0991879251445944,2.38798190030238,-2.342377595539423
2.0545485585540106,20.806751128477984,-0.09834779304411498,2.339272377176311,-2.241894602629919
2.0339997903884677,20.32045068488427,-0.09735476091343408,2.292160418954313,-2.147845925174074
2.013672889468961,19.843884847402073,-0.09623477165329956,2.2465618427808907,-2.059639131114875
1.9935921868769109,19.376744030443966,-0.09501001493765332,2.202398318724932,-1.976749913018916
1.9737776890142704,18.91873453664965,-0.09369948851606455,2.1595968602685014,-1.89871295515426
1.9542456983760534,18.469577482635735,-0.09231946994314402,2.1180893684354976,-1.825114179674085
1.935009343054971,18.02900781554972,-0.0908839140671646,2.0778122228598708,-1.7555841421579816
1.9160790292539418,17.596773411171725,-0.08940478879977931,2.0387059140734207,-1.6897923884179
1.897462828690008,17.172634245422728,-0.08789235942816287,2.0007147121075057,-1.6274426179894481
1.8791668108099508,16.75636163209718,-0.08635542990571583,1.9637863671833982,-1.568268526804867
1.8611953281216067,16.34773752046498,-0.08480154807851448,1.9278718388375848,-1.5120302235053977
1.8435512616101355,15.94655384710439,-0.08323718060216218,1.8929250503109178,-1.4585111317319805
1.826236232103024,15.552611936950555,-0.08166786232270694,1.858902665439903,-1.4075153053458245
1.8092507825294288,15.165721949087459,-0.08009832409248557,1.8257638856372185,-1.3588650955140409
1.7925945352547772,14.785702363286621,-0.07853260233276861,1.7934702648469614,-1.3123991184567454
1.776266328033018,14.41237950371297,-0.07697413311255862,1.7619855406163873,-1.2679704807933772
1.7602643315843753,14.04558709658534,-0.0754258330649894,1.731275479646768,-1.2254452261687916
1.7445861513578944,13.685165858902845,-0.0738901690919728,1.7013077363769824,-1.1847009724413695
1.7292289156607414,13.330963115634752,-0.07236921849995906,1.6720517233191416,-1.1456257133829086
1.7141893520181228,12.982832443025224,-0.07086472095355367,1.6434784920096883,-1.108116762740433
1.6994638533588922,12.640633335889863,-0.0693781234200698,1.6155606235651903,-1.0720798217784726
1.685048535394345,12.3042308969816,-0.06791061909942807,1.5882721279420617,-1.0374281541666572
1.6709392863645784,11.97349554668261,-0.06646318118406383,1.5615883510959407,-1.0040818543911163
1.6571318101626424,11.648302751438802,-0.06503659216770644,1.5354858893212646,-0.9719671978223504
1.6436216637068541,11.328532769496803,-0.06363146931599185,1.509942510126327,-0.9410160622268787
1.6304042893123096,11.014070412631707,-0.0622482868225264,1.484937079065078,-0.9111654119143944
1.6174925774869287,10.704807432227224,-0.060720397228721974,1.4604246390728635,-0.8775734817533553
1.6048977411604515,10.400639523964852,-0.05923042492820492,1.4364125824735225,-0.8455634252568633
1.5926118773239635,10.101463534825893,-0.057777802085965196,1.4128825521832205,-0.815041620586236
1.5806272088624933,9.807180075729814,-0.05636189754708413,1.389817058255635,-0.785921040749025
1.5689360965462333,9.517693344834914,-0.05498202927443906,1.3671994264577154,-0.7581207154073315
1.5575310485917493,9.232910961256525,-0.05363747505398032,1.3450137504793198,-0.7315652424571408
1.546404728132794,8.952743808470991,-0.05232748169797556,1.323244847478139,-0.7061843442464599
1.5355499588952375,8.677105886733415,-0.05105127294542083,1.3018782166892637,-0.6819124638826733
1.524959729331607,8.405914173891397,-0.049808056232012246,1.2809000008537732,-0.6586883975900821
1.5146271954369497,8.139088494026222,-0.04859702847901055,1.2602969502431394,-0.6364549595266984
1.5045456824384547,7.876551393397676,-0.04741738103046492,1.240056389076358,-0.6151586758632833
1.494708685525887,7.618228023209454,-0.04626830385113108,1.2201661841448106,-0.5947495052744302
1.4851098697678426,7.364046028749254,-0.04514898908262699,1.200614715476132,-0.5751805832972916
1.4757430693396953,7.113935444491542,-0.04405863404258551,1.1813908488830374,-0.5564079882835746
1.466602286172471,6.867828594781912,-0.04299644374050229,1.1624839102562945,-0.5383905269092077
1.4576816881174066,6.6256599997503365,-0.041961632974397284,1.1438836614729981,-0.5210895374175265
1.448975606708364,6.387366286126447,-0.04095342806410375,1.1255802778021258,-0.5044687089593123
1.4404785345933049,6.152886102653813,-0.039971068269792166,1.107564326699156,-0.48849391555949384
1.4321851226964784,5.922160039821907,-0.03901380693807848,1.0898267478904284,-0.47313306338832006
1.4240901771646546,5.695130553654533,-0.03808091241262627,1.0723588346559914,-0.45835595014656555
1.4161886561434796,5.471741893311815,-0.03717166874142038,1.055152216227025,-0.44413413549175457
1.4084756664237095,5.2519400322798155,-0.03628537620877045,1.0381988412206031,-0.43044082153718133
1.4009464599915546,5.035672602937385,-0.03542135171651369,1.0214909620406365,-0.4172507425491258
1.393596430512566,4.822888834304283,-0.03457892903575826,1.005021120179388,-0.40454006305141016
1.3864211097742947,4.613539492787751,-0.03375745894777925,0.9887821323590088,-0.39228628362143503
1.3794232475318822,4.407719829515816,-0.03288884812281556,0.9714051368975295,-0.40783176791320347
1.372603356819991,4.205537233571459,-0.03206249199043371,0.9541433959058891,-0.4253366261179332
1.3659526368185277,4.006967840216316,-0.0312776984996906,0.9369936836669053,-0.44468656429670766
1.3594624393659323,3.8119884486942652,-0.030533705810742134,0.919952902257368,-0.4657704586084949
1.3531242828677945,3.62057649595981,-0.029829689409617006,0.9030180761660255,-0.4884801030165534
1.3469298647748966,3.432710031491567,-0.029164768617982804,0.8861863473410511,-0.5127099653615405
1.3408710727530797,3.2483676931026864,-0.028538012542178717,0.8694549706482947,-0.5383569507981973
1.334939994658438,3.067528683663575,-0.02794844550202827,0.8528213097242109,-0.5653201716233284
1.3291289274232,2.8901727486554947,-0.027395051976427307,0.8362828332098783,-0.5935007225467978
1.3234303849502382,2.7162801544761805,-0.026876781099399477,0.8198371113550157,-0.6228014604745632
1.3178371051073954,2.54583166742065,-0.026392550737198255,0.8034818129833741,-0.6531267878833744
1.3123420559067105,2.378808533261992,-0.025941251174086796,0.7872147028133796,-0.684382438870661
1.3069384409481113,2.2151924573578903,-0.025521748431620583,0.7710336391304452,-0.716475266960219
1.3016197042022162,2.054965585209146,-0.02513288724357053,0.7549365718099862,-0.7493130337343988
1.2963795342025077,1.8981104833963407,-0.02477349370603289,0.7389215406929072,-0.7828041973463548
1.2912118677133,1.7446101208201732,-0.02444237761975463,0.7229866743182104,-0.8168576999412203
1.2861108929366059,1.5944478501696153,-0.024138334539236254,0.7071301890204419,-0.8513827529824121
1.281071052318209,1.4476073895401527,-0.023860147540734896,0.6913503884030022,-0.8862886194381702
1.276087045010952,1.3040728041216347,-0.023606588718855476,0.6756456632019383,-0.9214843917333436
1.2711538290514812,1.1638284878717613,-0.023376420418961204,0.6600144915587708,-0.9568787643116818
1.2662666233054265,1.026859145086938,-0.023168396210130886,0.644455439725262,-0.9923797995837742
1.2614209092352775,0.8931497717768586,-0.022981261600810914,0.6289671632278586,-1.0278946859544775
1.2566124325450467,0.7626856367428125,-0.022813754496624258,0.6135484085249547,-1.0633294865303222
1.251837204756219,0.6354522622520911,-0.022664605396974364,0.5981980151961893,-1.0985888770010521
1.247091504770508,0.5114354041919569,-0.022532537324082558,0.5829149187098551,-1.1335758710691923
1.2423718804766166,0.39062103157608163,-0.022416265474883724,0.5676981538222616,-1.1681915316663942
1.237675150460567,0.27299530526421023,-0.02231449658273252,0.5525468586717214,-1.2023346660444327
1.2329984058823102,0.15854455574149284,-0.02222592797209243,0.537460279639883,-1.2359015026614057
1.2283390125852907,0.04725525978751932,-0.022149246285237085,0.5224377770646009,-1.2687853475995265
1.2236946135105211,-0.0608859841539342,-0.022083125855425892,0.5074788319016318,-1.3008762180499955
1.2190631314926264,-0.16589248211558072,-0.022026226695953246,0.49258305344741093,-1.3320604501836677
1.214442772522324,-0.26777747249404626,-0.021977192068832228,0.4777501882522578,-1.3622202784956357
1.2098320295680869,-0.3665541559496859,-0.021934645590566976,0.4629801303728621,-1.391233383471242
1.205229687059412,-0.46223572761802245,-0.02189718782538478,0.4482729331351045,-1.4189724041767833
1.2006348261453736,-0.5548354119705721,-0.02186339230831245,0.4336288226034552,-1.4453044121403684
1.1960468308551997,-0.6443665007070081,-0.02183180093143898,0.4190482129816254,-1.4700903426725467
1.1914653953026744,-0.7308423941111855,-0.02180091861642206,0.40453172420100086,-1.4931843796056377
1.1868905320935736,-0.8142766463611011,-0.021769207184536756,0.3900802019887032,-1.5144332893395183
1.182322582115384,-0.8946830153482139,-0.02173507832203139,0.3756947407456936,-1.5336757001201715
1.1777622259116711,-0.9720755176351972,-0.0216968855228533,0.3613767096065196,-1.5507413227185802
1.17321049687017,-1.0464684892638374,-0.021652914872395467,0.3471277820948099,-1.56545010922721
1.1686687964845945,-1.1178766532159514,-0.021601374514036282,0.3329499698300706,-1.577611347701825
1.1641389119861714,-1.186315194429767,-0.021540382613802877,0.31884566077769577,-1.5870226920675499
1.1596230366831068,-1.2517998433800983,-0.021467953605858996,0.3048176625587801,-1.5934691293966503
1.1551237933961662,-1.31434696933934,-0.02138198246024245,0.2908692513387834,-1.5967218908081053
1.1506442614384818,-1.373973684541582,-0.021280226660562913,0.2770042267778409,-1.5965373184944696
1.1461880076608577,-1.430697960562874,-0.021160285507285798,0.263226973424963,-1.592655710701143
1.1417591221750432,-1.4845387582895953,-0.02101957626237554,0.24954252873426813,-1.584800180241829
1.1373622594841095,-1.5355161728456608,-0.020855306508421118,0.2359566575139765,-1.5726755823189513
1.1330026859027293,-1.5836515947443957,-0.02066444188567668,0.22247593199780338,-1.5559675968988946
1.128686334359025,-1.6289678882545786,-0.020443668054365077,0.2091078157182335,-1.5343420938019763
1.1244198679628146,-1.671489587419913,-0.02018934524287809,0.19586074776111395,-1.507444970923432
1.120210754149421,-1.7112431091920897,-0.019897452979916918,0.18274422149773994,-1.474902745987332
1.1160673518398128,-1.7482569815004112,-0.019563521397304943,0.16976884810530046,-1.436324311605302
1.1119990150207408,-1.7825620814513883,-0.01918254354623791,0.1569463895230653,-1.3913044478434347
1.1080162176454633,-1.8141918747581443,-0.018748860027834578,0.14428973720792382,-1.3394299458292387
1.10413070711771,-1.8431826413028531,-0.018256002141244496,0.13181280131311848,-1.2802895522389168
1.100355697387605,-1.869573662644072,-0.017696471478803676,0.11953025907944344,-1.2134894148033502
1.0967061187281326,-1.893407334472485,-0.017061420516172047,0.10745709166736543,-1.138676285101553
1.0931989509604831,-1.9147291500603671,-0.016340177270966094,0.09560781869342176,-1.055571335786134
1.0898536824285032,-1.9335874806570814,-0.015519523033605308,0.08399532984669214,-0.9640178188918371
1.0866929617477628,-1.9500330603788214,-0.014582578687732594,0.07262923893175956,-0.8640453059839538
1.0837435485733407,-1.9641180796748472,-0.013507070592477665,0.06151380198274001,-0.755950623352197
1.0810377327468563,-1.9758948323152552,-0.012262603945468787,0.05064574697352197,-0.6403886413206323
1.0786155001727222,-1.9854140017448003,-0.010806277712950774,0.0400130094983122,-0.518452219320946
1.0765279490159323,-1.9927230069959592,-0.009075161875524033,0.029596564322248546,-0.39169966708839526
1.0748430801830546,-1.9978655303575863,-0.006971207961406601,0.019379848645651048,-0.2620681685522138
1.0736574672919337,-2.000885089294812,-0.004320343382602725,0.009377855518395758,-0.13161209659254067
1.0731323842454523,-2.001844492794362,-0.0006804475362669807,-0.00024067933222977553,-0.002092862167873688
