x,y,v_x,v_y,omega
2.375,32.48,0.0,4.0,-7.63265306122449
2.3719029920846286,31.575115006939768,-0.026930503611923538,3.8685651570454653,-6.921085730219139
2.363260691394176,30.699525208412258,-0.04821993717462371,3.7452591779763615,-6.3105637141004705
2.3502387372491897,29.851453060563983,-0.06501444669482111,3.6292812380955866,-5.7828466127548035
2.333768145734604,29.029292279354195,-0.07820808821461932,3.519942946337362,-5.323551401301669
2.3145962816482593,28.231584443443122,-0.08850377340576858,3.416646931150241,-4.921228224770831
2.2933256783837543,27.45699992214111,-0.09645799411166903,3.318870645388973,-4.5666828110901445
2.270443890447959,26.704322103486074,-0.10251407489524508,3.2261538646548256,-4.252472970416809
2.2463466465736923,25.972434190132194,-0.10702717618533353,3.138088860161512,-3.972529981490854
2.2213559440241544,25.260308028011078,-0.11028328076717213,3.0543125495873356,-3.7218708443404145
2.195734286853046,24.56699456879448,-0.112513738112031,2.974500139252645,-3.4963774774919747
2.1696959601866013,23.89161566306525,-0.1139064937700973,2.8983599105667537,-3.2926257898163254
2.14341600893415,23.23335695002723,-0.1146148214686086,2.825628898459514,-3.1077522866819907
2.1170374263143854,22.591461660067484,-0.11476415783369157,2.7560692751034703,-2.939349184509746
2.0906769374579968,21.96522518410677,-0.11445748439577731,2.6894652984679417,-2.785381362098315
2.064429673963586,21.353990292165893,-0.11377958946866208,2.6256207184092597,-2.64412016973046
2.0383729681918012,20.757142905472996,-0.11280046072076924,2.564356557181148,-2.5140903474051055
2.012569445322228,20.17410834349456,-0.11157799901465301,2.5055091991531055,-2.394027206799267
1.9870695525136453,19.604347980724924,-0.11016019932084871,2.4489287379741462,-2.2828419007847933
1.9619136348295327,19.047356258797084,-0.10858691097578073,2.394477539659245,-2.179593104349993
1.9371336446787861,18.502658008119724,-0.10689126424810363,2.3420289879699774,-2.083463807320237
1.9127545537305257,17.969806040272225,-0.10510083095415976,2.291466384616983,-1.9937422049087044
1.8887955223715236,17.448378978149925,-0.10323857216759844,2.24268198166387,-1.9098058902960426
1.8652708708739496,16.937979295610603,-0.10132361476782879,2.195576127373726,-1.831108721151331
1.8421908878447093,16.43823154233099,-0.09937188983425889,2.150056509840306,-1.757169861723128
1.8195625047170747,15.94878073289485,-0.09739665910169581,2.1060374852565613,-1.6875646030387395
1.7973898596258513,15.469290881922408,-0.09540895038720319,2.0634394797211844,-1.6219166426821363
1.7756747696767692,14.999443669410375,-0.09341791873524859,2.0221884551660487,-1.559891567686734
1.7544171271464502,14.538937222457815,-0.09143114674578628,1.982215431377962,-1.501191333127351
1.733615232351276,14.087485001266252,-0.08945489495138137,1.9434560572443174,-1.4455495679424213
1.7132660736618348,13.644814778771508,-0.0874943110437578,1.905850225318686,-1.3927275705855577
1.6933655633051252,13.210667704529211,-0.08555360510154524,1.8693417246143251,-1.3425108819981573
1.6739087361036598,12.784797444568401,-0.08363619665032655,1.833877927218809,-1.2947063434240997
1.654889917081579,12.366969389874303,-0.08174483832428951,1.799409504903791,-1.249139562769753
1.6363028628694385,11.956959926984581,-0.07988172004215059,1.7658901723981506,-1.2056527263379444
1.6181408810191833,11.554555764901075,-0.07804855691659089,1.7332764544149353,-1.1641027034511837
1.6003969306651433,11.159553313146656,-0.07624666355332067,1.7015274738843529,-1.1243594002123454
1.5830637074087375,10.771758106346986,-0.07447701693716491,1.670604759156238,-1.0863043258127407
1.5661337148422707,10.39098427120058,-0.07274030972776382,1.6404720682038338,-1.0498293406909263
1.549599324743335,10.017054032126449,-0.07103699548037168,1.6110952280929438,-1.0148355607114234
1.5334528276517803,9.649797252254835,-0.06936732705488864,1.582441988181964,-0.9812323955629157
1.5176864752746075,9.289051006759152,-0.06773138926835252,1.5544818856935294,-0.9489367029243051
1.5022925159411935,8.934659185822497,-0.06612912667437884,1.5271861224513,-0.9178720427379625
1.4872632241443955,8.586472124794067,-0.0645603672108206,1.5005274517089606,-0.8879680182623717
1.4725909250461817,8.244346259324253,-0.0630248423388644,1.4744800741155086,-0.8591596925319146
1.4582916651046394,7.908146680644322,-0.061316548457156395,1.4489945231012882,-0.8253422902582348
1.4443795535953727,7.577743743443396,-0.05965833423211888,1.4240744960371845,-0.7932334641374635
1.4308432154429216,7.2530099257990415,-0.058048954050064494,1.3996978313050406,-0.7627249702565241
1.4176715659025483,6.933822673858614,-0.056487128909703165,1.3758434899160776,-0.7337167254629212
1.404853816796379,6.620064151822788,-0.054971558970029234,1.3524914843085114,-0.7061160951187806
1.3923794801014837,6.311621007687162,-0.053500934029061246,1.3296228125230223,-0.6798372512533546
1.3802383693304796,6.008384153559298,-0.052073942240539954,1.3072193972844923,-0.6548005933607538
1.3684205990798466,5.710248559471552,-0.05068927733018196,1.2852640295654607,-0.630932225029059
1.3569165830654055,5.417113059702942,-0.04934564453452351,1.2637403162485359,-0.6081634804024179
1.3457170309168787,5.12888017070701,-0.04804176545266701,1.242632631542171,-0.5864304951869008
1.3348129439628762,4.845455919818367,-0.04677638197344234,1.2219260718373373,-0.5656738175287348
1.324195610202993,4.566749683979019,-0.0455482594168458,1.2016064137222007,-0.5458380546327619
1.3138565986340807,4.2926740377876555,-0.04435618900847975,1.1816600748983392,-0.5268715514603851
1.303787753072423,4.0231446102312916,-0.04319898978854455,1.1620740777657093,-0.5087260982590777
1.2939811855918781,3.758079949509785,-0.04207551004227988,1.142836015464791,-0.49135666403762057
1.2844292696794992,3.497401395410243,-0.040984628326232515,1.1239340201833965,-0.47472115341932813
1.2751246331942698,3.2410329587305853,-0.03992525415402258,1.1053567335527632,-0.45878018458539827
1.2660601512010037,2.9889012072901266,-0.038896328396118195,1.087093278972979,-0.4434968862671519
1.2572289387398177,2.740935158100239,-0.037896823440281446,1.0691332357216936,-0.4288367119635656
1.2486243435816338,2.49706617530029,-0.036925743152622696,1.0514666147126297,-0.4147672697528445
1.2402399390116376,2.257227873493438,-0.03598212267343131,1.0340838357817483,-0.40125816623700217
1.232069516675338,2.0213560261437777,-0.0350650280770003,1.0169757063891958,-0.3882808633092652
1.2241070795156357,1.789388478721058,-0.03417355592041124,1.0001334016344579,-0.3758085465679838
1.21634683482399,1.5612650663016794,-0.033306832702593984,0.983548445490583,-0.3638160043196757
1.2087907064759247,1.337037701185821,-0.03239863119362765,0.9662547294299395,-0.371633335042075
1.2014387849776302,1.116773266412359,-0.03153112096545458,0.9490881816436283,-0.3818117726867902
1.1942817419226932,0.9004429518481238,-0.030704036033998773,0.9320449884801435,-0.3942204088762945
1.187310322998852,0.6880188062611232,-0.029916998086359742,0.9151214948850737,-0.4087326300657819
1.180515372579952,0.47947370171630865,-0.029169527295380252,0.8983141968089637,-0.42522580330133886
1.1738878559349797,0.27478129965129483,-0.028461052226117715,0.8816197341911538,-0.44358097520628653
1.1674188792550027,0.07391601850323326,-0.02779091890411797,0.8650348844876306,-0.46368258286111
1.1610997076834324,-0.12314699723501121,-0.027158399109537063,0.8485565567144997,-0.48541817530529374
1.1549217815209256,-0.31643190664512133,-0.026562697955739432,0.8321817859820806,-0.5086781444428645
1.1488767307633285,-0.5059622008103162,-0.026002960805974407,0.8159077284978763,-0.5333554641779183
1.1429563881192801,-0.6917607301448498,-0.025478279577055698,0.7997316570198147,-0.5593454366421737
1.1371528006433396,-0.8738497307277129,-0.024987698474602256,0.7836509567442247,-0.586545444403873
1.131458240110725,-1.0522508497391456,-0.024530219200307405,0.7676631216160386,-0.6148547075662555
1.1258652122508865,-1.2269851700959364,-0.02410480566785263,0.751765751051738,-0.6441740446743769
1.1203664649491327,-1.3980732343797797,-0.023710388260440484,0.735956547068614,-0.6744056363511818
1.1149549955183446,-1.5655350681516325,-0.02334586765945652,0.7202333118170361,-0.7054527905772852
1.109624057136405,-1.729390202744895,-0.02301011827045276,0.7045939455156665,-0.7372197085136243
1.104367164539317,-1.8896576976303834,-0.022701991269444916,0.6890364447929453,-0.7696112497416505
1.0991780990550495,-2.046356162447374,-0.02242031728940265,0.6735589014417784,-0.8025326957615786
1.0940509130589362,-2.1995037787969736,-0.022163908763756422,0.6581595015982196,-0.8358895105448318
1.088979933927922,-2.349118321897066,-0.021931561940714876,0.64283652535913,-0.8695870968815512
1.0839597675681374,-2.495217182202083,-0.021722058579151507,0.6275883468583818,-0.9035305471970805
1.0789853015881543,-2.637817387095815,-0.02153416733374452,0.6124134348262282,-0.9376243874318146
1.0740517081888747,-2.7769356227719726,-0.021366644833903978,0.5973103536620963,-0.971772312485697
1.0691544468403338,-2.912588256424712,-0.021218236457756844,0.5822777650573494,-1.0058769116208819
1.064289266815802,-3.0447913588806514,-0.021087676799042252,0.5673144302116655,-1.039839382092459
1.0594522096544798,-3.1735607278148805,-0.020973689821150242,0.5524192126946975,-1.073559229136436
1.0546396116258507,-3.2989119117063552,-0.020874988688667922,0.5375910820138011,-1.1069339502851667
1.0498481062714524,-3.420860234703227,-0.020790275262621546,0.5228291179590066,-1.139858701801927
1.0450746271035292,-3.5394208225864645,-0.02071823924105947,0.5081325158082902,-1.172225944827407
1.0403164105448188,-3.654608630040748,-0.02065755692163981,0.493500592489805,-1.2039250686108836
1.0355709991997306,-3.766438469465605,-0.020606889557389003,0.478932793813329,-1.2348419879577348
1.030836245554501,-3.8749250415877654,-0.020564881270693773,0.46442870290109123,-1.264858711763708
1.026110316212737,-3.9800829681677854,-0.020530156483776655,0.4499880499686669,-1.2938528792273811
1.0213916967832322,-4.081926827131653,-0.020501316816265405,0.435610723630164,-1.3216972600402452
1.0166791975492977,-4.180471190500938,-0.020476937391860742,0.4212967839288208,-1.3482592145568038
1.011971960063301,-4.275730665545105,-0.020455562486370482,0.4070464773247784,-1.3734001096579656
1.0072694648269624,-4.3677199396367,-0.02043570043831339,0.39286025390650325,-1.3969746857599195
1.0025715402375306,-4.45645382935605,-0.020415817730659317,0.3787387871313509,-1.418830370218176
0.9978783730026628,-4.541947334467231,-0.020394332137755995,0.36468299644410684,-1.4388065322782704
0.9931905202531306,-4.62421569747282,-0.02036960481469807,0.3506940731696953,-1.4567336747984105
0.98850892361296,-4.703274469551907,-0.02033993118678505,0.33677351012669393,-1.4724325583146554
0.9838349255220213,-4.779139583794368,-0.02030353047355109,0.32292313545994566,-1.485713253781721
0.9791702881473447,-4.851827436764857,-0.02025853365407095,0.30914515123997577,-1.4963741217150237
0.9745172152678028,-4.921354979560547,-0.020202969646294495,0.2954421774182102,-1.5042007177924845
0.9698783775739506,-4.987739819664938,-0.020134749430681505,0.28181730175043307,-1.508964628700755
0.9652569418931392,-5.051000335039689,-0.020051647793764955,0.2682741362908579,-1.510422247790683
0.9606566049329597,-5.111155802027078,-0.01995128229475146,0.2548168809908177,-1.5083135089064794
0.9560816322388062,-5.168226538739638,-0.019831088958758177,0.24145039477055424,-1.502360609983914
0.9515369031917558,-5.222234065660864,-0.019688294059071975,0.22818027410963843,-1.492266777740959
0.9470279630434133,-5.273201285125737,-0.019519881143906508,0.2150129386284116,-1.4777151540324718
0.9425610832144886,-5.3211526811173115,-0.019322552151091476,0.2019557221678751,-1.4583679276246293
0.9381433314053653,-5.36611454029164,-0.019092680971720354,0.18901696630455153,-1.43386589868897
0.933782653531424,-5.408115194151826,-0.018826257062551727,0.17620611074053996,-1.4038287564886105
0.9294879701883421,-5.44718528056579,-0.01851881548598602,0.1635337711199943,-1.3678564867020215
0.9252692914134995,-5.483358019965706,-0.01816534777351474,0.15101178887930541,-1.3255325218197258
0.9211378551722047,-5.516669497004671,-0.017760184759483228,0.13865322885080697,-1.276429530025613
0.9171062976491893,-5.5471589313778225,-0.017296837179781113,0.12647228743748024,-1.220119133461468
0.9131888677086735,-5.574868910904449,-0.016767770998616757,0.11448405627231678,-1.1561873820801316
0.9094017048564418,-5.599845544656077,-0.016164079890354226,0.10270406330703473,-1.084258487704763
0.9057632114110847,-5.622138473085428,-0.015474993547533398,0.09114748825251533,-1.004030071771038
0.9022945681108254,-5.641800646553953,-0.014687122106896133,0.07982793321290901,-0.9153237314156366
0.8990204723601591,-5.658887758759825,-0.01378327572498542,0.06875565118598471,-0.8181543798964873
0.8959702266194862,-5.6734572134505115,-0.012740600280866708,0.057935259167811615,-0.7128190420526304
0.8931793832248227,-5.685566549038555,-0.011527603150989078,0.04736331116297351,-0.5999978582601815
0.89069228970445,-5.695271420192874,-0.010099297026164343,0.037026872787658885,-0.4808435582629967
0.8885661693797413,-5.702623665499679,-0.00838870579738916,0.02690569509760879,-0.35701003830347133
0.8868782069943246,-5.707670921813843,-0.006289227988842124,0.016983490242943523,-0.23054610228740027
0.8857405581194502,-5.7104617138559775,-0.0036033709231087403,0.0072842666451667995,-0.10358206266026043
