x,y,v_x,v_y,omega
2.375,32.48,0.0,2.3076923076923075,-4.571428571428571
2.3742507694370323,32.022984730072835,-0.0074923056296759515,2.262460391579299,-4.343320452921562
2.3720919634638866,31.5748747290809,-0.014095754101780772,2.2186396183400645,-4.131719606923162
2.368691482912731,31.135395295980334,-0.019909051409777036,2.1761547126655993,-3.935038775829532
2.3641986826966064,30.7042862117924,-0.025018950751467945,2.1349361292137163,-3.751874179580003
2.35874660091864,30.281300653620185,-0.029501867028194774,2.0949194525084307,-3.5809810353468348
2.3524538894916485,29.866204220500162,-0.033425247241722376,2.0560448786918095,-3.421252778497704
2.345426490953591,29.458774056083655,-0.0368487381388548,2.018256765473267,-3.27170335734192
2.337759098678498,29.058798055610655,-0.03982518461207428,1.9815032392567422,-3.131452092575896
2.329536431599172,28.66607414663542,-0.04240148618118495,1.9457358504955922,-2.9997106860499647
2.3208343495842554,28.280409634589816,-0.044619333967980325,1.9109092699604724,-2.8757720381391856
2.311720831522994,27.901620605603163,-0.04651584664463608,1.876981019906033,-2.759000592860347
2.3022568347915278,27.529531380096284,-0.04812412067002555,1.8439112351627622,-2.6488239781514507
2.292497051968312,27.163974011578247,-0.04947370756213011,1.811662450017614,-2.544725747874156
2.282490578325744,26.804787825834016,-0.05059102886355061,1.7801994074246958,-2.4462390640032754
2.2722815016649878,26.451818996327674,-0.05149973774401131,1.7494888876387182,-2.3529411835946243
2.261909424413236,26.1049201521823,-0.052221034773506675,1.7194995538150408,-2.264448636615671
2.2514099265125282,25.76395001555168,-0.052773944233570264,1.6902018124911637,-2.180412998479343
2.2408149764525978,25.428773065585446,-0.05317555636573544,1.6615676871711609,-2.1005171758484784
2.2301532968011335,25.099259226519404,-0.0534412401489065,1.633570703489271,-2.0244721365394462
2.219450689734063,24.775283577706332,-0.05358483052180154,1.6061857846414427,-1.9520140245977051
2.2087303273419425,24.456726083647,-0.05361879339940011,1.5793891559518671,-1.882901610206269
2.198013010866551,24.14347134229265,-0.05355437135451327,1.5531582575916574,-1.8169140313108836
2.187317402487913,23.8354083500741,-0.05340171243186899,1.5274716645938193,-1.753848789938882
2.176660232822726,23.532430282273065,-0.05316998421999955,1.502309013416531,-1.6935199713437434
2.1660564868991727,23.23443428749154,-0.05286747501553577,1.4776509343987567,-1.6357566584808756
2.1555296363473477,22.94132507409094,-0.052401030502714545,1.453441199607228,-1.5771690533123897
2.145100098770893,22.653010757397023,-0.05189434526182915,1.4297019673319216,-1.5212536115309307
2.1347754133135917,22.36939892135989,-0.051352509311183694,1.406416393039456,-1.4678567976268253
2.1245621516828894,22.090400441084856,-0.05078010699584137,1.3835684097108374,-1.416835572044091
2.114466014269507,21.815929331892878,-0.050181267137983286,1.3611426822089414,-1.3680565590319875
2.104491916760613,21.545902607183777,-0.04955970795095511,1.3391245648820784,-1.3213952893742489
2.094644068235433,21.28024014448239,-0.048918777300846476,1.317500062131763,-1.2767355104635467
2.0849260416223827,21.018864559099278,-0.04826148882965427,1.2962557916993758,-1.2339685570261416
2.0753408373000934,20.76170108488434,-0.04759055439323798,1.275378950450011,-1.1929927765371091
2.0658909405393544,20.50867746159406,-0.04690841321415174,1.2548572824527884,-1.1537130040134826
2.056578373407641,20.25972382843122,-0.04621725810298381,1.2346790491756297,-1.116040081442713
2.0474047416912273,20.014772623350733,-0.04551905906115393,1.2148330016292168,-1.079890417606945
2.0383712773308673,19.77375848775683,-0.04481558454244381,1.1953083543098124,-1.0451855845083036
2.0294788768147023,19.536618176245447,-0.04410842061920842,1.1760947608040315,-1.0118519469940255
2.0207281359256144,19.303290471071975,-0.04339898827166862,1.1571822909307055,-0.9798203225292562
2.012119381199004,19.07371610104832,-0.04268855899443292,1.1385614093058098,-0.9490256683751229
2.003652698410259,18.84783766459512,-0.04197826889301676,1.1202229552261926,-0.9194067937051139
1.995327958378532,18.625599556694837,-0.04126913142425846,1.1021581237766485,-0.8909060944379525
1.9871448403443202,18.406947899509888,-0.04056204891785869,1.0843584480728463,-0.8634693087836716
1.9791028531523822,18.19183047644662,-0.03985782300152091,1.0668157825598232,-0.8370452916946157
1.9712013544483191,17.98019666946141,-0.03915716403910956,1.0495222872922851,-0.8115858065873605
1.963439568076442,17.77199739941929,-0.038460699679662876,1.0324704131288849,-0.7870453328574409
1.9558165998479935,17.567185069328602,-0.0377689826048215,1.0156528877780293,-0.7633808878484252
1.9483314518322008,17.36571351028703,-0.03708249755310481,0.9990627026376665,-0.7405518620620881
1.9409882231812459,17.167719263775695,-0.036349788956444765,0.9808797624756984,-0.7545008400982158
1.9337882255440688,16.97334973423862,-0.03565018741532668,0.9628155328950393,-0.7704210073944632
1.9267248720626728,16.782581508317413,-0.0349833473986322,0.9448667263170124,-0.7881910073732497
1.919791654069328,16.595391816800536,-0.0343488325348152,0.9270301888517999,-0.8076925085553631
1.9129821584463134,16.411758508402823,-0.03374612369533161,0.909302895125315,-0.8288099393570024
1.906290083435016,16.23166002453432,-0.03317462641764186,0.8916819435597112,-0.8514302301200211
1.8997092530218758,16.055075374969142,-0.03263367771376228,0.874164552092072,-0.8754425613161284
1.8932336300198633,15.881984114328066,-0.032122552306361,0.8567480543186882,-0.9007381168859022
1.8868573279561622,15.71236631929068,-0.031640468330651,0.8394298960551723,-0.9272098416862096
1.8805746218694173,15.54620256645461,-0.03118659253679826,0.8222076323055274,-0.9547522020250117
1.8743799581133165,15.383473910760436,-0.030760045024207955,0.8050789246362066,-0.98326094826046
1.8682679632573107,15.224161864401395,-0.030359903535849716,0.7880415389542051,-1.0126328784315246
1.862233452169955,15.06824837613684,-0.02998520733770737,0.7710933436913642,-1.0427656018698943
1.856271435365638,14.915715810927665,-0.029634960705463276,0.7542323084003631,-1.0735573017172582
1.8503771256913288,14.766546929810488,-0.02930813603762676,0.737456502771399,-1.1049064952379366
1.8445459444264198,14.620724869925116,-0.029003676611463733,0.7207640960823292,-1.1367117907737334
1.8387735268657481,14.478233124606966,-0.028720498995253856,0.7041533570991626,-1.1688716401353
1.8330557274534662,14.339055523452224,-0.028457495127565086,0.6876226544482694,-1.2012840851616677
1.8273886245335733,14.203176212258732,-0.028213534071363816,0.6711704574866348,-1.2338464971062546
1.8217685247816529,14.070579632739872,-0.027987463447842285,0.6547953377019694,-1.2664553074229201
1.8161919673816875,13.941250501901614,-0.027778110551810214,0.638495970680613,-1.2990057284287926
1.8106557280117737,13.81517379096475,-0.027584283147330142,0.6222711386880333,-1.3313914622109606
1.805156822703147,13.692334703704503,-0.027404769938937205,0.6061197339144418,-1.363504396021029
1.7996925116382299,13.572718654068382,-0.027238340710232352,0.5900407624467667,-1.3952342822645036
1.794260302955424,13.456311242919895,-0.027083746117827042,0.5740333490380827,-1.426468401040703
1.7888579566311917,13.34309823374041,-0.026939717124495676,0.5580967427567802,-1.4570912030234844
1.7834834885136521,13.233065527103687,-0.02680496405090174,0.5422303236104391,-1.4869839302942292
1.778135174586528,13.126199133717265,-0.026678175220339592,0.526433610253768,-1.516024212547796
1.772811555547944,13.022485145801259,-0.026558015165501166,0.5107062689063041,-1.5440856358924133
1.7675114417953688,12.921909706548224,-0.026443122360250093,0.49504812362405926,-1.571037281260473
1.7622339189160774,12.8244589773768,-0.026332106432663597,0.47945916809018985,-1.5967432292463843
1.7569783537920043,12.730119102656456,-0.026223544808066372,0.46393957911325556,-1.6210620280013621
1.7517444014389691,12.638876171540343,-0.026115978722285698,0.44848973204789033,-1.6438461206601127
1.746532012713168,12.550716176497374,-0.02600790853572525,0.4331102183817932,-1.6649412286754761
1.7413414430328094,12.465624968082718,-0.02589778826786073,0.417801865764763,-1.6841856874298955
1.7361732622801123,12.383588205427273,-0.025784019259109725,0.4025657607896735,-1.7014097306285036
1.7310283660689687,12.304591301861205,-0.025664942852328315,0.387403274870993,-1.7164347203311983
1.725907988586846,12.228619365013888,-0.02553883196889745,0.37231609360219065,-1.7290723201553753
1.7208137172465845,12.155657130653012,-0.025403881433718696,0.3573062500065536,-1.73912361032673
1.715747509415379,12.08568888944012,-0.025258196878336393,0.34237616212236005,-1.746378145086002
1.7107117115255246,12.018698405690252,-0.025099782020206112,0.3275286753763188,-1.7506129557785717
1.7057090809158666,11.95466882713379,-0.024926524076376227,0.31276711018828707,-1.7515915071944856
1.7007428108064513,11.89358258459501,-0.024736177017777243,0.2980953151995107,-1.749062621006564
1.6958165588746636,11.835421280434893,-0.02452634230009768,0.28351772640165807,-1.7427593893556257
1.6909344799836783,11.780165564571927,-0.024294446609755507,0.2690394322280156,-1.7323981150141667
1.686101263720265,11.727794996919489,-0.024037716024378427,0.25466624429636664,-1.7176773339216314
1.681322177539462,11.678287895201507,-0.02375314578365025,0.2404047728834645,-1.6982770037901624
1.6766031165049096,11.631621167388865,-0.02343746456187446,0.2262625052429628,-1.673857982573148
1.6719506608817651,11.587770128526948,-0.023087091669570695,0.21224788337618383,-1.644061978012624
1.6673721432254567,11.546708302631782,-0.022698084893512584,0.19837037557548487,-1.6085122314088165
1.6628757271800412,11.508407211811328,-0.022266075560642716,0.18464053262905009,-1.566815314990118
1.6584705010603937,11.472836157095792,-0.021786185635831682,0.17107001452630105,-1.5185645857402519
1.6541665906126206,11.43996199901973,-0.021252918841899587,0.15767156623431028,-1.4633460652544887
1.6499752973991781,11.409748951299026,-0.020660013292525183,0.14445891097271077,-1.400747822396285
1.6459092724739515,11.3821584086086,-0.02000023595974191,0.13144651593153123,-1.3303743355760753
1.6419827400865499,11.3571488401235,-0.01926508791427247,0.11864916891948193,-1.2518677958879652
1.6382117941610634,11.33467579446273,-0.018444371340592524,0.10608128768821143,-1.1649388151829947
1.63461480288893,11.314692078214712,-0.01752554138074297,0.09375587479197187,-1.069409325057939
1.6312129764730625,11.297148185802236,-0.01649272277793214,0.08168304933280449,-0.9652701202827426
1.6280311837308354,11.281993063531448,-0.015325204644338399,0.06986817337508026,-0.8527535519153957
1.6250991514862898,11.269175264324225,-0.013995117801115644,0.058309818697154,-0.7324166718825571
1.62245326076801,11.258644452272481,-0.012463789381682333,0.04699830182028124,-0.6052196174877273
1.6201393080501223,11.250352981860491,-0.010675737797196555,0.03591640229960391,-0.4725674625740599
1.618216982566084,11.244256793815818,-0.008547517043187078,0.025045478147127577,-0.33626583642967783
1.6167680913270366,11.24031381249348,-0.005941395347284285,0.014384335076251826,-0.19833491818703836
1.6159167821534572,11.23847422661164,-0.002571696388510363,0.0040115237421589085,-0.06065574892612874
