x,y,v_x,v_y,omega
2.375,32.48,0.0,2.871794871794872,-5.551020408163265
2.373694630578075,31.883944602073047,-0.012432089732619512,2.8049232036999032,-5.202051881755114
2.3699679571442687,31.30164637672419,-0.02306003820839199,2.7407741805749137,-4.885875179086889
2.3641724917436986,30.73255275058516,-0.03213487036846714,2.679165115987272,-4.598478913479469
2.3566120295223545,30.176147669270016,-0.03986953173957346,2.6199308965379142,-4.336435107048465
2.347548971787945,29.631948150619873,-0.04644530382622976,2.562921662034859,-4.096801893142207
2.337210428260693,29.099501283420828,-0.05201701548093043,2.5080008827179627,-3.8770445045160242
2.325793324912272,28.57838159688169,-0.056717302123078434,2.4550437509880982,-3.6749707137666245
2.3134686970585396,28.068188741423093,-0.06066010600770738,2.4039358248080864,-3.4886777824942867
2.3003853113682213,27.56854543300094,-0.06394356723341828,2.354571874450535,-3.316508638383275
2.2866727324446834,27.07909562220287,-0.06665242251456421,2.306854895054845,-3.157015498220043
2.2724439276659116,26.599502856388764,-0.06886000394992783,2.260695255555724,-3.0089295340258304
2.257797486594756,26.129448808683396,-0.07062991101345639,2.216009960685869,-2.871135470266351
2.2428195174379506,25.66863195202883,-0.07201741428945539,2.1727220074528626,-2.7426502249519933
2.2275852719468263,25.216766360029137,-0.07307063800696482,2.1307598211156367,-2.622604882626302
2.212160541217315,24.773580619168687,-0.07383155941695639,2.0900567585077003,-2.510229424683421
2.1966028576062024,24.33881683930465,-0.07433685592696865,2.050550668768834,-2.4048397509851482
2.1809625320844486,23.912229751237554,-0.07461862523259197,2.0121835032987505,-2.3058266129618845
2.1652835515251683,23.493585881736216,-0.0747049991415077,1.9749009681425724,-2.212646147250591
2.1496043564617837,23.08266279770162,-0.07462066812882019,1.9386522131392874,-2.1248117542234826
2.1339585165842534,22.67924841224952,-0.0743873307048026,1.9033895530711697,-2.0418871103839313
2.1183753185365473,22.28314034641404,-0.07402407927335089,1.8690682167905532,-1.963480139778129
2.102880278331939,21.89414534095595,-0.07354773219910826,1.83564612090553,-1.8892377990198885
2.0874955888304956,21.512078713424817,-0.07297312019559249,1.8030836651052684,-1.8188415545993595
2.072240511158157,21.13676385619369,-0.07231333382667972,1.7713435466197518,-1.752003450901965
2.0571317176347446,20.76803177167492,-0.07157993782486793,1.7403905916542683,-1.6884626836357801
2.042183592675146,20.405720641348687,-0.07078315702845325,1.710191601928874,-1.6279826068152332
2.0274084971980573,20.04967542560292,-0.06993203799143763,1.6807152146974926,-1.5703481126031902
2.012817001290789,19.699747491702695,-0.06903458969683325,1.651931774828471,-1.5153633325936176
1.9984180892128398,19.355794267486708,-0.068097906283632,1.623813217704757,-1.4628496168617138
1.9842193402555544,19.017678918633177,-0.06712827426194425,1.5963329618526656,-1.412643753590762
1.9702270884939284,18.68527004755319,-0.06613126632496959,1.5694658103376773,-1.3645963975261484
1.9564465640561581,18.358441412159614,-0.06511182355855694,1.543187860077331,-1.31857068008671
1.9428820181856283,18.03707166292812,-0.06407432758934634,1.5174764183178389,-1.2744409778283998
1.9295368340694998,17.721044096816232,-0.06302266399282873,1.4923099256049084,-1.2320918192250525
1.9164322368352793,17.410249986584194,-0.06178302395212918,1.467633981366889,-1.1864384306057885
1.9035868938135403,17.104584576451455,-0.06055357625491019,1.4434651627544408,-1.1429508129482222
1.8909984805222657,16.803943336133937,-0.05933607413818126,1.4197847450314376,-1.1014998947329482
1.8786643323605834,16.50822557380109,-0.05813200359212495,1.3965748962337636,-1.0619657579957305
1.8665814973929271,16.21733425422154,-0.056942615147459685,1.3738186235714753,-1.0242368863715692
1.8547467828490016,15.931175827759827,-0.0557689519375449,1.3514997236829471,-0.9882094831425233
1.8431567960743314,15.649660069449318,-0.054611874487886604,1.329602736417141,-0.9537868520202231
1.8318079805771879,15.372699927431121,-0.0534720826277655,1.3081129018514013,-0.9208788342255508
1.8206966477400672,15.100211380107321,-0.052350134868621105,1.2870161202800177,-0.8894012961557344
1.8098190046960638,14.832113301409887,-0.051246465550458614,1.266298914933641,-0.8592756625671019
1.7991711788111715,14.56832733363461,-0.05016140001994545,1.2459483972118404,-0.8304284907619781
1.7887492391615991,14.308777767333115,-0.049095168071220094,1.225952234230969,-0.8027910817609236
1.778549215349655,14.053391427795592,-0.048047915852056484,1.2062986185073346,-0.7762991248755237
1.76856711396179,13.802097567693096,-0.0470197164133239,1.1869762396116825,-0.750892372479815
1.758798932937285,13.5548277654811,-0.04601057905815192,1.1679742576454033,-0.7265143421166957
1.7492406740851947,13.31151582919614,-0.04502045762842228,1.1492822784018526,-0.7031120433749366
1.7398883539599819,13.072097705304717,-0.0440492578497958,1.1308903300878779,-0.6806357272375585
1.73073801328233,12.836511392288912,-0.04309684384212617,1.112788841491221,-0.6590386558375766
1.7217857250705049,12.604696858675986,-0.04216304388954215,1.0949686214890326,-0.6382768907660842
1.7130276016289896,12.37659596524049,-0.041247655553460424,1.0774208398013967,-0.618309098263535
1.7044598005246534,12.152152391126673,-0.0403504502021225,1.0601370089016218,-0.5990963697906417
1.696078529666146,11.931311563656774,-0.0394711770217559,1.0431089670021887,-0.580602056622949
1.6878800515893277,11.714020591607163,-0.03860956656699175,1.0263288620417286,-0.5627916172449516
1.6798606870401256,11.50022820174933,-0.03776533390159872,1.009789136604308,-0.5456324764374673
1.6720168179361035,11.28988467846657,-0.0369381813748028,0.9934825137076709,-0.5290938950574164
1.6643518628546634,11.083085488147525,-0.03606139082938767,0.9760335845689557,-0.5405948661903378
1.656866946505614,10.879938159023578,-0.03522352678060565,0.9587028832781606,-0.5541754972026329
1.649553942219072,10.680418214677378,-0.03442413309122396,0.9414870628761371,-0.5697168183602735
1.642404828098331,10.484501867426648,-0.03366266805868936,0.9243829109403399,-0.5871032507001515
1.6354117041377942,10.292165990676953,-0.0329385125178523,0.9073873438186456,-0.6062223427403244
1.6285668077094893,10.103388092437626,-0.032250977275528635,0.8904974013178073,-0.6269645163271754
1.6218625275533802,9.918146289907533,-0.03159930992550865,0.8737102418259469,-0.6492228205737481
1.6152914163969014,9.736419285041432,-0.030982701088573917,0.8570231378512124,-0.672892692879125
1.6088462023201795,9.558186341011112,-0.030400290118302066,0.8404334719613653,-0.697871726047274
1.6025197989752185,9.383427259478445,-0.029851170309898825,0.8239387331116496,-0.7240594405454628
1.5963053147598525,9.212122358599881,-0.02933439364596859,0.8075365133508595,-0.7513570609572193
1.5901960610404764,9.044252451683743,-0.028848975109993024,0.7912245048980869,-0.7796672956929167
1.58418555951142,8.879798826422995,-0.02839389659530735,0.7750004975852288,-0.8088941190223362
1.5782675487732878,8.71874322462693,-0.027968110434522218,0.7588623766629993,-0.8389425544878866
1.5724359902076437,8.561067822375367,-0.027570542571611744,0.7428081209709484,-0.8697184587443461
1.5666850732210178,8.406755210518554,-0.02720009539625311,0.7268358014748835,-0.901128304850781
1.5610092199273806,8.255788375444986,-0.026855650257436612,0.7109435801781536,-0.9330789640123504
1.5554030893349111,8.108150680037543,-0.026536069670844473,0.6951297094165408,-0.9654774847336154
1.5498615811001124,7.96382584473605,-0.026240199231998478,0.6793925315500474,-0.9982308683002655
1.5443798389100616,7.822797928621078,-0.025966869244675915,0.6637304790687396,-1.0312458394522825
1.5389532535518564,7.685051310429785,-0.025714896071565276,0.648142075134057,-1.0644286110478745
1.5335774657271293,7.55057066940963,-0.025483083211550378,0.6326259345817029,-1.097684641443336
1.528248368668855,7.4193409659097185,-0.025270222105345533,0.6171807654174718,-1.1309183832285794
1.5229621106176094,7.291347421602346,-0.02507509266842381,0.6018053708432314,-1.1640330218606647
1.5177150972149633,7.166575499218833,-0.02489646354725194,0.5864986518568747,-1.1969302026274629
1.51250399387287,7.045010881673726,-0.024733092091731745,0.5712596104774983,-1.2295097442498384
1.5073257281797303,6.926639450439762,-0.024583724033408798,0.5560873536554914,-1.2616693372928338
1.5021774924064055,6.811447263022572,-0.024447092855398755,0.5409810979367827,-1.2933042254037848
1.4970567461788034,6.699420529368268,-0.02432191883605043,0.5259401749613623,-1.3243068672280047
1.4919612193878922,6.590545587019026,-0.02420690774405495,0.5109640378885699,-1.354566576671018
1.4868889154131808,6.484808874810874,-0.024100749157958144,0.4960522688557226,-1.383969138981517
1.48183811474193,6.382196904883791,-0.02400211437776536,0.4812045875926796,-1.4123963999236369
1.4768073790737664,6.282696232746581,-0.02390965389045896,0.46642086133315286,-1.4397258250949159
1.4717955560090767,6.186293425107259,-0.023821994344680707,0.45170111618421205,-1.4658300262341062
1.4668017844297285,6.09297502514335,-0.02373773498244659,0.43704555013873714,-1.4905762511610943
1.4618255006924925,6.002727514844899,-0.023655443467420212,0.422454547941743,-1.5138258338150927
1.4568664457692342,5.915537274015698,-0.023573651039799456,0.40792869805064147,-1.5354336007298768
1.4519246734837647,5.831390535464411,-0.023490846917052235,0.39346881196159855,-1.555247230239653
1.447000560013509,5.750273335856509,-0.023405471847289284,0.3790759462088872,-1.5731065607946633
1.4420948148452446,5.672171461629585,-0.023315910707610372,0.36475142738084954,-1.588842845051762
1.4372084933985523,5.597070389298587,-0.02322048402279167,0.35049688053340755,-1.6022779469923127
1.4323430115589146,5.524955219393725,-0.023117438259472746,0.33631426141764403,-1.613223480351654
1.4275001623953867,5.455810603183245,-0.023004934726505184,0.32220589296788815,-1.621479888326947
1.4226821353765153,5.389620661237576,-0.022881036881793028,0.30817450651466594,-1.626835467158103
1.4178915384441448,5.326368892794335,-0.022743695807451787,0.29422328818287874,-1.6290653401716881
1.4131314233600525,5.266038074791236,-0.02259073356485511,0.28035593089424476,-1.627930394844952
1.4084053148080193,5.2086101493568115,-0.022419824073557273,0.2665766922907557,-1.6231762042538869
1.4037172438185315,5.154066098503122,-0.02222847106442128,0.25289045869675364,-1.6145319671605183
1.399071786191783,5.102385804776823,-0.022013982523660405,0.2393028148870467,-1.6017095197573037
1.394474106737683,5.053547896734841,-0.021773440848720606,0.22582011884610556,-1.5844024992821872
1.3899300103460208,5.007529578380328,-0.02150366764329852,0.21244957976828638,-1.5622857790073632
1.3854460011723644,4.964306442215829,-0.021201181629620838,0.1991993360840791,-1.5350153506880977
1.3810293516181793,4.923852266482147,-0.02086214745785353,0.18607852804621566,-1.5022289117400693
1.376688183365325,4.886138798656297,-0.020482312093140047,0.17309735600948908,-1.4635475302621543
1.3724315636056537,4.851135529673293,-0.020056923713255126,0.16026711049531586,-1.4185789249541114
1.3682696209641054,4.818809467025584,-0.019580625253870276,0.14760015281619204,-1.3669231258107215
1.3642136877362754,4.78912492043187,-0.019047310249272628,0.13510981474299164,-1.3081815937485575
1.3602764784123222,4.762043321834916,-0.01844992140742402,0.12281017189466271,-1.2419712872123134
1.356472319778158,4.7375231127927115,-0.017780160822711236,0.1107156285072789,-1.167945664770278
1.3528174563385382,4.715519747263912,-0.01702806241176373,0.09884023367175335,-1.085825139265425
1.3493304682037632,4.695985875592047,-0.01618134839561695,0.08719663939363222,-0.995439846143435
1.3460328596886137,4.6788717923705505,-0.015224446986759229,0.07579462938253627,-0.8967872598525426
1.3429499099754814,4.664126236359003,-0.014136978852597046,0.06463923739410106,-0.7901051662732403
1.3401119296416673,4.651697601464328,-0.012891405278965309,0.05372871398374339,-0.6759550190764725
1.3375561548607493,4.641535509709573,-0.011449306920252745,0.04305311225201706,-0.5552995744746576
1.3353296836054303,4.6335924359264595,-0.00975518122564365,0.03259520949192023,-0.42954121244932364
1.333494298671367,4.627824531327047,-0.007724675289245563,0.0223372152643862,-0.3004688686632999
1.3321355555728032,4.624189567923956,-0.005215735173265514,0.012281483812682679,-0.17005696576991355
1.3313865116663806,4.622635085751298,-0.0019180163164728339,0.002523108307867755,-0.040097513504824406
