x,y,v_x,v_y,omega
2.375,32.48,0.0,2.2564102564102564,-2.612244897959184
2.3744277399467664,31.966509866018782,-0.004976174375945423,2.208721343426404,-2.467913752938743
2.372785822418898,31.46380044298343,-0.00930136934465147,2.1626649438375245,-2.3352632691960604
2.370214745787473,30.97150673705047,-0.013055818754694649,2.118149890362138,-2.2130506891637958
2.3668377861388734,30.489283926526596,-0.016309047754865174,2.075091940280208,-2.100190605157376
2.3627632793547213,30.016805848473265,-0.019121446020370438,2.0334130862705138,-1.995732226199793
2.3580865705525644,29.553763633764724,-0.02154558704186469,1.9930409546733372,-1.8988403143509778
2.352891684133591,29.099864472070877,-0.023627338340512317,1.953908277447063,-1.8087791371539061
2.347252758359711,28.654830491098696,-0.025406798823659305,1.9159524266588408,-1.7248989100806305
2.3412352808388026,28.21839773676052,-0.026919092662501663,1.8791150023688072,-1.6466243031722987
2.33489715516388,27.790315242856003,-0.02819504364117351,1.8433414663661163,-1.5734446655999612
2.328289623942962,27.370344180442462,-0.029261749584202704,1.8085808154907583,-1.5049056852816671
2.3214580693481173,26.958257078391426,-0.030143072979661956,1.7747852893008607,-1.44060225150734
2.3144427089292434,26.553837107739106,-0.030860061097503458,1.7419101076758394,-1.3801723294453905
2.307279201642084,26.156877423374716,-0.03143130661692394,1.7099132346231853,-1.323291688511155
2.299999176720932,25.767180557405084,-0.031873257914834564,1.6787551651127655,-1.269669353475794
2.292630696096551,25.384557859211593,-0.03220048664500125,1.6483987322219176,-1.2190436691386215
2.2851986594487883,25.008828977796583,-0.032425918987714984,1.6188089322564203,-1.1711788873579372
2.2777251596343486,24.63982138251647,-0.03256103592045569,1.589952765831544,-1.1258622000086662
2.2702297950974315,24.2773699187318,-0.03261604700925981,1.5617990931655794,-1.0829011536216064
2.2627299449171234,23.921316395280307,-0.03260004151515865,1.534318502064776,-1.0421213915455536
2.255241011340178,23.571509201006705,-0.032521120023499585,1.5074831872709114,-1.0033646778487981
2.2477766339662755,23.227802947869783,-0.032386509314781424,1.4812668400066704,-0.9664871641522426
2.24036372550055,22.890059800435534,-0.03207356430022061,1.4556300942041993,-0.928163796875296
2.2330261855450644,22.55814740287807,-0.0317311309648754,1.4305646671650591,-0.8917978342294492
2.22577030838969,22.231936933779174,-0.031363452994900676,1.4060481076079525,-0.8572640614311763
2.2186014668270504,21.911304604245558,-0.03097429972370401,1.3820591057278095,-0.8244467873062271
2.21152421517317,21.596131403738134,-0.03056701900569002,1.3585774204237238,-0.7932390063207181
2.204542380839475,21.286302862001353,-0.030144583896006494,1.3355838120700183,-0.763541644085803
2.197659145791866,20.98170882587447,-0.02970963390928913,1.3130599803376455,-0.7352628770693006
2.190877119066652,20.682243249873963,-0.029264511527354587,1.2909885066233235,-0.7083175183801201
2.184198401369205,20.387803999533133,-0.028811294537403546,1.2693528006882406,-0.6826264624728995
2.1776246426561734,20.098292666572018,-0.028351824706345955,1.2481370511475307,-0.6581161824726991
2.171157093493323,19.81361439504908,-0.0278877332314867,1.2273261794867059,-0.6347182745612633
2.1647966508862857,19.53367771771719,-0.027420463351444546,1.2069057973123585,-0.612369044512835
2.158543899198832,19.25839440187046,-0.026951290452500037,1.1868621665721972,-0.591009132032014
2.152399146700996,18.98767930402667,-0.026481339963464013,1.1671821625042653,-0.5705831690399137
2.146362458226194,18.721450232842486,-0.026011603295684103,1.147853239097361,-0.5510394684875001
2.140433684361077,18.459627819706867,-0.02554295205316184,1.1288633968645425,-0.5323297406546645
2.1346124875432837,18.20213539650126,-0.025076150710258854,1.110201152749429,-0.5144088342273089
2.1288983653995905,17.948898880054955,-0.0246118679305486,1.0918555120010285,-0.49723449973851835
2.123290671619432,17.699846662860104,-0.024150686679527522,1.0738159418672406,-0.4807671732189345
2.117788634625729,17.4549095096438,-0.023693113265715826,1.056072346970185,-0.4649697781301597
2.1123913742758607,17.214020459424834,-0.023239585428793008,1.0386150462382238,-0.44980754385727423
2.1070979167999044,16.97711473271022,-0.022790479579518987,1.021434751280157,-0.4352478392156316
2.101907208160597,16.744129643511886,-0.02234611728402326,1.004522546096652,-0.4212600195858938
2.0968181259993814,16.515004515887014,-0.021906771074374862,0.9878698680326595,-0.4078152864322593
2.091832943860199,16.28978879093695,-0.02144263883155889,0.970527740228781,-0.41377143626620116
2.0869520552185037,16.06854692373872,-0.020999871096224882,0.9533145832341043,-0.42212630704459225
2.0821704642198764,15.851249696503348,-0.020579181065754133,0.9362265231604329,-0.43274946230368627
2.0774830297848177,15.63786876404323,-0.020181118369539643,0.9192598460579775,-0.4455146744890754
2.0728845016526476,15.428376617858024,-0.01980608277976257,0.9024109903351035,-0.46029962274686964
2.068369553396386,15.222746551899267,-0.01945433683990492,0.8856765397410552,-0.4769856029210694
2.0639328126481846,15.02095262988772,-0.019126017492282543,0.8690532168810807,-0.4954572485336142
2.0595688887569676,14.82296965406417,-0.018821146779167207,0.8525378772367462,-0.515602261576433
2.055272398083489,14.62877313526019,-0.018539641685867435,0.836127503667433,-0.537311151989419
2.051037987122948,14.438339264180645,-0.01828132318840038,0.8198192013720896,-0.5604769847349045
2.04686035363153,14.251644883794125,-0.018045924563061526,0.803610193293292,-0.5849951334081106
2.0427342659206,14.068667462731309,-0.017833099010240185,0.7874978159485854,-0.6107630393443322
2.0386545804708,13.889385069594372,-0.017642426640194494,0.7714795156769662,-0.6376799751973101
2.0346162580078007,13.713776348083027,-0.017473420864150557,0.7555528452912484,-0.665646811969318
2.0306143781719745,13.541820492844586,-0.017325534229989968,0.7397154611299847,-0.6945657884718126
2.026644152905667,13.373497225956495,-0.01719816373790261,0.7239651205056015,-0.7243402821858591
2.0227009386740256,13.208786773950273,-0.017090655667673985,0.7082996795485195,-0.7548745804736412
2.0187802476284857,13.047669845285409,-0.01700230994571512,0.692717091450283,-0.7860736510658255
2.0148777578159316,12.890127608180723,-0.016932384076495832,0.67721540511219,-0.8178429107138592
2.0109893225312714,12.736141668708715,-0.016880096659676457,0.6617927642096256,-0.8500879908508784
2.0071109789066535,12.585694049055679,-0.01684463051091567,0.6464474066863354,-0.8827144990490844
2.00323895582678,12.438767165846564,-0.01682513540102914,0.631177664697286,-0.9156277749944164
1.9993696812568038,12.295343808428658,-0.016820730424849797,0.6159819650236324,-0.9487326396202058
1.9954997890670538,12.155407117002238,-0.016830506007758414,0.6008588299887293,-0.9819331359492275
1.9916261254374088,12.01894056047886,-0.016853525554372938,0.585806878910191,-1.0151322600870483
1.9877457549235256,11.885927913939256,-0.01688882674026393,0.5708248301298371,-1.0482316806876277
1.9838559662673634,11.756353235552147,-0.016935422443754646,0.5559115036710881,-1.0811314450734726
1.9799542780355877,11.630200842803024,-0.0169923013108166,0.5410658245821626,-1.1137296700360197
1.976038444171545,11.50745528786723,-0.01705842794172809,0.5262868270334379,-1.1459222151660815
1.9721064595496482,11.388101331944775,-0.01713274268346116,0.5115736592487882,-1.177602336368045
1.9681565656252877,11.272123918354325,-0.017214161006630774,0.49692558936382664,-1.2086603169942913
1.9641872562789022,11.159508144160796,-0.01730157244019905,0.48234201231902735,-1.2389830737977174
1.9601972839597275,11.050239230084117,-0.017393839030886406,0.4678224579129772,-1.268453734640894
1.9561856662431363,10.94430248840563,-0.017489793287297307,0.4533666001608405,-1.296951184622173
1.952151692925582,10.841683288552659,-0.017588235561001215,0.43897426812586804,-1.3243495769859148
1.9480949337931375,10.742367020000135,-0.017687930808081453,0.4246454584178264,-1.3505178048828312
1.9440152472137546,10.646339052080162,-0.01778760466481237,0.410380349581941,-1.3753189297486483
1.9399127897199067,10.553584690235134,-0.01788593875995371,0.3961793186356945,-1.398609561792722
1.9357880267675682,10.464089128186409,-0.017981565173423253,0.3820429600488715,-1.4202391878602565
1.931641744879924,10.37783739541775,-0.018073059936528146,0.3679721075046943,-1.4400494417934997
1.9274750654102288,10.294814299289655,-0.018158935452123163,0.3539678588265631,-1.4578733124297856
1.92328946018848,10.215004361006518,-0.018237631693518677,0.3400316045050784,-1.47353428462765
1.9190867693516556,10.138391744552539,-0.018307506017998715,0.3261650603121158,-1.4868454093384906
1.9148692216981873,10.064960177594568,-0.01836682140346481,0.31237030453981,-1.4976082999335343
1.9106394579551758,9.994692863221054,-0.018413732883590453,0.29864982044725275,-1.50561205403619
1.9064005574032399,9.9275723812489,-0.018446271915853373,0.2850065445279976,-1.5106321034097818
1.9021560683709775,9.863580577688658,-0.018462328364689404,0.271443921213246,-1.5124289996111653
1.897910043191957,9.802698440822802,-0.01845962971374895,0.25796596457681564,-1.5107471510201216
1.8936670783165601,9.744905962236956,-0.01843571702883289,0.24457732747401362,-1.5053135387776553
1.8894323603959249,9.690181981076005,-0.018387917063646873,0.23128337827338502,-1.4958364569947846
1.8852117193166058,9.638504009817428,-0.018313309713040914,0.21809028484467874,-1.4820043490823782
1.8810116893796922,9.589848040028915,-0.018208689738382314,0.20500510462065905,-1.4634848512325818
1.8768395801148765,9.544188327009032,-0.018070521260014252,0.1920358781609382,-1.4399242118300992
1.8727035586436886,9.501497153056945,-0.017894882837271957,0.17919172142243062,-1.410947340396619
1.8686127461314004,9.46174457062098,-0.017677399878276767,0.16648290845552438,-1.376158863738535
1.8645773318174652,9.424898129096867,-0.017413159373334493,0.1539209308845667,-1.3351457472689312
1.8606087095952195,9.390922593112535,-0.01709659908097628,0.1415185124574569,-1.2874822987684207
1.856719644465433,9.359779666492013,-0.016721358569341045,0.12928954511228954,-1.2327387382214294
1.8529244799852762,9.33142774572553,-0.01628007169289221,0.11724889633538886,-1.1704950194608814
1.8492394040187656,9.305821740850309,-0.01576406714633054,0.10541201562305164,-1.1003622403331443
1.845682800215397,9.282913021164976,-0.015162922448179017,0.09379424251027163,-1.022014733084828
1.8422757292033385,9.262649567980908,-0.014463782004503427,0.08240969822074942,-0.9352365835824807
1.839042610466663,9.244976442836936,-0.013650293966587125,0.07126965085725856,-0.8399863217966154
1.8360122196437278,9.229836694548489,-0.012700930580675378,0.060380334259691554,-0.7364815685411091
1.833219187481615,9.217172800823239,-0.011586305611609971,0.049740480742476514,-0.6252990734554927
1.83070630959716,9.206928605595763,-0.010264806427129403,0.039339477757294655,-0.5074713745913801
1.8285282223953636,9.199051357111124,-0.0086750822841441,0.02915833515261744,-0.38453731056890694
1.8267576539916521,9.19349266635109,-0.006721164704650369,0.019178106238960786,-0.25847652421782974
1.8254979237110713,9.190205291176628,-0.004233011648227418,0.009407764843309978,-0.13145005903278018
1.8249207239866865,9.189123424914921,-0.0007861163899015589,-2.321328103870035e-07,-0.005345252465922989
