x,y,v_x,v_y,omega
2.375,32.48,0.0,3.230769230769231,-2.8571428571428577
2.374435197090458,31.90498963658749,-0.006275587883802313,3.1582348071475117,-2.683736054712728
2.3728209993096328,31.342786511909303,-0.011659943014255133,3.088466578165702,-2.5260098472725265
2.370306958005797,30.792907764933474,-0.01627384925058238,3.0212972771212514,-2.3821208118685973
2.3670224777021303,30.254899419838154,-0.020220376345715434,2.9565732239378946,-2.2504817368145265
2.363079748206351,29.7283340679477,-0.0235877291629441,2.8941529081782478,-2.129721185815446
2.358576208951419,29.212808788089017,-0.026451595891856562,2.8339057569182273,-2.018650155943182
2.3535966271259583,28.707943274753337,-0.028877091057706826,2.7757110579226567,-1.9162344643764588
2.3482148556942737,28.213378148261597,-0.03092036929434267,2.719457014207811,-1.8215717843693306
2.342495325117152,27.728773425040192,-0.03262997045145679,2.6650399104744595,-1.7338724719480407
2.3364943127652475,27.253807129315625,-0.03404794456970114,2.61236337535405,-1.6524434970265207
2.3302610261325496,26.788174030179647,-0.0352107957936107,2.5613377261568,-1.576674927566302
2.3238385295980395,26.33158449017466,-0.03615027681205564,2.5118793850097574,-1.5060285217375151
2.317264539332319,25.883763413389385,-0.03689405947372933,2.4639103570488348,-1.4400280672671604
2.310572106756256,25.444449282605323,-0.037466302482528524,2.417357762774093,-1.3782511742131152
2.3037902075380194,25.01339327634805,-0.037888133275652026,2.3721534178622554,-1.3203222810306063
2.2969442503118254,24.590358457816713,-0.038178058126506396,2.3282334547081898,-1.265906676880522
2.2900565169967737,24.175119028622845,-0.038352312040733985,2.2855379807791993,-1.2147053778863086
2.2831465446925003,23.767459641093716,-0.038425158006746084,2.244010769544456,-1.1664507232004442
2.2762314575543665,23.367174763606638,-0.03840914352807675,2.203598980311955,-1.1209025796351808
2.269326255744157,22.974068094037754,-0.038315321029807545,2.1642529037867426,-1.0778450622972873
2.26244406746415,22.587952016945408,-0.03815343763693248,2.125925730572634,-1.0370836939707995
2.2555963691737926,22.208647100576968,-0.03793209892259771,2.088573340187803,-0.9984429385698308
2.2487931783273916,21.835981630198432,-0.03765891048185529,2.0521541084626236,-0.9617640543549465
2.2420432223324998,21.469791174606815,-0.03734060057250003,2.016628731444216,-0.9269032211857039
2.2353540868910136,21.109918183003067,-0.03698312655512412,1.9819600641529969,-0.8937299032001571
2.228732346431386,20.756211609683806,-0.036591767440737825,1.9481129727276592,-0.8621254142356701
2.2221836789566445,20.408526564258832,-0.036171204500834477,1.9150541986609504,-0.8319816582488658
2.2157129673076414,20.066723985321765,-0.03572559159920144,1.8827522339731204,-0.8032000211295443
2.2093243885645832,19.730670335697532,-0.03525861665700092,1.8511772062961247,-0.775690393774785
2.2030214930745537,19.400237317565185,-0.03477355545443615,1.8203007729521838,-0.749370309209886
2.196807274391929,19.07530160591083,-0.03427331879695305,1.7900960232073382,-0.7241641790059238
2.190684231246873,18.755744598905224,-0.03376049392588928,1.7605373879660284,-0.7000026163262546
2.1846544225100013,18.441452183925957,-0.03323738092823993,1.731600556248061,-0.67682183469922
2.1787195159949975,18.1323145180566,-0.03270602479402411,1.7032623978559105,-0.6545631131135672
2.1728808318323782,17.828225821996632,-0.03216824367952396,1.6755008916992995,-0.6331723193095209
2.167139381054013,17.52908418640702,-0.03162565385786918,1.648295059296361,-0.6125994842275442
2.1614958999472407,17.234791389798794,-0.031079691772933186,1.6216249030172505,-0.5927984215080877
2.1559508806675893,16.94525272714626,-0.030531633556524374,1.5954713486775656,-0.5737263867335713
2.1505045985386193,16.660376848473945,-0.02998261232092456,1.5698161921259526,-0.5553437717889571
2.1451571364149418,16.380075606727306,-0.029433633497712938,1.5446420495033804,-0.5376138303066653
2.1399084064388836,16.104263914292694,-0.02888558845848717,1.5199323108811988,-0.5205024306696181
2.1347581694815783,15.832859607582336,-0.028339266622685717,1.4956710970116787,-0.5039778334849202
2.1297089948377415,15.565783860057142,-0.027762673864386547,1.4718372088237996,-0.48702833721276595
2.1247628406009706,15.302960490081247,-0.027194595433066213,1.4484224575750342,-0.47079387053239535
2.1199181530253974,15.044315307613157,-0.026635266517751506,1.4254129031815386,-0.4552362663499083
2.1151733408730387,14.789776579095626,-0.026084868508456305,1.4027951914576828,-0.44031977877192174
2.110526784517998,14.53927492478978,-0.025543535436442655,1.3805565230517316,-0.42601090496385935
2.105976843956153,14.29274322152499,-0.025011359695161852,1.3586846243348372,-0.4122782218673538
2.101521865842454,14.050116510525783,-0.024488397123716765,1.3371677201008203,-0.3990922363938713
2.097160189664074,13.811331910001567,-0.023974671524951856,1.315994507946017,-0.3864252478534467
2.09289015314547,13.576328532207597,-0.02347017868176307,1.2951541342091828,-0.3742512215033461
2.0887100969706123,13.345047404706264,-0.022974889927764294,1.274636171361172,-0.36254567221347084
2.0846183688981412,13.117431395576894,-0.022488755321911448,1.2544305967429525,-0.3512855573450428
2.080613327336784,12.893425142339755,-0.022011706470949823,1.2345277725585766,-0.34044917802802865
2.0766933444409323,12.672974984376147,-0.021543659038511607,1.2149184270370577,-0.3300160881021301
2.072856808779693,12.456028898641268,-0.021084514975259473,1.1955936366838011,-0.3199670100571005
2.069102127626868,12.242536438480375,-0.02063416450057146,1.176544809548344,-0.31028375737161507
2.0654277289141625,12.032448675371356,-0.020192487862825233,1.1577636694407452,-0.300949162706775
2.0618320628853004,11.825718143428624,-0.019759356902308248,1.1392422410340732,-0.29194701146130264
2.058313603484663,11.622298786513998,-0.01933463643810396,1.1209728357951174,-0.28326198024125576
2.0548708495104195,11.42214590781036,-0.018918185497939395,1.1029480386897323,-0.2748795798382174
2.051502325558895,11.2252161217231,-0.018509858407887745,1.0851606956131559,-0.2667861023469182
2.048206582784058,11.031467307982982,-0.018109505756968437,1.0676039014992516,-0.25896857208657137
2.0449821994934267,10.840858567832115,-0.017716975250046858,1.050270989065936,-0.25141470002023847
2.041827781599434,10.653350182182042,-0.017332112460981843,1.0331555181571062,-0.24411284139364672
2.0387419629432446,10.468903571639927,-0.016954761496678652,1.01625126564418,-0.23705195633936246
2.0357234055062032,10.287481258305185,-0.016584765581559368,0.9995522158529505,-0.23022157321435704
2.0327737249574764,10.109261914596843,-0.016189462737626528,0.9806627142397472,-0.27090880954007696
2.0298915342946966,9.934433500388373,-0.015834877959924717,0.9618752214099385,-0.312734801782158
2.0270696201860816,9.762977881724836,-0.015519723246908224,0.9431872081848984,-0.3556011553009201
2.024301002906997,9.59487737122397,-0.01524269096514287,0.9245962418247353,-0.39941078100167865
2.0215789396016626,9.430114710931942,-0.015002456871908538,0.90609998364225,-0.4440676828534321
2.0188969270306143,9.2686730555785,-0.014797682806404035,0.8876961869515579,-0.4894767458756559
2.0162487038619075,9.110535956171102,-0.014627019068119097,0.869382695352846,-0.5355435236592959
2.0136282525609195,8.955687343867176,-0.014489106498410162,0.8511574413574265,-0.5821740244589886
2.0110298009309684,8.804111514062594,-0.01438257827882864,0.8330184453601341,-0.6292744948563178
2.0084478233547185,8.655793110632953,-0.01430606145727846,0.8149638149692092,-0.6767511999479433
2.0058770417846095,8.510717110262075,-0.014258178210598207,0.7969917447071996,-0.7245101989570015
2.0033124265291877,8.368868806789415,-0.014237546849645507,0.7791005161001199,-0.7724571151004618
2.0007491968813857,8.230233795504542,-0.014242782570378627,0.761288498176222,-0.8204968984681827
1.9981828216343938,8.094797957312654,-0.014272497951751985,0.7435541484003088,-0.8685335805801906
1.9956090195308769,7.962547442689907,-0.014325303198434737,0.7258960140746611,-0.9164700191859868
1.993023759691913,7.833468655341278,-0.014399806123388209,0.7083127342434414,-0.964207631752156
1.9904232620732136,7.707548235466408,-0.014494611862158053,0.6908030421439957,-1.0116461159507082
1.987803997997962,7.584773042530415,-0.014608322307305738,0.6733657682559422,-1.058683155308846
1.985162690818014,7.4651301374267085,-0.014739535247670965,0.6559998440074553,-1.1052141080094882
1.9824963167583478,7.348606763907327,-0.014886843193065507,0.638704306207905,-1.1511316766391038
1.979802106003528,7.2351903291427675,-0.015048831860486288,0.6214783022872158,-1.1963255564634057
1.9770775440897206,7.124868383257752,-0.015224078292929467,0.604321096435185,-1.2406820595704762
1.9743203736714894,7.017628597671191,-0.015411148576306504,0.5872320767488431,-1.284083711953404
1.9715285967393874,6.91345874204762,-0.015608595113715096,0.5702107635130574,-1.326408820309417
1.9687004773723165,6.812346659643104,-0.015814953409296804,0.5532568187593295,-1.367531005009406
1.9658345451179398,6.7142802408004165,-0.016028738305998092,0.5363700572705464,-1.4073186953415346
1.9629295991052658,6.6192473943157495,-0.016248439612603017,0.5195504592257384,-1.445634582758038
1.9599847130060577,6.527236016361606,-0.01647251704526241,0.5027981847091931,-1.4823350274610054
1.9569992409762347,6.438233956606901,-0.01669939439721748,0.4861135903430801,-1.517269413260913
1.9539728247251296,6.35222898112519,-0.016927452837282454,0.4694972483425777,-1.550279445247369
1.9509054018797363,6.2692087316239515,-0.017155023222643992,0.4529499683378458,-1.5811983844509463
1.9477972158332089,6.189160680461292,-0.017380377294327953,0.4364728223583911,-1.6098502133879702
1.9446488272923712,6.1120720808401074,-0.017601717603867972,0.4200671734325378,-1.6360487262269585
1.941461127768315,6.037929911482607,-0.017817165996758113,0.40373470831746366,-1.6595965373860257
1.9382353552879732,5.966720814989216,-0.01802475045148226,0.3874774749424342,-1.6802840027982253
1.9349731126436212,5.898431028974869,-0.01822239004131899,0.37129792521698807,-1.6978880490631256
1.9316763885425516,5.8330463089523334,-0.018407877748342065,0.3551989639222876,-1.7121709075270137
1.9283475820720275,5.770551841797957,-0.018578860813038108,0.3391840044596576,-1.722878753425858
1.924989530956745,5.710932148492994,-0.018732818245653524,0.3232570322621646,-1.7297402552085748
1.9216055441599607,5.654170974689887,-0.018867035051951118,0.30742267666124545,-1.7324650469506115
1.9181994394686877,5.600251167518817,-0.018978572628861063,0.2916862919061993,-1.7307421487191967
1.9147755868133913,5.549154536944805,-0.01906423465220763,0.27605404780503834,-1.7242383778502475
1.911338958211675,5.5008616999419,-0.019120527589084182,0.2605330300050257,-1.712596821274182
1.9078951854067263,5.455351905819999,-0.019143614688125195,0.2451313491272247,-1.695435479604548
1.9044506265159415,5.412602841303926,-0.01912926187614955,0.22985825660690956,-1.6723462540372211
1.9010124433477664,5.372590414551979,-0.019072773325797415,0.2147242628591586,-1.6428945365118688
1.8975886915426479,5.33528851841098,-0.018968913397741143,0.19974124981861463,-1.6066197955797
1.8941884264427158,5.300668775139663,-0.018811809934838216,0.18492256430711848,-1.5630377442979326
1.890821828755043,5.268700268044071,-0.018594831039305832,0.17028307008832683,-1.5116449589463148
1.887500355916139,5.239349270614198,-0.018310422726292675,0.155839123576942,-1.4519272233576594
1.8842369280482862,5.212578991740706,-0.01794988691651496,0.14160841946184713,-1.3833734436520793
1.8810461622919181,5.188349367582706,-0.01750306593202145,0.12760962673814386,-1.3054977456042705
1.8779446773905466,5.166616947871315,-0.01695787741655083,0.11386170338843596,-1.2178733205829653
1.8749515038233313,5.147334947476185,-0.016299606663616507,0.10038274544633233,-1.1201825757001762
1.8720886569865285,5.130453561121481,-0.015509802634194296,0.08718821405036518,-1.012288669292586
1.8693819675054804,5.115920661827136,-0.014564524933008681,0.07428844477568558,-0.8943323153300571
1.8668623230577135,5.103682998701263,-0.013431524486622357,0.06168558995624806,-0.766852190097632
1.8645675784256026,5.093687925143588,-0.012065638092388725,0.04937078290682108,-0.6309130261283596
1.862545584187133,5.085885425763649,-0.010400964557272449,0.03732365464803475,-0.4881982702852223
1.8608592514843965,5.080229596496498,-0.008336065473133107,0.025518892764748065,-0.34098731805396965
1.8595961587886216,5.076677323746182,-0.005698297813255125,0.01395080446097342,-0.19191347079912727
1.8588936092385202,5.075176694052107,-0.0021078082989817717,0.002722858806537099,-0.04343735233607335
