x,y,v_x,v_y,omega
2.375,32.48,0.0,2.4615384615384617,-8.0
2.3736114960261543,31.992780816090573,-0.013885039738456473,2.4106533775557795,-7.577115085455408
2.3696178949553315,31.515559067691704,-0.026050970969773532,2.3615641064328945,-7.187121175936775
2.363342699589377,31.047987018820947,-0.03670098268977032,2.3141563822746725,-6.826604168436129
2.3550714530212167,30.58973868221514,-0.046011482991832546,2.2683269837834423,-6.492581264012325
2.3450566892855345,30.140507759132586,-0.054136154364991355,2.2239822470420805,-6.182436897694036
2.33352214401371,29.700005851364253,-0.0612092983532511,2.181036830641244,-5.893869682209773
2.32066635286223,29.267960899993874,-0.06734861316154866,2.1394126830625297,-5.624848201536604
2.3066657400673343,28.84411581435156,-0.07265751478741017,2.0990381733606243,-5.373573969876675
2.291677279816618,28.428227261554145,-0.07722708771975494,2.059847354613517,-5.138450233112259
2.275840797764759,28.020064592488747,-0.08113773279883528,2.0217793360404657,-4.918055564958371
2.2592809679033863,27.61940888442141,-0.08446056581488727,1.9847777446329116,-4.711121421516739
2.2421090503552454,27.22605208386067,-0.08725860966652454,1.9487902609744878,-4.516512981920838
2.224424407931888,26.83979623607181,-0.08958781456705057,1.9137682169141061,-4.333212730973369
2.2063158330477632,26.460452789870242,-0.09149793427419178,1.8796662451015607,-4.1603063406978045
2.1878627115017277,26.087841968135322,-0.09303328118616393,1.8464419722476477,-3.996970487898982
2.1691360454760766,25.721792195966284,-0.09423337907034833,1.8140557494427234,-3.842462308888588
2.150199354676124,25.362139579617637,-0.09513352892917737,1.7824704140437573,-3.6961102440432403
2.131109471695177,25.008727430354774,-0.09576530088029207,1.751651078584873,-3.55730606653067
2.1119172453273696,24.66140582820333,-0.09615696279778531,1.721564942929561,-3.4254979234326774
2.0926681635751976,24.320031221260145,-0.09633385472393528,1.692181126502299,-3.3001842452070758
2.0734029064392123,23.984466056815638,-0.09631871663591643,1.6634705179427525,-3.180908402202921
2.0541578371778946,23.654578441027354,-0.0961319759772611,1.635405639940063,-3.0672540057415802
2.0349654395410983,23.330241824298753,-0.09579200039070283,1.6079605273459512,-2.9588407668615706
2.015854707474106,23.011334709869395,-0.09531532027922028,1.5811106169476705,-2.855320838799735
1.9968514929316479,22.697740383422982,-0.09471682514535874,1.55483264751643,-2.756375580124354
1.9779788167079988,22.389346661777072,-0.0940099370911325,1.529104568942687,-2.661712684530534
1.9592571465606157,22.086045658939426,-0.0932067643826989,1.5039054594337862,-2.5710636309629677
1.9407046463643467,21.787733568007297,-0.09231823757999168,1.4792154498874903,-2.484181414195062
1.9223564989106632,21.49432043167497,-0.09116323695684275,1.4549159134357759,-2.3950522790364697
1.9042432831317926,21.205719434241573,-0.08996892083186211,1.431094060898228,-2.3099977851032287
1.8863722261727545,20.921836781648935,-0.08874164875851953,1.4077324650281233,-2.228783008885073
1.8687493496235685,20.642582082294037,-0.08748711673333998,1.3848145285208597,-2.1511891647036525
1.8513795955396437,20.36786818613047,-0.0862104241059082,1.3623244331148172,-2.077012316854849
1.8342669397835518,20.097611033567194,-0.08491613345501176,1.340247092517935,-2.0060622086615547
1.8174144940161712,19.83172951343388,-0.08360832421879416,1.3185681088151842,-1.9381611965360155
1.8008245975170976,19.570145329347508,-0.08229064077194301,1.2972737320485548,-1.8731432784948632
1.7844988998838613,19.31278287387333,-0.08096633556041716,1.2763508226931974,-1.8108532077469388
1.7684384355445908,19.05956910992586,-0.0796383078322888,1.2557868167815516,-1.7511456830066254
1.752643690917315,18.810433458902484,-0.07830913844046948,1.2355696934521903,-1.6938846080930343
1.7371146649594527,18.565307695085053,-0.07698112113815535,1.2156879447221298,-1.6389424141745488
1.721850923771667,18.32412584588275,-0.07565629073970184,1.1961305473008823,-1.5861994387230776
1.7068516498499553,18.086824097524477,-0.07433644847741408,1.176886936281877,-1.535543355865065
1.6921156865174503,17.853340705840054,-0.07302318484763727,1.1579469805623255,-1.4868686533672801
1.6776415780119978,17.623615911798183,-0.0717179002068856,1.1393009598563844,-1.440076151983682
1.6634276056563109,17.397591861494668,-0.0704218233499833,1.1209395431787843,-1.3950725633230094
1.6494718204936312,17.175212530308077,-0.06913602827681475,1.1028537686871236,-1.351770082781898
1.6357720727327634,16.956423650961273,-0.06786144933186322,1.085035024780916,-1.310086014431131
1.6223260383114877,16.741172645246746,-0.066598894880893,1.067475032364368,-1.2699424250481552
1.609131242856241,16.529408559191523,-0.06534905967157555,1.0501658281878647,-1.23126582476164
1.5961850832881535,16.3210820014537,-0.06411253600929968,1.0330997491903482,-1.1939868720174998
1.5834848473006635,16.116145084757537,-0.06288982386559899,1.0162694177712885,-1.1580401007937733
1.5710277309116674,15.914551370187727,-0.06168134002436312,0.9996677279268316,-1.123363668187005
1.5588108542732217,15.71625581417604,-0.06048742636009381,0.9832878321900377,-1.0898991206678965
1.5468421697337493,15.521414696502873,-0.05919941903462897,0.9651233445416348,-1.0971176683764443
1.5351264902785609,15.330194401274333,-0.05795737551725649,0.9470796077437483,-1.1064436472920376
1.5236547139968348,15.14257111585066,-0.05676038730000265,0.929153246492984,-1.1177457874001233
1.5124179276463239,14.958521688210979,-0.05560747620510696,0.9113410299038261,-1.1308962105247022
1.5014074198821572,14.778023598632405,-0.054497601436560024,0.8936398658819288,-1.1457701319615585
1.4906146931359383,14.601054932442974,-0.05342966602562755,0.8760467960123686,-1.1622455711501485
1.4800314742620453,14.42759435374727,-0.05240252271330417,0.8585589909446755,-1.1802030701413504
1.4696497240598247,14.257621080026823,-0.05141497930890079,0.8411737462598115,-1.1995254186521265
1.4594616457728895,14.091114857520083,-0.0504658035604515,0.8238884788075915,-1.2200973845233016
1.449459692659914,13.928055937288686,-0.04955372756930302,0.8067007235063625,-1.2418054484132728
1.4396365747251743,13.768425051878037,-0.0486774517780954,0.7896081306001227,-1.264537541568627
1.4299852646915312,13.612203392480854,-0.04783564855833268,0.7726084633717131,-1.2881827855123684
1.420499003293613,13.459372586512256,-0.04702696542085203,0.7556995963142765,-1.312631232481674
1.411171303964557,13.309914675504135,-0.046250027869705716,0.7388795137669267,-1.3377736054297091
1.4019959569858615,13.16381209322499,-0.04550344191724886,0.7221463090245214,-1.3635010363798215
1.3929670331665815,13.02104764392897,-0.04478579627555289,0.7054981839356669,-1.3897048018852045
1.3840788871153644,12.881604480634639,-0.04409566423661644,0.6889334490076447,-1.41627605430257
1.3753261601665834,12.745466083329685,-0.04343160525119658,0.6724505240419079,-1.4431055475342391
1.3667037830201227,12.612616236992572,-0.042792166213408374,0.6560479393292294,-1.470083355829041
1.3582069781532307,12.483039009315693,-0.04217588245551188,0.639724337439569,-1.4970985841582682
1.34983126206223,12.3567187280069,-0.04158127845449452,0.6234784756483466,-1.5240390685984988
1.3415724473918673,12.233639957537246,-0.04100686824913078,0.6073092290481874,-1.55079106505835
1.3334266450106413,12.113787475192087,-0.04045115556312801,0.5912155944034199,-1.5772389245814071
1.3253902660916579,11.997146246270365,-0.03991263362670735,0.5751966948138064,-1.6032647533432443
1.3174600242604388,11.883701398262556,-0.03938978468548243,0.5592517852642902,-1.6287480553377849
1.3096329378737168,11.773438193821217,-0.03888107918173776,0.5433802591490815,-1.6535653556191272
1.3019063324966311,11.666342002319176,-0.03838497458912005,0.5275816558713413,-1.6775898018324402
1.2942778436499913,11.562398269768625,-0.03789991387727796,0.511855669634178,-1.7006907416362216
1.286745419904459,11.461592486849728,-0.037424323578045454,0.49620215955479063,-1.7227332734949434
1.2793073264047272,11.363910154769101,-0.03695661141927334,0.4806211612514766,-1.7435777682158229
1.2719621489141733,11.269336748636661,-0.036495163486266975,0.46511290007291456,-1.7630793585304037
1.2647087984791616,11.177857678013307,-0.03603834086384951,0.4496778061606166,-1.7810873940010912
1.2575465168223598,11.089458244241392,-0.035584475704168,0.43431653155852035,-1.7974448585933833
1.2504748825863163,11.004123594124742,-0.03513186665626693,0.41902996960797656,-1.811987748436531
1.2434938185624034,10.921838669474834,-0.034678773582862664,0.4038192768911202,-1.824544407655214
1.236603600056393,10.84258815198477,-0.03422341147724105,0.38868589800952935,-1.8349348207714982
1.2298048645608517,10.766356402833207,-0.03376394347817012,0.37363159350611763,-1.8429698611602787
1.2230986229268033,10.69312739635728,-0.03329847286231463,0.3586584712531489,-1.8484504965469857
1.2164862722535112,10.622884647068648,-0.03282503387060565,0.3437690216331697,-1.8511669547792968
1.2099696107469002,10.555611129222829,-0.03234158119550498,0.32896615682504027,-1.850897856386872
1.203550854835616,10.491289188094033,-0.031845977917337336,0.3142532544629343,-1.8474093251872359
1.1972326588813171,10.429900442063182,-0.03133598162564994,0.2996342058455721,-1.8404540949937336
1.191018137879801,10.371425674607462,-0.030809228389511573,0.2851134687116173,-1.8297706401620741
1.1849108936269523,10.315844715303367,-0.03026321413897499,0.270696124329324,-1.8150823714362112
1.1789150449257082,10.263136309048217,-0.02969527287346675,0.25638793822215544,-1.7960969579449209
1.1730352625485445,10.213277972906788,-0.029102550898169786,0.24219542319215456,-1.7725058635177207
1.167276809861727,10.166245840357359,-0.028481975970006092,0.22812590230215046,-1.743984223861293
1.1616455902893636,10.122014493328592,-0.027830219753627476,0.2141875679855157,-1.7101912448491678
1.1561482031884125,10.080556783404031,-0.027143651255884912,0.2003895312600934,-1.6707713769896453
1.1507920102842564,10.041843645092658,-0.026418277785676816,0.18674185185362452,-1.6253566245688005
1.1455852156798085,10.00584390635213,-0.02564966825880138,0.17325553555165024,-1.5735704893226707
1.140536963753879,9.97252410491107,-0.02483285100049433,0.15994247885894722,-1.5150342381596695
1.1356574612457147,9.941848323747529,-0.02396217408114774,0.1468153327764598,-1.4493764313865853
1.1309581328490363,9.9137780657598,-0.02303110988563586,0.133887247100818,-1.3762469531291586
1.1264518242668105,9.888272196548023,-0.02203197593662215,0.12117144501694753,-1.2953371276227097
1.1221530737370753,9.865286995258696,-0.020955529360729183,0.10868056787632496,-1.2064078092749655
1.1180784837439501,9.844776365527338,-0.019790370570522364,0.09642572943726016,-1.1093274161509639
1.114247240730995,9.826692268227436,-0.018522059559031016,0.08441524356174819,-1.0041213456685734
1.110681854747093,9.810985436878973,-0.01713180027998786,0.07265306992287447,-0.8910323491217408
1.1074092275405574,9.797606408943803,-0.0155944717853671,0.06113720942880577,-0.7705871423483805
1.1044622167574256,9.78650682336784,-0.013875636045950452,0.049858646330819226,-0.6436566056262979
1.1018819756627993,9.777640752112852,-0.011926774900312107,0.03880206621907044,-0.5114853535136314
1.0997216175141904,9.770965478923529,-0.009676806585776404,0.02795066567414492,-0.37565485683959976
1.0980526018216419,9.766440412202417,-0.007013350339707635,0.017300001536983023,-0.2379415319581845
1.0969788586274705,9.764020555279465,-0.003724081602006107,0.006898567692532649,-0.10004870486402515
