x,y,v_x,v_y,omega
2.375,32.48,0.0,2.6666666666666665,-2.36734693877551
2.3745788279475017,31.978538377976786,-0.004433390026296173,2.611876723051328,-2.239829552812722
2.3733691760818374,31.487313769498684,-0.008299787507012508,2.5589086293497507,-2.1223872150405216
2.371472276023455,31.005989328833124,-0.011667581528592333,2.5076644302877233,-2.013973958479846
2.3689772136017897,30.534246150665705,-0.014596233436307702,2.4580532346325,-1.9136729208663228
2.3659625034609855,30.071781990129754,-0.017137557519526607,2.4099905604827567,-1.820678190341308
2.3624974394541294,29.6183101000172,-0.0193368004473788,2.3633977564914934,-1.7342794962511765
2.358643255789867,29.173558171770182,-0.02123355391327867,2.3182014882139814,-1.6538492548597112
2.3544541279560276,28.737267368731448,-0.022862528548186812,2.2743332806147842,-1.5788315717814263
2.349978037599391,28.309191441694743,-0.02425421204798887,2.231729109245272,-1.5087328762584853
2.345257521571381,27.88909591810572,-0.02543543035211638,2.190329033797073,-1.4431139211189103
2.3403303220853675,27.47675735736764,-0.026429827395394387,2.150076868709038,-1.3815829294978619
2.3352299522373023,27.07196266564157,-0.027258276268450003,2.110919886302204,-1.3237897075869691
2.3299861889103894,26.674508464328248,-0.027939232435895512,2.0728085485748777,-1.2694205736667146
2.324625503230772,26.284200507101716,-0.028489037875867877,2.035696264335993,-1.2181939789293488
2.3191714371961956,25.900853140952755,-0.02892218354072361,1.9995391688109614,-1.1698567162552707
2.3136449338080376,25.524288807208173,-0.029251536334623685,1.9642959232372792,-1.1241806300624275
2.308064626954291,25.15433757893303,-0.029488535810077775,1.9299275322905045,-1.0809597543167044
2.3024470963808557,24.790836731507152,-0.029643364962925838,1.8963971774555985,-1.0400078173363343
2.2968070923212656,24.433630343503086,-0.02972509882223106,1.863670064692446,-1.0011560615959108
2.291157733706685,24.08256892528757,-0.029741833962829898,1.8317132849445603,-0.9642513346969481
2.2855106833288423,23.737509073027695,-0.029700801593409373,1.8004956862120411,-0.9291544143128411
2.2798763028623035,23.398313146012008,-0.029608466475420737,1.7699877560583193,-0.8957385354712706
2.2742637902556653,23.064848965399335,-0.029470613594454794,1.7401615135487989,-0.8638880931968502
2.2686813016628222,22.73698953268773,-0.029292424224943957,1.7109904097312263,-0.833497497455803
2.263136059796188,22.41461276635609,-0.029078542792263018,1.6824492358650056,-0.8044701606489212
2.2576344503359906,22.09760125527319,-0.028833135736129025,1.6545140386918362,-0.7767176006922679
2.2521821078171453,21.785842027596566,-0.02855994340960929,1.6271620421147186,-0.7501586450918246
2.2467839922323476,21.479226333997456,-0.028262325904052542,1.6003715747180245,-0.7247187234283528
2.241444457432527,21.17764944415042,-0.02794330356774166,1.5741220026192002,-0.7003292373797652
2.2361673122698384,20.881010455518187,-0.027605592881610862,1.5483936671938046,-0.6769269988679685
2.2309558753108023,20.58921211354499,-0.027251638266137333,1.5231678272608722,-0.6544537281650539
2.225813023845391,20.30216064244641,-0.026883640317141102,1.4984266053557862,-0.6328556048628065
2.2207450028008613,20.019766276485974,-0.026463949625274593,1.47414566791192,-0.6107598620920667
2.215757086311123,19.74194238116445,-0.026040434477232633,1.4503163881041543,-0.5896403376497713
2.210849884572331,19.468604623229325,-0.025614320667947513,1.4269231691076563,-0.5694426230193143
2.2060237881589755,19.199671567736463,-0.025186694209479006,1.403951099238287,-0.5501159141410087
2.2012789931974623,18.93506455147245,-0.024758515911715868,1.3813859140671194,-0.5316127346761411
2.1966155239173686,18.674707563338796,-0.02433063440505784,1.359213961023965,-0.5138886833474442
2.192033252859742,18.418527131243025,-0.02390379778048447,1.3374221662999504,-0.49690220301976484
2.187531918990459,18.16645221507634,-0.023478664001442873,1.3159980038756705,-0.4806143694343605
2.1831111439390725,17.9184141053891,-0.023055810223678874,1.2949294665163364,-0.4649886977308277
2.1787704465592252,17.674346327404116,-0.022635741143134904,1.2742050385887875,-0.4499909650858132
2.174509255985214,17.434184550034274,-0.022218896478035224,1.2538136705674119,-0.4355890479705499
2.1703269233402946,17.1978664995952,-0.02180565767900962,1.2337447551070475,-0.4217527726826447
2.1662227322355063,16.96533187792579,-0.021396353950343033,1.2139881045709402,-0.4084537779437994
2.162195908182905,16.736522284650015,-0.02099126765598483,1.1945339299109177,-0.39566538847634136
2.1582456270339008,16.511381143331988,-0.02059063917563818,1.1753728208051943,-0.3833624985793777
2.1543710225416666,16.289853631293653,-0.02019467126893199,1.156495726966739,-0.3715214648216332
2.1505711931361913,16.071886612880323,-0.01980353299922824,1.1378939405419826,-0.3601200070539589
2.1468452079912868,15.857428575973877,-0.019417363262927506,1.1195590795258816,-0.34913711702130334
2.143192112454623,15.646429571567037,-0.019036273965110203,1.1014830721250584,-0.33855297392266454
2.1396109329045365,15.43884115622459,-0.018660352877908265,1.0836581420059392,-0.3283488663291174
2.1361006810907983,15.234616337268918,-0.018289666214070164,1.0660767943695797,-0.31850711992523134
2.1326603580107153,15.033709520537883,-0.017924260944699313,1.04873180279922,-0.3090110305887757
2.129288957366698,14.83607646057305,-0.017564166887057586,1.0316161968306135,-0.2998448023681756
2.1259854686467974,14.641674213105254,-0.017209398585584745,1.01472325019883,-0.290993489957276
2.122748879865516,14.450461089713098,-0.016859957006849696,0.9980464697186022,-0.28244294530308667
2.119580672914954,14.262594195412241,-0.01648958984116969,0.9794997860798792,-0.31532681384848094
2.116479492437391,14.07824094374272,-0.016154415185811174,0.9610607578098228,-0.34962401158520084
2.1134387308934675,13.897381145624621,-0.01585360106601422,0.9427265908017679,-0.38523069055892584
2.110451943499939,13.719995132687878,-0.015586266234290299,0.9244945980060586,-0.4220448729430913
2.107512857109021,13.546063737247838,-0.015351485249053854,0.9063621960996056,-0.4599662283729997
2.104615378166597,13.375568272879473,-0.01514829309225079,0.8883269025147782,-0.49889585393745967
2.1017535998340593,13.208490515522374,-0.014975689355513173,0.8703863328230851,-0.5387360559030465
2.0989218083532637,13.044812685049372,-0.014832642021285983,0.8525381984716622,-0.5793901322333553
2.096114488729313,12.884517427231604,-0.01471809086240611,0.8347803048732602,-0.6207621549455106
2.093326329801714,12.727587796032587,-0.014630950480740007,0.8171105498532355,-0.6627567513183074
2.090552228770789,12.574007236162824,-0.014570113002678622,0.7995269224600519,-0.7052788829301893
2.0877872952431153,12.423759565824962,-0.0145344504465197,0.7820275021490178,-0.7482336214602308
2.085026854857165,12.276828959577319,-0.014522816774011045,0.7646104583524983,-0.7915259201306901
2.0822664525482564,12.133199931240732,-0.014534049635555164,0.7472740504536735,-0.8350603796047353
2.0795018555103817,11.992857316770042,-0.014566971815755673,0.7300166281851685,-0.8787410070766939
2.0767290559114917,11.855786257006983,-0.014620392383086617,0.7128366324785982,-0.9224709672036036
2.0739442734183755,11.721972180225862,-0.014693107544452574,0.6957325967963615,-0.9661523234247775
2.0711439575874393,11.591400784376823,-0.014783901202242069,0.678703148982982,-1.0096857680992464
2.068324790178455,11.464058018923836,-0.014891545208117895,0.6617470136800275,-1.0529703397578976
2.065483687449786,11.339930066165383,-0.015014799304189069,0.6448630153563083,-1.0959031256163683
2.0626178024957476,11.219003321915224,-0.015152410738319492,0.6280500820137892,-1.138378947324664
2.0597245276896787,11.101264375408146,-0.015303113536090367,0.6113072496396483,-1.180290027738431
2.056801497300058,10.986699988281174,-0.015465627407282856,0.5946336674863765,-1.2215256362831999
2.0538465903517036,10.875297072463844,-0.01563865625961193,0.5780286042749865,-1.2619717102452779
2.0508579338098,10.767042666791724,-0.015820886286739465,0.5614914554315568,-1.3015104490601688
2.047833906171393,10.661923912134672,-0.01601098359123135,0.5450217514847976,-1.3400198783808681
2.0447731415571067,10.559928024805235,-0.016207591295992908,0.528619167772447,-1.3773733803944892
2.041674534405466,10.46104226798224,-0.016409326089697147,0.5122835356274821,-1.4134391865183116
2.038537244883391,10.365253920849657,-0.016614774142670256,0.4960148552418081,-1.44807982824965
2.0353607051394893,10.272550245110292,-0.016822486319454034,0.47981331043572073,-1.4811515415755383
2.032144626541891,10.182918448487229,-0.017030972602633032,0.4636792855965143,-1.5125036199808068
2.0288890080598607,10.09634564477205,-0.017238695629264913,0.4476133850895695,-1.5419777107469557
2.0255941459686,10.012818809916947,-0.01744406322610769,0.4316164554904777,-1.569407048940498
2.022260645079937,9.932324733596797,-0.017645419812451338,0.4156896110374207,-1.5946156232955013
2.018889431728421,9.85484996558614,-0.017841036519294216,0.3998342627589789,-1.61741726817151
2.015481768773312,9.780380756203698,-0.018029099850279333,0.38405215179303787,-1.6376146760196113
2.0120392729127037,9.708902989973161,-0.018207698682437438,0.3683453874757706,-1.6549983254702918
2.0085639346475066,9.640402111532929,-0.01837480937227157,0.3527164908424657,-1.6693453214933553
2.005058141281262,9.574863042700251,-0.018528278693460482,0.33716844423836206,-1.6804181464043941
2.001524703398397,9.512270089458724,-0.018665804284061345,0.3217047477777297,-1.687963324290291
1.997966885330523,9.452606837497125,-0.018784912219876177,0.3063294833969994,-1.6917100074104923
1.9943884402008054,9.395856034790715,-0.018882931250836787,0.2910473871968027,-1.6913685023463976
1.9907936502346608,9.34199945959838,-0.018956963129632406,0.2758639306172386,-1.686628767652769
1.987187373147763,9.291017772175504,-0.019003848311397085,0.26078541067617955,-1.6771589357680536
1.9835750955800513,9.242890348513669,-0.019020126085568953,0.2458190489220957,-1.6626039432809587
1.9799629947537547,9.19759509457916,-0.019001987875447407,0.23097309775692956,-1.642584400199148
1.976358009821303,9.155108239934293,-0.01894522193983406,0.21625695113641796,-1.6166958977544734
1.9727679247795307,9.115404110446207,-0.018845146920927498,0.20168125400134806,-1.5845090558811281
1.9692014654328942,9.07845488125814,-0.01869653041208785,0.18725800060987596,-1.5455707607173028
1.9656684138124585,9.044230313680199,-0.01849348664512932,0.17300060547370139,-1.4994072602216788
1.9621797449036764,9.012697483683041,-0.018229343973627937,0.1589239208121575,-1.4455301004195138
1.9587477928481754,8.9838205160038,-0.01789646713690996,0.14504416002195739,-1.3834463308258593
1.9553864575400053,8.957560347505677,-0.01748600979119683,0.13137866627408662,-1.3126750210254172
1.9521114686995131,8.933874557558664,-0.016987556950825145,0.11794543843132202,-1.232772927609807
1.9489407346744678,8.912717322838848,-0.016388590681232183,0.10476229546148558,-1.1433730743676043
1.9458948199936368,8.894039578842765,-0.015673669116988857,0.09184553607622409,-1.0442408001251575
1.942997623276384,8.877789496478954,-0.014823138433041684,0.0792079624902183,-0.9353517618957068
1.9402773722719748,8.863913395742795,-0.013811082666000918,0.06685625578512493,-0.8169937974498617
1.937768127486826,8.852357186295329,-0.012602020335565768,0.054788054188213614,-0.6898863206673791
1.9355121166029605,8.843068278199087,-0.011145462652490315,0.04298992577222216,-0.5552927063186427
1.9335634916012765,8.835997522953996,-0.009366379470498978,0.031439076807707765,-0.4150709256426236
1.9319948464247916,8.831099895346604,-0.007145675018816481,0.02011489800694542,-0.2715752804251745
1.9309108066439238,8.828330439902114,-0.004265270042950924,0.00903726456663239,-0.12731676705283923
