x,y,v_x,v_y,omega
2.375,32.48,0.0,2.8205128205128203,-5.428571428571429
2.373872912109442,31.92216895485523,-0.011270878905576988,2.757797630934826,-5.106869087391188
2.3706468334730246,31.376642174255917,-0.02098990745860177,2.6974701750583407,-4.813481103336795
2.36561174644794,30.842957201636807,-0.02936096279224374,2.6393795511327416,-4.545147808493069
2.3590197787324088,30.320680395844818,-0.0365587143630693,2.5833885067871676,-4.299056785722087
2.3510905797736035,29.809404370723435,-0.04273327522498337,2.5293717444266517,-4.072772396613571
2.342015849510556,29.308745746299238,-0.04801402740548872,2.477214499815317,-3.864177837595543
2.331963168269515,28.8183431622959,-0.05251278500491922,2.42681134021804,-3.6714272369932566
2.3210792475185267,28.337855514214525,-0.056326422504968575,2.3780651405957323,-3.4929058532463166
2.309492698417961,27.86696037961134,-0.05953906850068764,2.3308862054361184,-3.327196849245683
2.2973163971414556,27.40535260800024,-0.062223944264363576,2.2851915106748693,-3.1730534349769393
2.284649511662926,26.95274305239211,-0.06444491052093429,2.240904045406449,-3.029375415406285
2.2715792432752964,26.50885742413949,-0.06625777335536374,2.197952237119758,-2.895189370896276
2.2581823268988908,26.073435255695042,-0.06771139040868977,2.1562694473247093,-2.7696318465770284
2.2445263267769144,25.646228958274147,-0.06884861081107344,2.115793526884239,-2.6519350447476
2.2306707580785057,25.227002963356178,-0.06970707617301583,2.0764664222954337,-2.5414146077788162
2.2166680599556816,24.815532938557155,-0.07031990505522456,2.0382338256948116,-2.437459153568849
2.2025644415106154,24.411605069728967,-0.07071627939543834,2.0010448625870603,-2.339521285483977
2.1884006187528073,24.015015402242057,-0.07092194818264201,1.964851812282065,-2.2471098470424
2.1742124578266813,23.625569235331476,-0.07095966107861756,1.9296098568237223,-2.1597832307857923
2.160031537461599,23.24308056416456,-0.07084954257220653,1.8952768548454284,-2.0771435827028677
2.145885641652548,22.867371564947845,-0.07060941551830191,1.8618131373217155,-1.9988317696796067
2.131799191952005,22.49827211895299,-0.07025508148712997,1.829181322626842,-1.9245229988948245
2.1177936273861757,22.13561937182255,-0.06980056417116041,1.7973461486775981,-1.8539229957582268
2.103887738857017,21.779257324930434,-0.06925832112042508,1.7662743202435185,-1.7867646616147017
2.0900979639184776,21.429036455929637,-0.06863942826497005,1.7359343697644662,-1.7228051445816588
2.0764386469913996,21.08481336592998,-0.0679537410058139,1.70629653023212,-1.6618232670003665
2.0629222693819047,20.74645045101922,-0.06721003508913433,1.6773326188754583,-1.6036172614327453
2.049559652872687,20.413815596077015,-0.06641613000304072,1.6490159305466097,-1.5480027742166829
2.0363601401487386,20.086781889038647,-0.06557899723644475,1.62132113983708,-1.494811101544409
2.023331754884858,19.765227353948028,-0.06470485540236029,1.5942242110691076,-1.4438876280439021
2.010481343950328,19.449034701300533,-0.06379925394293555,1.5677023154058176,-1.3950904420811252
1.9978147038668337,19.13809109431901,-0.06286714689201192,1.5417337544094267,-1.3482891055907973
1.9853366933810412,18.83228792993296,-0.0619129579659124,1.5162978894510648,-1.3033635592919433
1.9730513337765883,18.531520633343803,-0.06094063807861735,1.491375076440526,-1.2602031467394328
1.9609750213577213,18.2356917937188,-0.05982248611005256,1.4669133198094773,-1.214872499137032
1.9491219034713259,17.944707455089286,-0.058708692753900955,1.442930066485672,-1.171616704435784
1.937490915448339,17.658473630855568,-0.05760118747596791,1.4194081758515225,-1.1303161752632105
1.9260806327377815,17.37689968366755,-0.056501639629607366,1.3963312960286636,-1.0908595239314545
1.914889320014625,17.09989817225956,-0.055411487601956175,1.3736838180512108,-1.053142910841068
1.9039149747847004,16.82738470713176,-0.05433196469729174,1.3514508332268025,-1.017069451583847
1.8931553661011384,16.559277814466512,-0.053264122138326694,1.3296180934256878,-0.9825486768440482
1.8826080689353757,16.295498807717696,-0.0522088495193001,1.3081719740624487,-0.9494960398510972
1.8722704946830548,16.03597166635578,-0.051166893003909336,1.2870994395566802,-0.9178324667116097
1.862139918230104,15.78062292129227,-0.05013887152559947,1.2663880110784225,-0.8874839454545382
1.8522135019558679,15.529381546544268,-0.04912529121676038,1.2460257364015872,-0.8583811500694398
1.842488317007556,15.28217885673368,-0.04812655826635696,1.2260011617043,-0.8304590962118835
1.8329613621427305,15.03894841004633,-0.04714299038190152,1.2063033051691865,-0.8036568255984909
1.8236295804034386,14.799625916304478,-0.04617482701101635,1.1869216322493314,-0.7779171164227221
1.8144898738563633,14.564149149831835,-0.045222238459735525,1.1678460324771132,-0.7531862173962256
1.8055391166075074,14.332457866813776,-0.04428533402882388,1.1490667977034625,-0.7294136032636409
1.7967741662770793,14.104493726876981,-0.04336416927545642,1.130574601664478,-0.7065517498548832
1.7881918740999985,13.880200218632453,-0.04245875249535441,1.112360480780812,-0.6845559269313904
1.7797890937994931,13.659522588944078,-0.041569050509698925,1.0944158161029456,-0.6633840072543787
1.771562689365358,13.442407775701536,-0.040694993831651885,1.076732316322461,-0.6429962904562893
1.763509541854298,13.22880434389171,-0.039836481278947254,1.0593020017757833,-0.6233553404334639
1.7556265553172403,13.018662424776867,-0.03899338409163046,1.0421171893726464,-0.6044258351005273
1.7479106619473272,12.811933658000921,-0.03816554960750111,1.0251704783868143,-0.5861744274566325
1.7403588265323724,12.608571136457101,-0.03735280454204617,1.0084547370514025,-0.5685696170120735
1.732968050286713,12.408529353761406,-0.036554957914546306,0.9919630899055372,-0.5515816307120647
1.725742073688139,12.211945042119055,-0.03570480807119447,0.9738800265179577,-0.5712981411874837
1.718681877605264,12.018965889842672,-0.034897152757557386,0.9559114962458664,-0.5928237746069017
1.7117790518039986,11.829569302895734,-0.034131105255095766,0.9380543732234945,-0.6160427934914232
1.705025369318515,11.643733299889607,-0.03340571959974213,0.9203056568377787,-0.6408422330370621
1.6984127976770917,11.461436487504578,-0.03271999681448927,0.9026624670125233,-0.6671116458066553
1.69193350893629,11.282658036811288,-0.03207289059352832,0.8851220399203623,-0.6947428529192756
1.6855798886292845,11.107377660408343,-0.031463312476526825,0.8676817241090964,-0.7236297006980167
1.6793445437268189,10.935575590294256,-0.030890136548129127,0.8503389770317562,-0.7536678217528114
1.673220309702561,10.767232556393829,-0.03035220369444819,0.833091361972522,-0.7847543994832892
1.667200256788599,10.602329765660233,-0.029848325445172075,0.8159365453634464,-0.8167879349875025
1.6612776955013913,10.440848881674906,-0.02937728742690517,0.7988722944898171,-0.8496680153555297
1.655446181513653,10.282772004667425,-0.028937852450478342,0.7818964755849953,-0.883295082312261
1.6496995199433884,10.128081651877054,-0.02852876325216894,0.7650070523187117,-0.9175702001508025
1.6440317691275668,9.97676073817657,-0.02814874490604619,0.7482020846861435,-0.9523948218665097
1.6384372439447645,9.828792556877087,-0.027796506921975037,0.7314797283086771,-0.9876705523612087
1.6329105187484525,9.684160760630107,-0.02747074504114602,0.7148382341611385,-1.0232989075371495
1.6274464299705056,9.542849342339544,-0.027170142738323556,0.6982759487445069,-1.0591810680400087
1.6220400784529438,9.404842615992315,-0.02689337243729238,0.6817913147277945,-1.0952176263391127
1.6166868315648946,9.270125197310744,-0.026639096443201612,0.6653828720879349,-1.1313083257501995
1.6113823251613117,9.138681984123721,-0.02640596759262659,0.6490492597822943,-1.167351789910607
1.6061224654401336,9.010498136346005,-0.026192629619155583,0.6327892179948774,-1.2032452411078929
1.6009034307553054,8.885559055446059,-0.025997717229124227,0.6166015910045795,-1.2388842057396163
1.5957216734445208,8.763850363272393,-0.025819855878724044,0.6004853307320651,-1.2741622050434844
1.5905739217326427,8.645357880096068,-0.02565766124005698,0.5844395010311846,-1.3089704290824946
1.5854571817746623,8.530067601712805,-0.025509738339744938,0.568463282801444,-1.3431973917985238
1.5803687399057504,8.417965675431649,-0.025374680349375133,0.5525559800101225,-1.376728564759802
1.5753061651705824,8.309038374757996,-0.0252510670023048,0.5367170267263968,-1.409445987023228
1.5702673122097428,8.203272072556803,-0.02513746260608989,0.5209459952855268,-1.4412278483127594
1.5652503245877378,8.100653212456347,-0.02503241361395913,0.5052426057190504,-1.471948042482714
1.560253638655119,8.001168278223712,-0.024934445712231443,0.4896067366072961,-1.501475687994248
1.5552759880465699,7.904803760809617,-0.024842060373259704,0.47403843753364555,-1.5296746118918803
1.5503164089277193,7.811546122721641,-0.02475373081524524,0.45853794334613596,-1.5564027935361642
1.5453742461161002,7.721381759340886,-0.02466789730094606,0.4431056904614067,-1.5815117641457814
1.5404491602163355,7.634296956746862,-0.024582961696702016,0.42774233547882395,-1.604845958053252
1.5355411359265576,7.550277845558096,-0.024497281201075662,0.4124487764088227,-1.6262420115209006
1.5306504916926063,7.469310350231336,-0.024409161138439103,0.3972261768587816,-1.645528005052755
1.5257778909091022,7.391380133189326,-0.02431684669659904,0.38207599356131594,-1.6625226454532398
1.5209243548925964,7.316472533065973,-0.024218513468460063,0.3670000076722057,-1.6770343845396132
1.516091277882255,7.244572496268194,-0.024112256634953044,0.3520003603055721,-1.6888604725770042
1.5112804443588796,7.175664500956852,-0.023996078598801544,0.337079592807864,-1.6977859464096767
1.5064940490145613,7.109732472446826,-0.023867874844381444,0.3222406922924173,-1.7035825552502086
1.5017347197545987,7.046759688922457,-0.023725417755244865,0.3074871429512706,-1.706007631648968
1.497005544172708,6.986728676266068,-0.023566338063664063,0.29282298361260356,-1.7048029220034162
1.4923101000134116,6.929621090715511,-0.023388103529297204,0.2782528718929567,-1.699693401093692
1.4876524902268315,6.875417588020106,-0.023187994336504203,0.26378215506110597,-1.6903861100073627
1.4830373833386261,6.824097677781875,-0.022963074545551444,0.2494169473211875,-1.6765690785449958
1.4784700600135114,6.775639561795725,-0.022710158705593696,0.23516421254033018,-1.6579104248047056
1.4739564669035208,6.730019955506947,-0.022425772394313127,0.22103185034744646,-1.634057770466771
1.4695032791719673,6.687213892291815,-0.022106104921220664,0.2070287818038744,-1.6046381765205717
1.465117973519241,6.647194511292724,-0.021746951606043948,0.19316502818702985,-1.569258899500951
1.4608089141850344,6.609932831233863,-0.021343641736021265,0.17945177240160043,-1.5275094047410456
1.4565854553899027,6.575397515338757,-0.020890946215295778,0.16590138654945968,-1.4789652666899817
1.4524580652127788,6.5435546366335196,-0.020382955555942935,0.15252740050291025,-1.4231948568809933
1.448438478314059,6.5143674591709235,-0.019812913431255883,0.13934437412303954,-1.3597700891096123
1.4445398887456888,6.48779625980923,-0.01917298225244623,0.12636761949391664,-1.2882829735375176
1.44077720020482,6.4637982278803925,-0.018453903156241486,0.11361269979444738,-1.20837031298497
1.437167360852208,6.442327496700596,-0.017644490369878647,0.10109461200353528,-1.1197494625485458
1.4337298253527888,6.423335380207742,-0.01673086462431365,0.08882655292498791,-1.0222683892501652
1.430487211361176,6.406770904983201,-0.015695275291815206,0.07681819932043267,-0.9159726512970494
1.427466256388103,6.392581729077367,-0.014514274438911963,0.06507355973789525,-0.8011890361782095
1.424699243004517,6.380715495225026,-0.013155859396949788,0.05358877878552874,-0.6786182519676497
1.422226167455801,6.371121522867806,-0.011574896090208052,0.04235094478666836,-0.5494147847884974
1.4200981494316671,6.363752410901565,-0.009705284151131465,0.03134017487573566,-0.41521098082198876
1.4183831975648855,6.358564431991937,-0.007444234516684967,0.020539614220561535,-0.27802317597580617
1.4171778129676218,6.3555138832456315,-0.004609611455953181,0.009965873242496346,-0.1399796353714895
1.41664282904163,6.354537669848543,-0.0007402278039641626,-0.00020373927161201726,-0.002901036947916963
