x,y,v_x,v_y,omega
2.375,32.48,0.0,3.3846153846153846,-3.1020408163265305
2.3743544882705825,31.87784211374142,-0.007172352549083175,3.3060277960354636,-2.90574555217255
2.3725131196780556,31.289547338009232,-0.01328729847899474,3.2305808232110813,-2.7280295080973853
2.3696528013498086,30.714568194894618,-0.01849401627930293,3.158076322506866,-2.566613533246309
2.365925637636897,30.15239135823614,-0.02291891386416372,3.0883329736984027,-2.41954850354594
2.36146268593236,29.60253479079948,-0.02666943840846609,3.0211844422644747,-2.285161104495396
2.356377089410113,29.06454518959468,-0.029837189616502766,2.9564777933444675,-2.162009508787606
2.3507666996058734,28.53799569783673,-0.03250047487504722,2.894072115077178,-2.0488469687741953
2.344716279520673,28.022483848903427,-0.03472641496051472,2.8338373175150613,-1.94459177435355
2.33829936042542,27.517629713143016,-0.03657268609784919,2.7756530798228742,-1.848302356321268
2.3315798116932682,27.02307422284123,-0.03808896648161382,2.7194079235302766,-1.7591565690898794
2.324613171965489,26.5384776543014,-0.039318141604824844,2.6649983935789705,-1.676434383582922
2.3174477811441703,26.063518248994697,-0.04029731196538312,2.6123283320510566,-1.5995033747531884
2.3101257456258555,25.59789095823187,-0.041058638238115196,2.5613082319803775,-1.5278065087535628
2.3026837634783304,25.14130629789276,-0.0416300522899402,2.511854660676379,-1.46085182992672
2.2951538316349382,24.693489301504478,-0.042035857081081714,2.4638897436378464,-1.39820372322607
2.2875638534164713,24.25417856144361,-0.04229723423522124,2.4173407014829236,-1.3394754877983888
2.2799381616172507,23.8231253493011,-0.04243267464500633,2.372139433433884,-1.2843230055815555
2.2722979698736614,23.400092807528452,-0.04245834472820528,2.3282221418177627,-1.23243932745965
2.2646617629627936,22.98485520541159,-0.04238839872588413,2.2855289928140077,-1.1835500307509865
2.2570456349708,22.577197253218937,-0.04223524562959712,2.2440038093266153,-1.1374092271193172
2.2494635828571496,22.17691346906323,-0.0420097778554109,2.2035937924034394,-1.0937961205940911
2.241927761767756,21.783807593619038,-0.041721567582295574,2.1642492680875947,-1.052512032203194
2.234448707473374,21.397692048363005,-0.04137903568861142,2.125923456979445,-1.0133778215023217
2.2270355304943616,21.018387433463673,-0.04098959741152826,2.08857226412424,-0.9762316466156019
2.219696085790482,20.645722061850847,-0.0405597881871324,2.0521540871293706,-0.9409270137483107
2.2124371213216887,20.27953152634943,-0.04009537257724147,2.016629640664173,-0.907331074866276
2.205264408303917,19.919658297075717,-0.03960143873133383,1.9819617957104017,-0.8753231386554692
2.198182855577469,19.565951346571143,-0.03908248045141995,1.9481154321182008,-0.844793365218566
2.191196610161911,19.218265800393876,-0.038542468610338276,1.9150573031847737,-0.8156416194258095
2.1843091457802,18.876462611106927,-0.03798491340866884,1.882755911114664,-0.7877764615714431
2.1775233408874377,18.540408253795604,-0.03741291873313779,1.8511813923445006,-0.7611142571210061
2.1708415475291183,18.209974441420457,-0.03682922969263083,1.8203054118237822,-0.7355783899721285
2.1642656521742194,17.88503785846682,-0.03623627425068932,1.7901010654388452,-0.7110985658764194
2.1577971295149974,17.565479911490698,-0.03563619974066893,1.760542789851388,-0.6876101945516992
2.1514370900939603,17.251186495285317,-0.03503090493751876,1.7316062790972977,-0.6650538406089382
2.1451863225057313,16.9420477735044,-0.034422068265028936,1.7032684073573443,-0.6433747347735993
2.1390453308245827,16.63795797267897,-0.03381117263662095,1.6755071573696718,-0.622522338035283
2.133014367824975,16.33881518865517,-0.033199527359018696,1.6483015540058645,-0.6024499523446403
2.1270934644904056,16.044521204562574,-0.03258828746953109,1.621631602578511,-0.5831143723190423
2.1212824562436627,15.75498131949647,-0.031978470827611266,1.5954782314893305,-0.5644755731405984
2.115581006277712,15.4701041871647,-0.03137097323850917,1.5698232388636715,-0.5464964304502713
2.1099886263197374,15.189801663810467,-0.0307665818500964,1.544649242850051,-0.5291424685754939
2.1045046951203137,14.913988664777605,-0.030165987032388857,1.5199396352928547,-0.5123816338888043
2.099128474924406,14.642583029135103,-0.029569792922144567,1.495678538512731,-0.4961840904924708
2.093862350886845,14.37550594743675,-0.0289426963840874,1.4718445914689713,-0.4794992448915215
2.0887081107022105,14.11268125370335,-0.028326639000736734,1.4484297833465867,-0.46351783129793417
2.0836637597594643,13.85403475754061,-0.02772170480755575,1.4254201740171717,-0.44820232291992734
2.078727292221077,13.59949472504708,-0.027127934507861065,1.4028024092442821,-0.4335175723484324
2.0738966983172555,13.348991776149205,-0.02654533109015403,1.3805636896210114,-0.41943063657225255
2.0691699706872884,13.102458787351868,-0.0259738647983674,1.358691741460516,-0.40591061658305433
2.0645451098777468,12.859830799565689,-0.025413477529876858,1.3371747894970265,-0.3929285102128797
2.060020129094616,12.621044930696954,-0.024864086727130703,1.3160015312666786,-0.38045707698597064
2.055593058295294,12.386040292708614,-0.02432558882089094,1.2951611130481941,-0.3684707138902595
2.0512619476965552,12.154757912881493,-0.02379786227620347,1.2746431072531679,-0.3569453410837737
2.0470248707659398,11.927140659023898,-0.023280770286194526,1.2544374911645533,-0.3458582966490628
2.042879926756366,11.70313316839539,-0.022774163153512793,1.2345346269299877,-0.3351882395960121
2.0388252428370355,11.482681780126537,-0.022277880394605445,1.2149252427239323,-0.324915060391298
2.0348589758677056,11.265734470931449,-0.021791752597948223,1.1956004149992878,-0.31501979836235355
2.0309793138581504,11.052240793923538,-0.021315603063772857,1.17655155175526,-0.30548456538600227
2.027184477149939,10.84215182035772,-0.02084924924968712,1.1577703767538245,-0.29629247532771696
2.0234727193535247,10.635420084133873,-0.02039250404380967,1.1392489146222498,-0.2874275787474965
2.0198423280699678,10.431999528907326,-0.01994517688459689,1.1209794767838117,-0.27887480243327883
2.01629162542336,10.231845457662104,-0.019507074744381066,1.1029546481631176,-0.2706198933631785
2.0128189684271094,10.03491448461195,-0.01907800299173366,1.0851672746163827,-0.2626493667341604
2.009422749204706,9.84116448930282,-0.018657766146082805,1.0676104510406177,-0.25495045772747044
2.0061013950832716,9.650554572798455,-0.018246168536523825,1.0502775101189905,-0.2475110767106323
2.0028533685761944,9.463045015838105,-0.01784301487544229,1.0331620116626785,-0.24031976760242837
1.9996771672693288,9.278597238862353,-0.01744811075639996,1.0162577325123303,-0.23336566915131793
1.99657132362363,9.097173763809408,-0.017061263084697662,0.9995586569648368,-0.2266384788994752
1.9935375389298284,8.91895317841255,-0.016647455735319696,0.980670069666935,-0.26743448325906033
1.9905745080823445,8.74412336321473,-0.016275109236725566,0.9618834325310931,-0.30936750014926767
1.9876748872093608,8.57266619463119,-0.015942900463092265,0.943196218397127,-0.3523391454680531
1.9848315722157606,8.404563995292701,-0.015649488354687678,0.9246059964749672,-0.3962523424255606
1.9820377017471138,8.23979951691355,-0.015393516852498379,0.9061104299600441,-0.4410111088081593
1.9792866596548166,8.078355923558632,-0.015173617506359791,0.887707273983494,-0.48652034473150674
1.9765720770195043,7.920216775249241,-0.014988411774887066,0.8693943738986369,-0.5326856199466918
1.973887833786795,7.765366011846655,-0.014836513032994042,0.8511696639078715,-0.5794129597346155
1.971228060066797,7.613787937151617,-0.014716528300316098,0.8330311660370183,-0.6266086283866948
1.968587137146643,7.4654672031562335,-0.01462705970139625,0.8149769894672457,-0.6741789092241416
1.965959698263575,7.320388794382751,-0.01456670566602712,0.7970053302381003,-0.7220298800527429
1.9633406291848252,7.178538012240821,-0.014534061875637777,0.7791144713388767,-0.7700671828844634
1.9607250686397037,7.039900459331452,-0.01452772195904529,0.7613027832096765,-0.8181957866803385
1.9581084086489493,6.904462023621555,-0.014546277938225487,0.743568724678088,-0.8663197417799858
1.9554862947965324,6.772208862407897,-0.014588320421962467,0.7259108443625586,-0.914341924580411
1.952854626489751,6.643127385983128,-0.014652438542275137,0.708327782579326,-0.9621637709093066
1.9502095572546647,6.517204240909319,-0.01473721962535116,0.6908182737963395,-1.0096849964042467
1.9475474951157061,6.394426292795991,-0.014841248585299102,0.6733811496850665,-1.05680330205747
1.9448651031107513,6.274780608469669,-0.014963107025308234,0.6560153428296057,-1.103414062914604
1.9421592999960682,6.158254437410399,-0.015101372026726026,0.6387198911622851,-1.1494099977229146
1.9394272611994774,6.04483519231724,-0.015254614602062424,0.621493943206124,-1.1946808171086563
1.9366664200848276,5.934510428649119,-0.015421397782936037,0.6043367642174254,-1.2391128476220956
1.9338744695966064,5.8272678229692545,-0.015600274308408909,0.5872477433366079,-1.2825886287212604
1.9310493643602866,5.723095149900434,-0.01578978387292139,0.5702264018725098,-1.324986479470307
1.928189323321981,5.621980257474043,-0.01598844988603114,0.5532724028651589,-1.3661800314052412
1.9252928330202947,5.523911040627645,-0.01619477568825966,0.536385562094809,-1.4060377236694186
1.9223586515940938,5.428875412573291,-0.01640724015841678,0.5195658607313555,-1.4444222561465287
1.9193858136424482,5.336861273721102,-0.016624292637647035,0.5028134598485411,-1.4811899959252919
1.9163736360675059,5.247856477799136,-0.016844347083933356,0.4861287170621854,-1.5161903320278471
1.9133217250477608,5.161848794760303,-0.01706577535768059,0.46951220559152096,-1.5492649729392496
1.9102299843084078,5.078825870009137,-0.017286899524017022,0.45296473608808846,-1.5802471811145593
1.907098624877622,4.9987751794147,-0.017505983040270283,0.43648738162787054,-1.6089609383525887
1.903928176543042,4.921683979499434,-0.017721220677285994,0.42008150631953417,-1.6352200357716808
1.900719501252056,4.847539252106678,-0.01793072700033728,0.4037487980444324,-1.6588270821928615
1.8974738087332497,4.776327642750669,-0.01813252320861931,0.3874913059112303,-1.6795724251625719
1.8941926746554048,4.70803539174171,-0.018324522100769236,0.3713114830771885,-1.6972329798275252
1.8908780616856848,4.642648257055843,-0.018504510896118202,0.355212235654661,-1.7115709626971105
1.8875323438614453,4.580151427783971,-0.018670131595433376,0.3391969784772513,-1.722332530419027
1.8841583347521675,4.5205294268531375,-0.018818858507653087,0.32326969853199033,-1.7292463286754425
1.8807593199618615,4.463766001568743,-0.01894797249574572,0.30743502685017493,-1.7320219640973025
1.8773390946114525,4.409844000392237,-0.019054531397688954,0.29169831955544967,-1.7303484240432456
1.8739020065505811,4.358745234263775,-0.019135335945325117,0.27606574853856003,-1.7238924871854402
1.870453006187215,4.310450320735264,-0.01918689031429719,0.2605444017782306,-1.7122971950189785
1.866997704004619,4.264938509248079,-0.019205356158992846,0.24514239252382172,-1.6951804949854976
1.8635424370797589,4.222187486153551,-0.019186498561672986,0.22986897519314048,-1.6721342262340309
1.86009434625971,4.182173158661595,-0.019125621661095576,0.21473466360638493,-1.6427237084472932
1.8566614661503764,4.144869418012405,-0.019017490664832794,0.19975134360681968,-1.6064883261610468
1.8532528308204603,4.1102478841007155,-0.018856235223121732,0.18493236652306813,-1.562943694899156
1.8498785992837772,4.078277636993754,-0.01863522629558018,0.17029260133208055,-1.5115862779618814
1.8465502066657986,4.048924945929983,-0.01834691390418238,0.1558484104875923,-1.4519017287806095
1.8432805499432559,4.022153014376254,-0.017982605235180277,0.1416174956649574,-1.3833788038977448
1.8400842220391396,3.9979217717155606,-0.017532149255003664,0.12761853389830274,-1.3055314593351828
1.8369778161472137,3.9761877593566304,-0.016983471766393442,0.1138704923120403,-1.2179326972790987
1.833980335576852,3.9569041821087936,-0.016321867904290147,0.10039147710837705,-1.1202647204406826
1.8311137666093409,3.9400212227425015,-0.015528898401390982,0.08719696029487507,-1.0123904780015671
1.8284039084211627,3.92548674037441,-0.014580637022810466,0.07429728823945908,-0.8944504907455717
1.8258816143861978,3.9132474684101766,-0.01344485225457952,0.06169462247426119,-0.766983293209862
1.8235847012959403,3.903250743272647,-0.012076404303835438,0.04938010127608808,-0.6310535795499373
1.8215609764315608,3.8954465324719294,-0.01040942752260389,0.03733335206522667,-0.4883449211730294
1.8198732985880506,3.8897889169673476,-0.008342548516396825,0.025529042430124493,-0.3411370383115171
1.8186091744083779,3.8862347752886137,-0.00570327570219085,0.013961420666910291,-0.19206372042098002
1.8179057733334183,3.8847322127454404,-0.00211229179735737,0.0027337187016634856,-0.04358596366059955
