x,y,v_x,v_y,omega
2.375,32.48,0.0,3.948717948717949,-7.755102040816326
2.3718987411926413,31.58656014297367,-0.02696746789007554,3.8203242862935927,-7.04085476126789
2.3632368699699517,30.721747243054374,-0.04835315143766074,3.6997878869176795,-6.4267895853531
2.3501692950696347,29.88384253739997,-0.06527793465205319,3.586339988337998,-5.895026560238886
2.333621168464982,29.071291704852225,-0.07861881843188376,3.4793194251206554,-5.431427639399448
2.3143372620388987,28.28268247378625,-0.08906732440362225,3.3781521493660978,-5.024708477980798
2.292919685028041,27.516726366687756,-0.0971724756907915,3.2823357384469016,-4.665785329351648
2.2698569733590936,26.772243601649166,-0.10337284316962042,3.1914274358017107,-4.347288364555557
2.245546714859961,26.04815045010341,-0.10802070899674868,3.1050347515526666,-4.063194708336167
2.2203132797172516,25.343448538666873,-0.11140046615724858,3.0228079565911234,-3.808548812647003
2.1944218097016126,24.657215713189366,-0.11374275137004596,2.94443400408285,-3.579247342839335
2.1680893239318606,23.988598174946503,-0.11523538575823225,2.8696315458551176,-3.3718722489896793
2.1414935855594117,23.336803664954743,-0.11603190443697718,2.798146801899313,-3.1835601897195795
2.1147802178526245,22.70109552076381,-0.1162582495350832,2.729750104108772,-3.011899632998059
2.088068443002123,22.080787466122878,-0.11601805351275855,2.664232979725413,-2.8548492060645856
2.061455731072726,21.475239021198874,-0.11539683282982384,2.6014056717876874,-2.710672486243997
2.0350215818972304,20.883851441980376,-0.11446533391361359,2.5410950170688267,-2.577885604341032
2.008830613691147,20.306064113813676,-0.11328221570450622,2.483142619163341,-2.4552149004697528
1.9829350947236324,19.741351336873887,-0.11189621009996532,2.427403267269591,-2.3415625168052974
1.9573770255850613,19.189219451620218,-0.11034786936587013,2.373743561023203,-2.2359782944347644
1.9321898573108909,18.64920426053414,-0.10867098519213365,2.3220407092905053,-2.137636705739474
1.9073999132815205,18.120868709143203,-0.10689374549804415,2.2721814767176363,-2.0458178306248946
1.883027569249884,17.603800794826995,-0.1050396808640124,2.2240612564667965,-1.959891596820784
1.8590882351778977,17.09761167643866,-0.10312844150108585,2.1775832512578415,-1.879304667692219
1.8355931741304077,16.60193396154793,-0.10117643717273915,2.132657747791973,-1.8035694874806423
1.812550186781042,16.116420151268613,-0.09919736586522367,2.0892014720281775,-1.732255092465298
1.7899641847469554,15.64074122529086,-0.0972026518224869,2.0471370147348815,-1.664979373775968
1.7678376716962467,15.17458535198704,-0.09520180948802459,2.006392318341818,-1.601402538427999
1.7461711477371096,14.717656710371976,-0.09320274667838406,1.9669002174413648,-1.5412215633101118
1.7249634498266082,14.26967441233144,-0.09121201776075741,1.9285980263893732,-1.484165475158134
1.7042120386930653,13.830371514933475,-0.08923503557440059,1.8914271683755572,-1.4299913201494858
1.6839132409428088,13.399494113843055,-0.08727624921043733,1.8553328411063579,-1.3784807113089461
1.6640624535356605,12.976800509902844,-0.08533929346041846,1.8202637148954697,-1.3294368617031027
1.64465431659794,12.562060441846203,-0.08342711469367127,1.7861716595101,-1.282682027409474
1.6256828595445805,12.155054378894508,-0.08154207707467281,1.7530114965915824,-1.2380552972484062
1.607141624661493,11.755572867676317,-0.0796860523434803,1.7207407748709476,-1.1954106768658321
1.5890237716224065,11.363415928505518,-0.07786049582248755,1.6893195657446936,-1.1546154234279218
1.571322165854371,10.978392496581549,-0.076066510856084,1.658710277072428,-1.1155485943097958
1.5540294532015708,10.600319904137127,-0.07430490351609044,1.628877483313854,-1.0780997790273015
1.5371381229508145,10.229023399966483,-0.0725762290991816,1.5997877703439212,-1.0421679885101656
1.5206405609600404,9.864335703127068,-0.07088083169015978,1.5714095934770747,-1.007660679835903
1.5045290943621463,9.506096587926358,-0.06921887785674419,1.5437131473986785,-0.974492897888398
1.4887960290911486,9.154152497588047,-0.06759038536932285,1.5166702468475084,-0.9425865181952718
1.473433681288601,8.808356184243202,-0.0659952476963064,1.490254217020698,-0.9118695775326394
1.458460031442843,8.468569546553777,-0.06421040313637139,1.46441219766994,-0.8757138839074381
1.4438909483516251,8.134659903959623,-0.06247727591769874,1.439149911844452,-0.8414005058215285
1.4297146751373857,7.806496550832165,-0.06079466507568851,1.4144444631769089,-0.8088117730228483
1.415919736705877,7.483953913127213,-0.059161321285257334,1.390274125561806,-0.7778389593106575
1.4024949491575458,7.166911287836665,-0.0575759617437075,1.3666182682690426,-0.7483814956108492
1.389429426052047,6.855252599007553,-0.056037282651934,1.3434572867667223,-0.7203462614549927
1.376712582037467,6.548866169073403,-0.05454396964876142,1.3207725387476146,-0.6936469461595188
1.3643341342802897,6.247644504353389,-0.05309470650060733,1.2985462849046774,-0.6682034720643313
1.3522841020677459,5.951484093674036,-0.05168818230412137,1.2767616340462271,-0.6439414731116612
1.3405528048992805,5.660285219157846,-0.05032309742166443,1.2554024921815041,-0.6207918228464764
1.329130859336988,5.373951778304015,-0.0489981683374024,1.2344535152431129,-0.5986902066163821
1.3180091748448193,5.092391116559419,-0.04771213159449983,1.213900065144681,-0.5775767333562566
1.3071789488121253,4.815513869644221,-0.04646374695066498,1.1937281689005304,-0.5573955828732371
1.296631660927807,4.543233814956306,-0.045251799869493514,1.1739244805595939,-0.538094685011624
1.286359067046277,4.275467731433164,-0.044075103448159014,1.1544762457286035,-0.5196254274838024
1.276353192664969,4.012135267299172,-0.04293249986756322,1.1353712684800146,-0.5019423895100611
1.2666063261147467,3.7531588151712434,-0.0418228614387166,1.1165978804584906,-0.48500309872380715
1.2571110115488102,3.4984633940366443,-0.040745091308557184,1.0981449120162903,-0.4687678090747627
1.2478600418021988,3.2479765376541536,-0.039698123879368406,1.0800016652227709,-0.45319929770615663
1.2388464511824282,3.001628188963771,-0.03868092498820142,1.0621578886066394,-0.4382626789968527
1.2300635082418887,2.759350600121312,-0.03769249188605448,1.0446037535016917,-0.4239252341493999
1.2215047085741446,2.5210782378026764,-0.03673185305085147,1.0273298318777344,-0.41015625487326834
1.2131637676690108,2.2867476934486817,-0.03579806786335663,1.0103270755482971,-0.39692689986173096
1.2050346138550658,2.056297598145221,-0.034890226170947516,0.9935867966557219,-0.38421006289331994
1.197119142954599,1.8297709080403486,-0.0339399555722408,0.9762105086040497,-0.389998693940516
1.189417527698864,1.6072258336099097,-0.03303061186893233,0.9589640516606293,-0.3982441746315061
1.1819203768862714,1.3886329653270657,-0.03216200389274394,0.9418434986249778,-0.40881209129447127
1.174618357077573,1.1739637780071845,-0.0313338205307199,0.9248450867652811,-0.4215725557370599
1.1675022188667799,0.9631905939017358,-0.030545642171828764,0.9079652098038474,-0.4363998799301319
1.160562820629399,0.7562865475662548,-0.02979695119670069,0.8912004105046821,-0.45317226491465684
1.1537911499595706,0.5532255523679268,-0.029087141584415263,0.8745473738286113,-0.47177150254086553
1.1471783429913915,0.3539822685057459,-0.028415527704097426,0.8580029206251227,-0.4920826887187314
1.1407157017847807,0.15853207242299305,-0.0277813523533876,0.8415640018336212,-0.5139939469189966
1.1343947099425744,-0.03314897250244542,-0.027183794100580003,0.8252276931701624,-0.5373961607147543
1.1282070466130403,-0.22108414409909471,-0.026621973982326175,0.8089911902789624,-0.562182714195426
1.1221445990205854,-0.405296088479254,-0.02609496160423887,0.7928518043311195,-0.5882492391181131
1.116199473657039,-0.5858068461537798,-0.02560178068746717,0.7768069580560578,-0.6154933676859362
1.1103640062564446,-0.7626378772825646,-0.025141414100311548,0.7608541821942505,-0.643814489859198
1.1046307706677387,-0.9358100861566285,-0.02471280841017468,0.7449911123628358,-0.6731135141130046
1.0989925867319983,-1.1053438450061748,-0.024314877987567925,0.7292154863288408,-0.7032926305542665
1.0934425272640222,-1.271259017228104,-0.023946508690483825,0.7135251416879161,-0.7342550753015739
1.0879739242318869,-1.4335749801264441,-0.02360656115417178,0.6979180139497982,-0.7659048950130162
1.0825803742227156,-1.5923106472597226,-0.02329387370818714,0.6823921350352115,-0.7981467104192074
1.0772557432782324,-1.7474844904909261,-0.0230072649394936,0.6669456321926399,-0.8308854776810853
1.0719941711796948,-1.899114561838033,-0.02274553591735476,0.6515767273474085,-0.8640262463438924
1.066790075258536,-2.0472185152264686,-0.02250747209272144,0.6362837368998673,-0.8974739125994011
1.061638153806469,-2.1918136282492924,-0.022291844881774794,0.621065071994263,-0.9311329664971205
1.0565333891569435,-2.3329168240464284,-0.02209741294018675,0.6059192392851714,-0.9649072316609764
1.0514710505087026,-2.470544693421168,-0.021922923131472715,0.5908448422342735,-0.9986995959698027
1.0464466965617911,-2.604713517320448,-0.02176711118949714,0.5758405829768721,-1.0324117315467842
1.0414561780367526,-2.7354392898153677,-0.021628702071708132,0.5609052648050208,-1.0659438022736043
1.0364956401489689,-2.8627377417300437,-0.021506409995975577,0.5460377953225889,-1.0991941568982684
1.031561525112189,-2.986624365080921,-0.02139893814993691,0.531237190337213,-1.13205900564024
1.0266505747483385,-3.1071144385046807,-0.021304978057458,0.5165025785650535,-1.1644320780116049
1.021759833284786,-3.2242230538718957,-0.021223208582129345,0.5018332072368248,-1.1962042593677022
1.0168866504254457,-3.3379651443055423,-0.021152294542567538,0.4872284487079341,-1.2272632034747213
1.0120286847885618,-3.4483555138490374,-0.0210908849085965,0.4726878081920393,-1.2574929181356191
1.0071839078118525,-3.555408869058084,-0.02103761054104884,0.45821093275622005,-1.286773320651027
1.0023506082350846,-3.6591398528248718,-0.020991081430846867,0.44379762173759846,-1.3149797596120303
0.9975273972812542,-3.759563080782783,-0.02094988338507021,0.42944783876600295,-1.3419824992330294
0.9927132146706155,-3.856693180685504,-0.02091257409874516,0.4151617256055006,-1.3676461621454752
0.9879073356170536,-3.9505448352069976,-0.020877678540923986,0.40093961805968276,-1.3918291263031615
0.9831093789740619,-4.041132828669362,-0.020843683572046072,0.386782064221746,-1.4143828714214874
0.9783193167181998,-4.1284720982748055,-0.020809031696319813,0.37268984539079514,-1.4351512702235771
0.9735374849817999,-4.212577790497079,-0.02077211383759257,0.35866400002028553,-1.4539698197501325
0.9687645968743919,-4.2934653233773545,-0.020731261009434284,0.3447058511125232,-1.4706648081880944
0.9640017573644337,-4.371150455570479,-0.020684734729332743,0.33081703752333114,-1.485052413203723
0.9592504805303168,-4.4456493631001095,-0.020630716002119284,0.3169995496908239,-1.4969377288011179
0.954512709533281,-4.51697872490449,-0.020567292667756032,0.30325577034726914,-1.506113719518876
0.9497908397162611,-4.5851558183870935,-0.020492444871547413,0.28958852080580855,-1.5123601036917678
0.9450877452937325,-4.6501986263233235,-0.02040402836783185,0.2760011134222851,-1.5154421720746285
0.9404068101711478,-4.712125956608581,-0.02029975530681757,0.2624974107973171,-1.515109555130261
0.935751963522651,-4.770957576450378,-0.0201771720714159,0.24908189217481164,-1.5110949628579122
0.9311277208686641,-4.826714362685756,-0.020033633615425588,0.23575972726323258,-1.503112936843358
0.9265392315402732,-4.879418469908515,-0.01986627358797447,0.22253685728247719,-1.4908586776712154
0.9219923336102382,-4.9290935179617605,-0.019671969281894543,0.2094200823109704,-1.4740070454967942
0.9174936176351629,-4.975764800000192,-0.019447300066586685,0.19641715280579558,-1.452211882587117
0.9130505009290768,-5.019459511615473,-0.019188497377640112,0.1835368612401055,-1.4251058814772846
0.9086713146395438,-5.060207000236936,-0.018891383400907968,0.1707891267726361,-1.3923013317423796
0.9043654067289162,-5.098039031853183,-0.018551294082809852,0.1581850611947533,-1.353392237263176
0.9001432652500754,-5.132990068585251,-0.018162979646241077,0.14573699734493883,-1.3079585245808873
0.8960166683372797,-5.165097545119565,-0.017720471769373622,0.1334584507795559,-1.2555733871765171
0.8919988705878745,-5.194402123588361,-0.017216899964584448,0.12136397068822691,-1.1958152582503048
0.8881048407797376,-5.220947894075088,-0.016644228801823823,0.10946881615287102,-1.128286494590506
0.8843515744427803,-5.244782470462724,-0.01599286978041324,0.09778836982654467,-1.052641564352985
0.8807585187567815,-5.265956908536097,-0.015251092706533959,0.08633717863755412,-0.968628223551438
0.8773481698636432,-5.284525347417976,-0.014404115059886187,0.07512750729183972,-0.8761454235349266
0.8741469391015169,-5.300544255586395,-0.013432674175993841,0.06416734634659138,-0.7753205227654164
0.8711864433034893,-5.3140711724383465,-0.012310767545985517,0.053458017583421794,-0.6666037995934861
0.8685054716640532,-5.32516292612285,-0.011002029318675768,0.042992014455748885,-0.5508671639062772
0.8661530630019894,-5.333873570701591,-0.009453698177532392,0.03275272101155803,-0.4294735786295783
0.864193559456482,-5.340252878207991,-0.007585463087749523,0.022719518174541948,-0.3042570239017407
0.862715941332229,-5.344347537115361,-0.0052633901666252125,0.012886211454730583,-0.17733646768467834
0.8618569381375238,-5.346211757237263,-0.002206202830811157,0.0033243983009373125,-0.05071283744194943
