x,y,v_x,v_y,omega
2.375,32.48,0.0,2.9743589743589745,-7.26530612244898
2.372873766842642,31.804770679626312,-0.018488983977023973,2.8972003332382763,-6.751161539094378
2.366838233205012,31.146869453023683,-0.03399391721975806,2.823679898088927,-6.291833603585639
2.357526191554311,30.505492587062655,-0.046980358003732334,2.753510240702642,-5.879741363352002
2.345472513400189,29.87989860400103,-0.05783423464080474,2.6864374380940843,-5.50855184789492
2.331130710727617,29.269401197661747,-0.06687709294677793,2.6222356605083887,-5.172943503105815
2.314886368410177,28.67336326586314,-0.07437805763965646,2.5607028768707867,-4.8684204448203845
2.297068111671443,28.09119183355874,-0.08056330530585606,2.5016574040370467,-4.591165284066166
2.2779566141793928,27.52233369540641,-0.08562362940762788,2.4449351016353775,-4.337921558739927
2.2577920362692336,26.966271646010092,-0.08972052633288463,2.3903870670282643,-4.105899119855827
2.2367801964898475,26.42252119523851,-0.09299112392264824,2.337877722289839,-3.8926974767541727
2.215097714667413,25.89062768780617,-0.09555219627243261,2.2872832119044273,-3.696243308335189
2.192896315146356,25.37016376276116,-0.09750345173676124,2.2384900493565523,-3.5147392319662263
2.1703064407278925,24.860727101101595,-0.09893023885857098,2.1913939650744005,-3.346621579946717
2.147440298186195,24.36193841945652,-0.09990578324314799,2.145898918795845,-3.1905254284273914
2.124394433015483,23.873439675346276,-0.10049304432825729,2.1019162473802053,-3.045255499547717
2.1012519127241642,23.394892455509545,-0.1007462625527794,2.0593639251130944,-2.90976184547894
2.0780841834171735,22.925976523533357,-0.10071225316018358,2.0181659181580893,-2.783119445403338
2.054952652751949,22.466388506833333,-0.10043149175480874,1.978251618363861,-2.664511019439492
2.031910042979963,22.015840706115103,-0.09993902800159372,1.9395553444033657,-2.5532124990229534
2.00900155020884,21.574060012963237,-0.0992652569646924,1.9020159003954604,-2.448580700067764
1.9862658398663777,21.14078692327149,-0.09843657210019667,1.8655761838805804,-2.3500428299365796
1.9637359033279023,20.715774635939695,-0.09747591953872119,1.8301828363959205,-2.257087526784169
1.9414397965566996,20.298788227689116,-0.09640326977608488,1.7957859310004158,-2.1692571839672157
1.919401278226485,19.88960389604466,-0.0952360200518674,1.7623386919948636,-2.086141355805036
1.8976403620050795,19.488008263541793,-0.09398933839513772,1.7297972428126558,-2.007371076242237
1.876173795368512,19.093797737072883,-0.09267645844457754,1.698120378656162,-1.9326139506184676
1.855015475395977,18.706777917018258,-0.0913089326209445,1.6672693609492666,-1.8615699041271718
1.8341768103973215,18.32676305143392,-0.08989684997606212,1.6372077310884583,-1.7939674896905824
1.8136670348887927,17.953575531107035,-0.08844902401114456,1.6079011413192463,-1.7295606737160265
1.7934934843133123,17.587045421757097,-0.08697315490607571,1.579317200854144,-1.668126031181056
1.7736618349610018,17.22701003006567,-0.08547596989662494,1.5514253355930265,-1.6094602922405448
1.7541763137534616,16.87331350057083,-0.08396334495155112,1.5241966600142796,-1.553378191471888
1.7350398818863704,16.525806440771234,-0.08244041041445989,1.4976038599822081,-1.499710578306975
1.7162890700027371,16.18435206293274,-0.08061012770409032,1.4715646429612388,-1.439886761935967
1.6979562973316165,15.84881889871179,-0.07880528682739349,1.4461150459165637,-1.3831367594976391
1.6800354858553321,15.519074043519204,-0.0770278564446455,1.4212315209754962,-1.329262628263986
1.6625201489747137,15.19498986804275,-0.07527942077812244,1.3968917440371502,-1.2780815958248146
1.6454034740302008,14.876443745991729,-0.07356123091329458,1.3730745346673927,-1.2294247141403059
1.6286783937804747,14.563317799541405,-0.07187424951910633,1.3497597822919494,-1.1831356488653304
1.6123376482525111,14.255498661095555,-0.07021918985448929,1.3269283781067542,-1.1390695887878328
1.5963738381912702,13.95287725011185,-0.06859654980847484,1.3045621521863375,-1.0970922620941375
1.5807794711771161,13.655348563848012,-0.06700664161895241,1.282643815325298,-1.0570790477927883
1.5655470013407657,13.362811480988093,-0.06544961782757097,1.261156905195727,-1.018914172032185
1.5506688634859715,13.075168577199328,-0.06392549395324924,1.2400857364456948,-0.982489980266771
1.5361375023265769,12.792325951751923,-0.062434168302355424,1.2194153544012944,-0.9477062772880024
1.521945397454807,12.514193064407966,-0.060975439278252365,1.1991314920679115,-0.9144697280619508
1.5080850845797054,12.240682581852234,-0.0595490205052395,1.17922053015586,-0.8826933131239717
1.4945491735069072,11.971710232997907,-0.05815455404083154,1.159669459881774,-0.8522958329884213
1.4813303632720052,11.707194672554639,-0.05679162191484007,1.1404658483205514,-0.8232014566515923
1.4684214547884467,11.447057352295865,-0.05545975620306027,1.1215978061035714,-0.7953393098105245
1.45581536132616,11.191222399507026,-0.054158447816824495,1.103053957277629,-0.7686430988991347
1.4435051170980562,10.93961650213718,-0.052887154166685685,1.0848234111558144,-0.743050767464779
1.4314838841974553,10.692168800213498,-0.051645305838538484,1.0668957360066433,-0.7185041817802738
1.4197449580996608,10.448810783111984,-0.05043231240315364,1.0492609344412938,-0.6949488429149272
1.4082817719148197,10.209476192308568,-0.04924756746502876,1.0319094203710109,-0.6723336227787301
1.3970878995563578,9.97410092926286,-0.04809045304333756,1.0148319974177553,-0.6506105219112751
1.3861570579692464,9.742622968112642,-0.04696034336632619,0.9980198386711021,-0.6297344470153089
1.3754931218988868,9.515089383446682,-0.045769535506365346,0.9805330714676805,-0.628517853409939
1.3650980234963142,9.291562233386554,-0.0446226245160056,0.9631812768812716,-0.6299894370413318
1.354961687171219,9.072010953776253,-0.043519430484823395,0.945960284947434,-0.6340038529279284
1.3450740935773289,8.856405918844374,-0.042459644244655884,0.9288661057645589,-0.6404208568336138
1.3354253079286005,8.644718400826811,-0.04144283965733003,0.9118949204751302,-0.6491049433311211
1.3260055056070155,8.436920531585471,-0.040468484878192226,0.8950430729278339,-0.6599250007715167
1.316804995288427,8.232985266071118,-0.0395359526747497,0.8783070619795761,-0.6727539815588272
1.3078142397954162,8.032886347487377,-0.03864452987317133,0.8616835344007922,-0.6874685862190726
1.2990238748700775,7.836598274020865,-0.03779342599933916,0.8451692783514916,-0.703948959831542
1.2904247260449662,7.644096267009523,-0.03698178117554142,0.8287612173993211,-0.7220783994578001
1.2820078237769776,7.455356240427324,-0.03620867332870689,0.8124564050545908,-0.7417430712612343
1.273764416996632,7.2703547715689645,-0.0354731247612555,0.7962520198007237,-0.7628317360574165
1.2656859852140063,7.0890690728226495,-0.034774108131142095,0.7801453606020041,-0.7852354820735047
1.2577642493123269,6.911476964422928,-0.034110551883462334,0.7641338428738516,-0.8088474637236331
1.2499911811509445,6.737556848078455,-0.03348134517203677,0.748214994904166,-0.8335626452268532
1.2423590120910095,6.567287681371948,-0.03288534230565954,0.7323864547176301,-0.8592775479047801
1.2348602405495903,6.400648952830924,-0.03232136675015934,0.7166459673782387,-0.8858899999976086
1.227487638681207,6.237620657568613,-0.03178821471404335,0.7009913827288153,-0.9132988878294621
1.2202342582797334,6.078183273394259,-0.031284658342249076,0.6854206535699052,-0.9414039071368973
1.2130934359883454,5.922317737291031,-0.03080944853938632,0.6699318342842613,-0.9701053133474845
1.206058797900626,5.770005422157862,-0.030361317440781466,0.6545230799172177,-0.9993036695582932
1.199124263632076,5.621228113708703,-0.029938980546610452,0.6391926457276389,-1.0288995909163399
1.1922840499381056,5.475967987418699,-0.029541138531393587,0.6239388872289103,-1.0587934840440023
1.1855326739521146,5.334207585401735,-0.029166478738093953,0.6087602607446772,-1.0888852800813926
1.1788649561154914,5.195929793097466,-0.028813676362977842,0.5936553245098335,-1.1190741598339926
1.172276022870313,5.061117815638159,-0.028481395334225168,0.5786227403537126,-1.1492582694166873
1.1657613091852193,4.929755153756371,-0.028168288883982075,0.5636612760096484,-1.179334424673911
1.1593165609854015,4.8018255790833955,-0.027872999810085796,0.5487698081031962,-1.20919780252918
1.1529378375589394,4.677313108675275,-0.027594160420018183,0.5339473258804729,-1.2387416172751882
1.1466215140138807,4.556201978587946,-0.027330392145709145,0.5191929357484609,-1.2678567796574485
1.1403642838635648,4.438476616305117,-0.02708030481355956,0.5045058667109141,-1.296431536430134
1.134163161821822,4.324121611801715,-0.026842495549422522,0.4898854767969139,-1.324351087872816
1.1280154868949201,4.213121687001717,-0.02661554729320196,0.47533126059438513,-1.3514971805526859
1.1219189258636082,4.105461663361265,-0.026398026892118426,0.4608428580182387,-1.377747672401356
1.1158714772564367,4.0011264272759774,-0.026188482735460223,0.44642006446253446,-1.4029760669532911
1.109871475924891,3.9001008929743186,-0.025985441886675384,0.43206284250841115,-1.4270510133720309
1.1039175983419272,3.802369962516604,-0.025787406660837037,0.41777133538476546,-1.4498357686825505
1.0980088687584635,3.7079184824705536,-0.025592850586674046,0.40354588240697514,-1.4711876184513437
1.0921446663675307,3.61673119677895,-0.025400213682305942,0.38938703665045277,-1.4909572520367078
1.0863247336434003,3.52879269527185,-0.025207896962307068,0.3752955851504052,-1.508988088509269
1.0805491860434862,3.444087357204559,-0.025014256080424617,0.3612725719564709,-1.52511554947367
1.0748185232846112,3.362599289122411,-0.024817593996748735,0.34731932441002633,-1.5391662753884932
1.0691336424329116,3.284312256264368,-0.024616152539770068,0.3334374830512157,-1.550957282701021
1.063495853078994,3.209209606619563,-0.02440810271168864,0.3196290355992525,-1.5602950603562142
1.0579068949079475,3.1372741866456266,-0.02419153355828119,0.30589635547844235,-1.5669746062496066
1.0523689580188167,3.068488247547375,-0.02396443939068226,0.292242245375935,-1.570778407322807
1.0468847064020803,3.002833340904271,-0.02372470510267715,0.2786699863032368,-1.5714753717531886
1.0414573050493328,2.9402902023334967,-0.023470089269041195,0.26518339257305706,-1.5688197287935097
1.0360904512508238,2.8808386217963857,-0.02319820463103769,0.25178687296703295,-1.5625499223208883
1.0307884107399814,2.8244572991220736,-0.022906495463244515,0.23848549811392958,-1.5523875395689999
1.0255560594790445,2.7711236833686463,-0.02259221115359867,0.22528507365499117,-1.538036339020796
1.0203989320613434,2.720813794823428,-0.022252375087280993,0.21219221804256286,-1.5191814741654524
1.0153232779570798,2.6735020288437603,-0.021883747558490006,0.19921444265021127,-1.4954890572637556
1.0103361271881428,2.6291609414835335,-0.021482780867049443,0.1863602300474084,-1.4666062758068723
1.0054453675437691,2.5877610181264963,-0.021045563866635114,0.1736391034920426,-1.4321623729507817
1.0006598362399886,2.549270428430365,-0.020567751818413325,0.1610616764743052,-1.3917709441247024
0.9959894301394578,2.5136547741711865,-0.020044475142724245,0.14863966490983946,-1.3450342013287728
0.9914452405401992,2.480876841612858,-0.019470217024741384,0.1363858355973525,-1.2915501337754636
0.9870397215257385,2.450896377528732,-0.01883864397056881,0.1243138520906861,-1.2309238678886534
0.9827869056105889,2.4236699188085957,-0.018142363987252802,0.11243796286702638,-1.1627850101215267
0.9787026879721754,2.399150720435081,-0.01737257199895204,0.10077245777222363,-1.086813314289486
0.9748052125886326,2.3772888455263903,-0.016518518292724875,0.08933080230335327,-1.0027755255993223
0.9711154126426247,2.3580315019257014,-0.015566698629084025,0.07812435944175691,-0.9105763716319853
0.9676577874724572,2.34132372495322,-0.01449960719845962,0.06716065771025942,-0.8103256186435098
0.9644615453183232,2.327109496845427,-0.013293802837488638,0.05644132583577721,-0.7024194010143683
0.9615623169471881,2.3153333216965706,-0.01191687865064318,0.04596019719776499,-0.5876253990466939
0.9590047813904634,2.305942072003077,-0.010322560973048872,0.03570284361520947,-0.46714590297524006
0.9568468521470095,2.298886477234994,-0.00844204114394135,0.02565015436811674,-0.34261232971558264
0.9551670149191445,2.294120689323986,-0.006165239098363378,0.015791479640641495,-0.21595078096260276
0.9540805016140392,2.291595646108366,-0.003282702685161283,0.006165417886492953,-0.08907096259730096
