x,y,v_x,v_y,omega
2.375,32.48,0.0,2.1025641025641026,-6.653061224489796
2.3739353913056256,32.04273171019548,-0.010139130422611897,2.0618958003360057,-6.332157412451712
2.370863663783451,31.6138694993448,-0.019115417407625623,2.0225062077657427,-6.033683413800644
2.366015836432599,31.193152526109397,-0.027054366886199437,1.9843221087619265,-5.755530954844623
2.3595981529670658,30.780334660723973,-0.0340664280236442,1.9472766091944806,-5.495833693909056
2.3517950261944343,30.375183237487484,-0.040249065049034964,1.9113083740101706,-5.252934560558875
2.3427715819055632,29.977477955196598,-0.045688499606880144,1.8763609811411237,-5.025358197734925
2.3326758651224107,29.587009903205573,-0.050461184042191,1.8423823711543705,-4.811787595086792
2.3216407601902196,29.203580694769276,-0.05463505340724915,1.80932437585798,-4.611044185767358
2.3097856671801167,28.82700169250239,-0.058270594308016455,1.7771423123980867,-4.42207082157695
2.297217969848428,28.457093313342767,-0.06142176123187517,1.7457946319792501,-4.243917152819881
2.284034324576421,28.093684402474267,-0.06413676516819009,1.7152426143874422,-4.075727027042231
2.270321794985093,27.73661166734628,-0.06645875474922153,1.6854501011171819,-3.9167275904865857
2.256158853053217,27.385719164303257,-0.0684264065067402,1.6563832611973242,-3.766219831752731
2.241616264386256,27.040857831468685,-0.070074437940505,1.628010384846205,-3.6235703518981537
2.2267578726522235,26.70188506246307,-0.07143405476456963,1.6003017009215679,-3.488204181404348
2.211641296011657,26.368664316311623,-0.07253334181225071,1.5732292148064837,-3.3595984938760006
2.19631854653903,26.041064759545108,-0.07339760554610779,1.5467665639222377,-3.23727709041773
2.1808365820960747,25.718960937039885,-0.07404967486298508,1.520888888508457,-3.120805548423787
2.165237798821211,25.402232468600136,-0.07451016585000725,1.4955727156796368,-3.0097869448606094
2.1495875189710296,25.090774017148206,-0.07454011843743169,1.470698250529197,-2.897602798702197
2.1339437396628105,24.784484305549295,-0.07444825592656118,1.4463466218414016,-2.79079556179518
2.1183306982634686,24.483255645869153,-0.07424737644812396,1.4224977560647125,-2.689040918059047
2.102770073164272,24.186984458084275,-0.0739490530680331,1.399132603791295,-2.5920379039935684
2.08728122827873,23.895571062154964,-0.07356375536569781,1.3762330717259423,-2.4995069508248156
2.0718814333703413,23.608919483794953,-0.07310095804753175,1.35378196027416,-2.4111881141162654
2.0565860627747914,23.326937272816444,-0.07256923810056015,1.3317629061878289,-2.326839470607501
2.0414087747852783,23.049535333040577,-0.07197636179956328,1.3101603297728177,-2.2462356644829486
2.0263616737110874,22.77662776286133,-0.07132936271654196,1.2889593862200177,-2.1691665873869037
2.0114554563932225,22.50813170563779,-0.07063461173931347,1.2681459206708332,-2.0954361783368283
1.9966995447623477,22.243967209166865,-0.06989787998330572,1.2477064266713178,-2.024861331284759
1.9821022058498041,21.984057093557162,-0.06912439537425033,1.2276280077068,-1.957270899470612
1.9676706605088639,21.72832682688606,-0.06831889358708573,1.2078983415417945,-1.8925047869297575
1.9534111819678945,21.476704408076685,-0.06748566394595716,1.1885056471189028,-1.830413118584754
1.939329185217464,21.22912025648064,-0.06662859082004847,1.1694386537958206,-1.7708554812880781
1.9254293081275486,20.98550710769627,-0.0657511909886683,1.1506865727219722,-1.7137002290066417
1.911715485097229,20.745799915191974,-0.0648566473953268,1.1322390701760785,-1.6588238460647564
1.8981910139560578,20.50993575733962,-0.06394783966344739,1.1140862427034834,-1.606110363002805
1.8848586167623729,20.277853749495456,-0.06302737170498018,1.0962185939076055,-1.555450820175163
1.8717204950780892,20.04949496079497,-0.062097596716768795,1.0786270127636994,-1.5067427747123396
1.858778380240949,19.824802335354562,-0.061160639827424854,1.0613027533354185,-1.4598898469169905
1.8460335791030105,19.60372061759685,-0.0602184186291317,1.0442374157856544,-1.4148013025584116
1.8334870156575576,19.386196281438146,-0.05927266180375297,1.0274229285829568,-1.371391667881455
1.821139268934966,19.172177463096503,-0.05832492603045238,1.0108515318136293,-1.3295803744587544
1.8089906075108184,18.961613897296736,-0.05737661134238173,0.9945157615175029,-1.2892914312942978
1.7970499121679526,18.75462122876684,-0.05634429668491186,0.9768429863862702,-1.2811942900020616
1.7853232009747178,18.55132616559625,-0.055338667060181486,0.9593004723812267,-1.27570467260343
1.773804827808806,18.351701758020276,-0.05436012499611974,0.9418843616756967,-1.2726803399693625
1.7624890771778334,18.15572184894139,-0.053408928632193986,0.9245909628851458,-1.2719834640089418
1.751370193311891,17.96336103976412,-0.052485203424400086,0.90741674356502,-1.2734803042021021
1.7404424068919795,17.774594657743847,-0.05158895295570807,0.890358323294719,-1.2770408971323246
1.7296999595954488,17.5893987247295,-0.05072006891601453,0.8734124673181134,-1.282538757699998
1.7191371266266633,17.40774992718607,-0.04987834031051429,0.8565760807145533,-1.2898505907582687
1.7087482373892415,17.229625587387886,-0.04906346195064357,0.8398462030776965,-1.2988560119654602
1.698527694445305,17.055003635678037,-0.04827504227732502,0.8232200036827471,-1.3094372766919564
1.6884699908971628,16.883862583693134,-0.047512610562124524,0.8066947771258632,-1.3214790158551826
1.6785697263176915,16.716181498455544,-0.046775623528077515,0.7902679394226154,-1.3348679775842491
1.668821621347269,16.551939977237843,-0.046063471428327125,0.7739370245554625,-1.349492773636162
1.6592205310674772,16.391118123105873,-0.0453754836173099,0.7576996814633279,-1.3652436294983807
1.6497614572548298,16.233696521047925,-0.044710933645999006,0.7415536714695016,-1.3820121371179934
1.6404395596114871,16.079656214598156,-0.04406904390964519,0.7254968661473357,-1.3996910091958996
1.631250166064255,15.9289786828619,-0.043448989873516544,0.7095272456265531,-1.4181738339751127
1.6221887822181087,15.781645817849729,-0.04284990389930667,0.69364289734651,-1.4373548294355223
1.6132511000460075,15.637639902025363,-0.04227087869213236,0.6778420152664801,-1.4571285957830968
1.6044330058928715,15.496943585969944,-0.0417109703853544,0.662122899547014,-1.4773898650893964
1.59573058786824,15.359539866061834,-0.04116920127780386,0.6464839567207165,-1.4980332468972768
1.5871401426993579,15.225412062066734,-0.04064456223535839,0.6309237003754549,-1.5189529685606449
1.5786581821141983,15.09454379452761,-0.04013601476616281,0.6154407523781003,-1.5400426090299972
1.5702814388222603,14.966918961837294,-0.039642492776100866,0.6000338446725094,-1.5611948247312095
1.5620068721598908,14.842521716869058,-0.0391629040083719,0.5847018216916369,-1.5823010661127905
1.553831673466353,14.72133644303123,-0.03869613116817905,0.5694436434305172,-1.6032512833569028
1.5457532712569853,14.603347729601406,-0.03824103273056154,0.5542583892344695,-1.6239336196625564
1.537769336260518,14.488540346183427,-0.037796443426268214,0.5391452623653404,-1.6442340904166168
1.5298777863890505,14.376899216116172,-0.03736117439723306,0.5241035954180364,-1.6640362464714322
1.5220767917113296,14.26840938864692,-0.03693401300963199,0.5091328566700791,-1.6832208196496854
1.514364779502913,14.16305600966341,-0.03651372230862186,0.49423265745857964,-1.70166534850151
1.5067404394505717,14.060824290757608,-0.036099040094628575,0.47940276069193044,-1.719243782251794
1.4992027290930148,13.961699476370093,-0.035688677596388524,0.4646430906177322,-1.7358260608051803
1.4917508795857632,13.865666808736908,-0.03528131771077003,0.44995374398402654,-1.7512776686342872
1.4843844018849044,13.772711490330074,-0.034875612773598755,0.43533500274773224,-1.7654591603794942
1.4771030934526665,13.68281864344884,-0.03447018181914435,0.42078734850211774,-1.7782256560591736
1.469907045597423,13.595973266580664,-0.034063607278411644,0.4063114788138378,-1.7894263039593175
1.462796651572134,13.512160187108929,-0.033654431057673115,0.39190832567889433,-1.7989037095852394
1.4557726155685917,13.431364009898537,-0.03324114992844573,0.37757907632484167,-1.8064933295765164
1.448835962760577,13.353569061241217,-0.032822210147885125,0.36332519660202456,-1.8120228302941483
1.4419880505676126,13.278759327590205,-0.032396001213679394,0.34914845721714444,-1.8153114120030098
1.43523058133308,13.206918388460661,-0.03196084863901327,0.3350509630642396,-1.8161691013549572
1.4285656166369711,13.13802934281987,-0.03151500560964046,0.3210351858956633,-1.8143960174525915
1.4219955934957391,13.072074728244061,-0.031056643354476204,0.3071040005405964,-1.809781620451234
1.4155233427413858,13.009036432082357,-0.030583840020316895,0.2932607248089611,-1.8021039568676696
1.4091521099217572,12.94889559385226,-0.030094567785668703,0.27950916309672946,-1.7911289231054486
1.4028855791277857,12.891632498108649,-0.029586677871201977,0.2658536535091031,-1.7766095790049885
1.3967279002369017,12.837226457099739,-0.029057882994361583,0.25229911800431915,-1.7582855576263305
1.390683720173527,12.78565568267831,-0.02850573665682637,0.23885111458072558,-1.735882637550538
1.3847582189403789,12.736897147217338,-0.02792760842077399,0.225515889809492,-1.7091125719046725
1.3789571513877998,12.69092643374739,-0.027320653984739155,0.21230042895192247,-1.6776733070105987
1.3732868959923465,12.64771757627539,-0.026681778352912293,0.19921249935281735,-1.6412497769520782
1.367754512356068,12.60724289238222,-0.026007589611645225,0.18626068058211745,-1.5995155335537712
1.3623678097842906,12.569472811895938,-0.02529433964337673,0.1734543716681882,-1.5521355706260618
1.3571354302595295,12.534375707918471,-0.02453784630672916,0.16080376145054298,-1.4987708341323485
1.3520669505662468,12.50191774002354,-0.023733388867391365,0.14831974231071526,-1.4390850831077948
1.347173010484467,12.472062724360498,-0.02287556429241584,0.13601374019444473,-1.372754982894945
1.342465477234216,12.444772051989244,-0.02195808570997533,0.12389742524606615,-1.2994845643407928
1.337957661273065,12.420004685146889,-0.020973494872413515,0.11198225896682384,-1.219025434442962
1.3336646059362924,12.397717270871851,-0.019912746430181854,0.10027882936686384,-1.1312042821178088
1.3296034844279325,12.377864420774642,-0.018764601268484272,0.08879593346370195,-1.0359590832981647
1.325794154003696,12.360399210438516,-0.01751473610519834,0.07753940307083255,-0.9333845809044052
1.3222599414467844,12.345273942921366,-0.016144431103484118,0.06651076375916842,-0.8237854446161768
1.3190287710785358,12.332441181487802,-0.014628620022693625,0.05570601179859951,-0.7077311332519346
1.3161348090019052,12.321854959879492,-0.012932923564265363,0.04511514637579556,-0.5860992466785069
1.3136209236167675,12.313471883065027,-0.011008842008473694,0.0347236804286133,-0.46008487762891914
1.311542587860883,12.307251462899284,-0.008784831857093108,0.02451841638797188,-0.3311462066726427
1.3099749217773824,12.303154229161759,-0.006145321319102769,0.014502857302755329,-0.20085858687009048
1.3090294829061502,12.301133203726891,-0.002858858406917679,0.004745003981692282,-0.07067166868296243
