x,y,v_x,v_y,omega
2.375,32.48,0.0,2.923076923076923,-7.510204081632653
2.3728480174096442,31.816311635656053,-0.01871289209004962,2.848126245131284,-6.9869224162576336
2.3667342319552356,31.169460113091656,-0.03445045968741593,2.7766696032547826,-6.518536729004593
2.3572903570339325,30.538673448715823,-0.0476701918021764,2.708431826100272,-6.097561695332134
2.3450517727119022,29.92323924791161,-0.058752280563306836,2.6431699200233347,-5.717729487199053
2.330473617064831,29.32249790461953,-0.06801429028079219,2.580667847733858,-5.373761193423068
2.3139438653493176,28.735836877686996,-0.07572268115845367,2.520732386462115,-5.061187001912756
2.295794032770612,28.162685826013746,-0.0821019499607244,2.463189802000922,-4.776203445145811
2.276307985169482,27.602512436847576,-0.0873419422230128,2.407883147270135,-4.515559137199704
2.255729231045359,27.054818819767725,-0.09160374581284188,2.354670044728552,-4.2764626359621305
2.234266985892538,26.51913836710883,-0.09502447290733916,2.30342084795749,-4.056507644022503
2.212101237723498,25.995033002676614,-0.09772116334518217,2.254017103626984,-3.853611909733398
2.189386995311925,25.482090756562584,-0.0997939880598003,2.20635025388634,-3.665967034914602
2.166257864214409,24.97992361606265,-0.1013288910490383,2.1603205330695934,-3.4919970249569685
2.142829067261381,24.48816561212636,-0.10239977810772491,2.1158360228981663,-3.3303238907560235
2.1192000039552106,24.006471108112933,-0.10307033759810368,2.0728118380881315,-3.179738971933382
2.0954564256240316,23.534513263418532,-0.10339556093388802,2.03116942012408,-3.03917892689986
2.0716722891803108,23.071982649138683,-0.10342301683759657,1.9908359214397975,-2.9077055487796377
2.04791134112074,22.61858599661737,-0.10319392281084336,1.9517436657020937,-2.784488732500502
2.0242284743724825,22.174045062714402,-0.10274404891313725,1.9138296725845687,-2.668792048788554
2.0006708932778148,21.738095598051235,-0.10210448234484112,1.8770352375299346,-2.5599604837744736
1.977279116059222,21.310486406488174,-0.101302276077706,1.841305558670576,-2.4574099846906217
1.9540878392443692,20.89097848573396,-0.100361000573188,1.8065894044095392,-2.3606185174382595
1.9311266845399695,20.47934424035988,-0.09930121424767803,1.7728388162346436,-2.269118394221046
1.9084208453562184,20.075366759639373,-0.09814086561102923,1.7400088422045703,-2.1824896717213815
1.8859916474655325,19.678839153601928,-0.09689563778623925,1.7080572972514347,-2.100354454556564
1.8638570360245077,19.289563941510366,-0.0955792443096266,1.6769445470230127,-2.0223719666334192
1.8420319993113528,18.907352487669215,-0.09420368363085103,1.6466333124652923,-1.9482342758034115
1.820528937964398,18.532024480070326,-0.09277945851658277,1.617088492742416,-1.8776625759098093
1.7993579871956082,18.163407447896418,-0.0913157655598493,1.5882770044220031,-1.8104039457063532
1.7785272983518126,17.80133631434775,-0.08982065916880899,1.5601676351316127,-1.746228516840968
1.7580432852693972,17.44565298164307,-0.08830119372175983,1.5327309101264615,-1.6849269936382527
1.7379108400859575,17.096205945381705,-0.08676354700380244,1.5059389704071795,-1.6263084761806035
1.7181335225106633,16.752849935747385,-0.08521312756397215,1.4797654611956066,-1.570198545500992
1.69874828431037,16.415452664409997,-0.08335416113422947,1.4541238547816808,-1.5080569770062473
1.6797878540905202,16.08388692853457,-0.08151914512533502,1.4290564571785294,-1.4490800378265247
1.6612464765919113,15.758023279726249,-0.07971022442778676,1.4045404889808073,-1.3930656369569574
1.643117949034537,15.437737373606264,-0.07792914563633764,1.380554346845136,-1.3398270439016464
1.625395706728511,15.122909708126304,-0.07617730919867186,1.3570775268936477,-1.289191536785935
1.6080728974494867,14.813425378809978,-0.07445581496675488,1.3340905541178862,-1.2409991852779858
1.5911424459971855,14.509173849604888,-0.0727655020097781,1.3115749172307287,-1.1951017533273178
1.57459711017158,14.210048738149002,-0.07110698343026788,1.289513008472638,-1.151361708564844
1.5584295292422803,13.915947614362686,-0.06948067682451371,1.2678880679301139,-1.109651326800238
1.5426322658490847,13.626771811374212,-0.06788683094240419,1.2466841319696513,-1.0698518814337175
1.527197842152503,13.342426247873178,-0.06632554902787273,1.225885985430648,-1.0318529088005834
1.5121187709496702,13.062819261064188,-0.06479680925762853,1.2054791172562263,-0.9955515415134867
1.4973875823813112,12.78786244946339,-0.06330048264114517,1.1854496792724432,-0.9608519027809733
1.482996846777343,12.517470524843805,-0.06183634869770842,1.1657844478543653,-0.9276645554796803
1.4689391941207637,12.251561172692675,-0.06040410918559129,1.1464707882424185,-0.8959060004572278
1.4552073305502522,11.99005492059591,-0.05900340012320297,1.1274966212946622,-0.8654982191567013
1.4417940522702541,11.732875014011764,-0.0576338023115629,1.1088503924805149,-0.8363682561930308
1.4286922571922078,11.479947298938491,-0.056294850541014976,1.0905210429392458,-0.8084478379863226
1.4158949545911437,11.23120011101959,-0.054986041642151456,1.072497982442501,-0.7816730239756793
1.403395273027384,10.986564170665538,-0.05370684152097645,1.054771064114451,-0.7559838873064587
1.3911864667528575,10.745972483803133,-0.052456691300992425,1.0373305607760321,-0.7313242222105178
1.3792619207950678,10.509360247892882,-0.05123501267978519,1.0201671427913541,-0.7076412755881181
1.367615154888524,10.276664762881822,-0.0500412125945104,1.0032718573048092,-0.6848855005564947
1.3562398264030486,10.04782534678358,-0.04887468727918868,0.9866361087668744,-0.6630103299576431
1.3451403259169992,9.82290105633465,-0.04764270825167659,0.9692272864411896,-0.6626616989190373
1.334318926232006,9.601965521168033,-0.046456419443916167,0.951951280225048,-0.664936638085165
1.3237651575745224,9.384988662937438,-0.04531548192550789,0.9348040087366505,-0.6696915033487907
1.3134686417589951,9.171941321741077,-0.044219438209511554,0.9177815668838747,-0.6767876050265768
1.303419118132246,8.962795216577582,-0.043167723762220236,0.9008802171464982,-0.6860908506445671
1.2936064669819187,8.757522907730369,-0.04215967754497424,0.8840963815249173,-0.6974714040616233
1.2840207306230154,8.556097760931639,-0.041194551662881995,0.8674266341162082,-0.7108033593486374
1.2746521323600377,8.358493913165773,-0.040271520189097146,0.8508676942826349,-0.7259644279278309
1.2654910935071226,8.164686239979375,-0.039389687227555786,0.8344164203817133,-0.742835637551406
1.2565282486347016,7.974650324171943,-0.03854809427175789,0.8180698040307505,-0.7613010417629038
1.247754459198542,7.788362425746929,-0.037745726912237605,0.8018249648824135,-0.7812474385384134
1.2391608256954465,7.60579945300794,-0.03698152094076807,0.785679145891405,-0.8025640968486893
1.2307386984793274,7.426938934689016,-0.036254367895050515,0.7696297090557502,-0.8251424899176035
1.2224796873617816,7.25175899301135,-0.03556312008360892,0.7536741316195892,-0.8488760339774012
1.2143756701125825,7.080238317561406,-0.03490659512681793,0.7378100027277433,-0.8736598313370687
1.2064187999676623,6.912356139887255,-0.03428358004640111,0.7220350205257424,-0.8993904165867754
1.1986015122451095,6.748092208711007,-0.03369283493231893,0.7063469897024844,-0.9259655047587458
1.1909165301634332,6.587426765655444,-0.03313309621269126,0.6907438194763171,-0.9532837402528849
1.1833568699508112,6.43034052138232,-0.03260307954923928,0.675223522029116,-0.9812444453137523
1.1759158453292182,6.276814632038324,-0.032101482377656566,0.6597842113969459,-1.0097473668137067
1.168587071453218,6.126830675902202,-0.031626986109300904,0.6444241028301997,-1.0386924200547702
1.1613644683797737,5.980370630123041,-0.031178258007606062,0.6291415126407588,-1.0679794282484723
1.154242264142693,5.83741684743509,-0.030753952749616557,0.6139348585588128,-1.097507856268002
1.1472149975032853,5.697952032728654,-0.030352713680015554,0.5988026606275749,-1.1271765371897706
1.1402775204474636,5.561959219349394,-0.0299731737619128,0.583743542670346,-1.1568833900512185
1.1334250004989168,5.429421744989604,-0.029613956225449333,0.5687562343713136,-1.1865251271476882
1.1266529229181195,5.300323227024688,-0.029273674911919487,0.5538395740192519,-1.2159969490726819
1.1199570928578788,5.174647537135687,-0.028950934307565443,0.538992511972053,-1.245192225572249
1.1133336375479057,5.052378775044261,-0.028644329257418426,0.5242141149099261,-1.2740021601351592
1.1067790085835711,4.93350124116964,-0.028352444345491248,0.5095035709563283,-1.3023154360758311
1.1002899843976703,4.817999407997441,-0.028073852923210987,0.49486019575843904,-1.3300178416871362
1.0938636729987385,4.705857889927369,-0.02780711576315227,0.48028343963347603,-1.3569918718464475
1.0874975150653472,4.597061411340604,-0.02755077930981596,0.4657728959036085,-1.383116303253122
1.0811892874929878,4.491594772597185,-0.02730337349330834,0.4513283105609141,-1.4082657402632897
1.074937107498758,4.389442813638805,-0.02706340906521164,0.4369495934249891,-1.432310128075265
1.0687394373992722,4.2905903748322665,-0.026829374408577297,0.4226368309797096,-1.455114229816775
1.0625950901892331,4.195022254642819,-0.02659973176567485,0.4083903011024489,-1.4765370639096378
1.0565032360621438,4.102723163674213,-0.02637291281771161,0.39421048992889746,-1.4964312979623575
1.05046341003101,4.0136776745525005,-0.026147313539974584,0.380098111129464,-1.5146425954012732
1.0444755208259173,3.927870167063105,-0.025921288243440137,0.3660541279087473,-1.53100891114711
1.038539861267485,3.845284767874741,-0.02569314269945049,0.352079778077015,-1.545359732949256
1.0326571203409407,3.7659052840991194,-0.025461126227020625,0.33817660258056753,-1.5575152656102011
1.026828397225611,3.68971512984227,-0.025223422601934147,0.3243464779137848,-1.5672855564186192
1.0210552175698726,3.616697244802669,-0.024978139621877588,0.31059165286536233,-1.5744695618787008
1.015339552343319,3.5468340038653317,-0.024723297130761667,0.2969147900680034,-1.5788541585870044
1.0096838396477457,3.4801071165338975,-0.02445681326552832,0.2833190128140231,-1.5802131053134871
1.0040910099290459,3.416497514941753,-0.024176488636209494,0.26980795755245124,-1.5783059696328696
0.9985645151068363,3.3559852291005576,-0.023879988078657183,0.2563858323709738,-1.5728770417498001
0.9931083622330428,3.2985492479996594,-0.023564819519547704,0.24305748154986803,-1.5636542717953217
0.9877271524130866,3.244167365193306,-0.02322830934963573,0.22982845589669706,-1.5503482867546239
0.9824261258866154,3.192816007651796,-0.022867573489244515,0.2167050879425149,-1.5326515720633602
0.9772112143891898,3.14447004698005,-0.022479483010108194,0.20369457007268074,-1.5102379447140057
0.9720891022341351,3.0991025927317004,-0.02206062268601993,0.1908050320868762,-1.4827625050371183
0.9670672980163186,3.0566847686321736,-0.021607240077602317,0.1780456122568478,-1.4498623410237548
0.9621542195296686,3.017185474309734,-0.02111518154544189,0.1654265122861166,-1.4111583829509111
0.9573592955413535,2.980571137965285,-0.0205798096572992,0.1529590211438663,-1.3662589815121287
0.9526930896935968,2.946805469772759,-0.01999589336667227,0.14065548487808924,-1.3147660274198523
0.9481674543575547,2.9158492323354785,-0.01935745738151906,0.12852918848957862,-1.256284763546851
0.9437957263019647,2.887660054010663,-0.018657569188829017,0.11659410129142452,-1.1904388748424868
0.939592982451807,2.862192324125431,-0.01788802950819483,0.10486441944973122,-1.1168929632178495
0.9355763841918141,2.839397226352691,-0.01703891188304839,0.09335382205233768,-1.0353850394986277
0.9317656547559052,2.8192229865287324,-0.016097865820506388,0.08207435032992483,-0.9457719410511214
0.9281837594754472,2.8016154287259774,-0.01504904966173767,0.07103484795490575,-0.8480900195945168
0.9248578980465523,2.7865189346121078,-0.013871484502565175,0.0602390139048148,-0.7426308511298358
0.9218209803768644,2.7738778561569113,-0.01253649523385131,0.04968340744473054,-0.6300251402452004
0.9191138640681107,2.7636382852402726,-0.0110036465813984,0.03935633965648708,-0.5113152284578191
0.9167888508035165,2.755749744737777,-0.009213860067246265,0.029239664713048175,-0.38797780361036094
0.9149155418508452,2.750165666768268,-0.00707578299946101,0.019317535021823047,-0.26184112704314205
0.9135924409629463,2.746839825387532,-0.004429442112702403,0.009602824810654595,-0.13484239359548736
0.9129816296713813,2.7457075101467936,-0.0008819604226467117,0.00024339467401334434,-0.008640661087360058
