x,y,v_x,v_y,omega
2.375,32.48,0.0,3.230769230769231,-4.081632653061225
2.373665543299237,31.747086134153886,-0.011603971310981304,3.1423948200665066,-3.770660374348287
2.369895145696203,31.03400005007108,-0.021182094802357873,3.0583537371753207,-3.4954608893339367
2.3641155772659936,30.339783504207055,-0.029075021982072593,2.9783118790335603,-3.250753315177096
2.3566823787507216,29.66355103344118,-0.03556148684637954,2.901970475452317,-3.032172685243372
2.347892684995157,29.004482394145153,-0.040870632767227535,2.8290611706000868,-2.8360900904614144
2.3379955218401083,28.3618160320132,-0.04519165553754219,2.7593419783734396,-2.6594720392949447
2.327200120515716,27.7348434036098,-0.0486813994571721,2.692593920786516,-2.4997696522471595
2.315682665984181,27.12290400885174,-0.05147037907791818,2.62861820754445,-2.354830751291369
2.3035918005856826,26.52538102225999,-0.05366758090902297,2.5672338497751315,-2.222829659911475
2.2910531327737567,25.941697432546277,-0.05536431310772585,2.5082756259962755,-2.102210804820017
2.2781729463950606,25.37131261682818,-0.056637307576584854,2.4515923367697794,-1.991643147048244
2.2650412643963755,24.813719288813783,-0.057551231542415426,2.3970452981380324,-1.8899831646538094
2.2517343888034076,24.268440770594562,-0.05816073013556793,2.344507034203011,-1.7962446289225282
2.238317013961889,23.73502854590244,-0.058512094573289555,2.2938601370328233,-1.7095738078910143
2.2248439906327064,23.213060059310514,-0.05864463002829946,2.2449962681143525,-1.629229028901469
2.2113618033057882,22.702136731245577,-0.05859178151011954,2.1978152802764233,-1.5545637598898878
2.1979098110814763,22.201882163101427,-0.05838206391867967,2.1522244427161854,-1.4850125447535372
2.1845212929385083,21.711940510397177,-0.05803983297669478,2.1081377547120628,-1.420079264297256
2.1712243306143693,21.231975004968103,-0.057585926363643736,2.0654753359755578,-1.3593273004141395
2.158042556246147,20.761666609727037,-0.05703819857741981,2.0241628835119934,-1.3023712643789906
2.1449957870349046,20.300712791684305,-0.05641196847686154,1.9841311864248115,-1.248870015717205
2.1321005652540963,19.84882640073635,-0.055720394834514055,1.9453156913834668,-1.1985207500521686
2.119370618728488,19.405734643285385,-0.054974792344687835,1.9076561125379976,-1.15105397566366
2.1068172543127757,18.97117814108051,-0.0541848982267266,1.8710960805478491,-1.1062292315243694
2.0944496947796156,18.544910066812264,-0.05335909771379348,1.8355828261325615,-1.0638314261003796
2.0822753677913344,18.12669534897697,-0.052504615227781506,1.801066894174339,-1.0236676975777208
2.0703001542039123,17.716309939380142,-0.05162767683675784,1.7675018849285078,-0.9855647134767361
2.058528601777013,17.313540137388763,-0.050733648614543075,1.7348442193443612,-0.9493663416700198
2.0469641093927344,16.91818196568802,-0.049827154727007064,1.7030529258794826,-0.9149316362791243
2.0356090860807705,16.530040592862505,-0.048912178420505194,1.6720894465163079,-0.8821330913023131
2.024465088478453,16.148929798616653,-0.04799214855616882,1.6419174599693758,-0.850855122525078
2.0135329397963457,15.774671477884208,-0.047070013896940224,1.6125027203127367,-0.8209927446080793
2.0028128328938495,15.40709518045973,-0.04614830699432898,1.5838129094653324,-0.7924504154893341
1.9923044196786857,15.046037683123643,-0.04522919922448824,1.555817502152819,-0.7651410245833843
1.9820068887160338,14.69134259153211,-0.044314548276832656,1.5284876421213869,-0.7389850048738736
1.9719190326569156,14.3428599694088,-0.04340593919375986,1.5017960285160825,-0.7139095520096056
1.9620393068623294,14.000445992812026,-0.042504719889598204,1.4757168114558485,-0.6898479360344713
1.952382347895812,13.663964186394573,-0.04146883634098745,1.4502119400002693,-0.662652316031168
1.9429610669911361,13.333283449651898,-0.040455345438803664,1.4252727273273436,-0.6368339792817055
1.933770294260422,13.00827622558328,-0.0394644174369703,1.400877047182383,-0.612305509971348
1.9248048341851216,12.688819917743057,-0.03849610495694726,1.3770038905586766,-0.5889860916660995
1.9160594905794703,12.374796641384979,-0.03755036117915005,1.3536332951637462,-0.5668009308136126
1.9075290876550965,12.06609299022038,-0.03662705555453555,1.3307462801805998,-0.5456807372558834
1.8992084877182356,11.76259981762535,-0.03572598737468932,1.3083247858631313,-0.5255612554733138
1.8910926059586917,11.464212031232798,-0.03484689749091001,1.286351617550381,-0.5063828410406772
1.8831764227275527,11.170828399936141,-0.03398947843203722,1.2648103937248947,-0.4880900774360892
1.8754549936472278,10.882351372413481,-0.03315338313600653,1.243685497776508,-0.470631428918569
1.8679234578513397,10.598686906355198,-0.032338232480412774,1.2229620331650952,-0.453958925690294
1.860577044612318,10.319744307645184,-0.03154362177194849,1.2026257817045904,-0.4380278779964754
1.853411078580271,10.045436078806777,-0.030769126332806682,1.1826631647163466,-0.4227966161976894
1.8464209838271015,9.775677776079753,-0.03001430630345139,1.1630612068229804,-0.4082262541839219
1.8396022868642175,9.510387874545035,-0.029278710765104694,1.143807502174566,-0.3942804737929253
1.8329506187800095,9.24948764075943,-0.028561881271486993,1.1248901829176576,-0.38092532815317914
1.8264617166240318,8.992901012404445,-0.027863354867450757,1.106297889734383,-0.3681290620984825
1.8201314241481577,8.740554484491188,-0.027182666661888382,1.0880197442939417,-0.3558619480010031
1.8139556920004951,8.492377001698049,-0.02651935201343703,1.0700453234724732,-0.344096135545921
1.8079305774552674,8.248299856449616,-0.02587294837984724,1.0523646352095612,-0.3328055141266217
1.8020522437509303,8.008256592374227,-0.02524299687525782,1.034968095880779,-0.3219655866772885
1.7963169590992794,7.772182912804226,-0.02462904357388176,1.0178465090757522,-0.3115533538819433
1.790721095420015,7.540016594007273,-0.02403064059363349,1.0009910456803635,-0.301547207807426
1.7852611268480225,7.31169740285948,-0.023447346988910895,0.9843932251700072,-0.2919268341041525
1.7799385001156147,7.087274066293663,-0.02283636372767812,0.9671140493153433,-0.3013746367959173
1.7747528903708973,6.866810417958817,-0.022255894922039856,0.9499611535963638,-0.3131224914843167
1.7696972567861535,6.6502778460630125,-0.02170613624964432,0.9329307759323654,-0.3270434215895735
1.764764528872027,6.437648586371989,-0.02118714996015146,0.9160193083374132,-0.3430145183879919
1.7599476357971382,6.22889568760327,-0.020698876778012947,0.8992232896514325,-0.36091664423835973
1.7552395330813186,6.023992978429497,-0.02024114683780794,0.8825393988161525,-0.38063414772408366
1.7506332268765366,5.82291503596899,-0.019813689725515834,0.8659644486665188,-0.4020545894927779
1.7461217960334072,5.625637155648018,-0.019416143692999127,0.8494953802114837,-0.4250684776271891
1.7416984121363708,5.432135322324857,-0.019048064107318494,0.8331292573812307,-0.44956901142515066
1.7373563576770341,5.242386182570613,-0.018708931191260714,0.816863262220906,-0.47545183250200085
1.7330890425227818,5.056367018006114,-0.018398157106583928,0.8006946905138731,-0.5026147821567691
1.7288900188264273,4.874055719597674,-0.018115092426933575,0.7846209478203764,-0.5309576639635513
1.7247529945123716,4.695430762817491,-0.01785903204311801,0.7686395459203597,-0.5603820105618791
1.7206718454653798,4.520471183576664,-0.017629220539419708,0.752748099652045,-0.5907908536244924
1.7166406265396268,4.349156554840487,-0.017424857075822135,0.7369443241407844,-0.6220884959775853
1.7126535814980537,4.181466963836492,-0.01724509980742102,0.7212260324156823,-0.6541802848371031
1.708705151985285,4.017382989766009,-0.017089069868830215,0.7055911334145967,-0.686972385104668
1.704789985631343,3.8568856819294695,-0.016955854948055373,0.6900376303813952,-0.7203715516377974
1.7009029433781446,3.6999565381743835,-0.016844512471061657,0.6745636196628337,-0.7542848993707116
1.697039106116239,3.546577483572797,-0.016754072415073585,0.6591672899161748,-0.7886196701135723
1.693193780715475,3.3967308492320214,-0.01668353976548299,0.6438469217427516,-0.8232829947987088
1.6893625055302164,3.2503993511383804,-0.016631896628071643,0.6286008877671677,-0.8581816498713997
1.6855410554574082,3.1075660689286764,-0.01659810400504274,0.6134276531867888,-0.8932218064390993
1.6817254466242209,2.968214424477697,-0.01658110324006277,0.598325776821723,-0.9283087706955344
1.677911940781192,2.8323281601825023,-0.016579817134101588,0.5832939127017039,-0.9633467140236073
1.6740970494767882,2.699891316814977,-0.01659315073027989,0.5683308122333108,-0.9982383910522177
1.6702775380901598,2.5708882108032682,-0.01661999176214183,0.5534353269989245,-1.0328848437955345
1.6664504298006064,2.4453034107898866,-0.016659210755712497,0.5386064122478856,-1.0671850898374664
1.662613009574998,2.3231217132990523,-0.016709660771316876,0.5238431311506876,-1.1010357923376646
1.658762828258165,2.204328117328348,-0.01677017676636229,0.5091446598989134,-1.13433090942703
1.654897706856203,2.0889077976590364,-0.016839574555045807,0.4945102937472644,-1.1669613203293476
1.6510157411088295,1.9768460766554838,-0.016916649335157685,0.4799394541097126,-1.198814425290792
1.6471153064545292,1.8681283942962814,-0.017000173745715996,0.46543169683986085,-1.2297737161209013
1.6431950635013945,1.7627402761473654,-0.017088895411976522,0.45098672184637034,-1.2597183138488164
1.639253964127494,1.6606672989499387,-0.017181533926289808,0.436604384218212,-1.2885224696806918
1.6352912583474901,1.561895053452723,-0.017276777204177373,0.4222847070619343,-1.3160550251148824
1.6313065020973694,1.4664091040678784,-0.017373277144698707,0.4080278962845453,-1.3421788267419292
1.6272995661067946,1.3741949448721442,-0.01746964451247458,0.3938343575913956,-1.3667500909443584
1.6232706460491424,1.285237951408103,-0.017564442945369945,0.3797047160089532,-1.3896177134444576
1.6192202741831263,1.1995233276639823,-0.017656181976510917,0.3656398382877626,-1.4106225184684151
1.6151493327275412,1.1170360475229195,-0.017743308941617974,0.35164085859105454,-1.4295964422651901
1.6110590692427187,1.0377607898731398,-0.01782419962205881,0.33770920792877,-1.4463616459313
1.6069511143294495,0.9616818664581608,-0.017897147449847203,0.32384664785365713,-1.4607295530856668
1.602827501999433,0.8887831414208378,-0.017960351072035283,0.3100553089926428,-1.4724998091136328
1.5986906931218816,0.8190479413573577,-0.018011900037105687,0.29633773503763383,-1.4814591607525651
1.5945436024104835,0.7524589545495388,-0.01804975832287901,0.2826969328564298,-1.4873802581577782
1.5903896294857165,0.6889981178909643,-0.01807174537074671,0.2691364293920472,-1.4900203869046678
1.586232694632845,0.6286464898738444,-0.018075514219439252,0.25566033597420346,-1.4891201455877823
1.58207727998063,0.5713841078755024,-0.018058526234605705,0.24227342053312786,-1.48440209714741
1.5779284769572777,0.5171898279027616,-0.018018021794543836,0.2289811879254831,-1.475569440816191
1.5737920410499715,0.46604114496383886,-0.01795098609507478,0.21578996806517683,-1.4623047796163207
1.5696744551208521,0.417913992410476,-0.01785410894074692,0.202707010659747,-1.4442691000409966
1.5655830028453108,0.37278251903906323,-0.01772373693352587,0.18974058387429255,-1.4211011423570268
1.5615258542866637,0.33061884362957983,-0.017555815750360537,0.17690007186033635,-1.3924174312415512
1.5575121662854012,0.29139278819848613,-0.017345819043226563,0.16419606232309172,-1.357813370693827
1.553552201355819,0.25507159394177137,-0.017088658605315013,0.15164040947440577,-1.3168660032879207
1.54965747037342,0.22161962822983128,-0.016778567328589327,0.13924624889031945,-1.269139317384297
1.545840906881585,0.19099809791294575,-0.016408941296063344,0.12702792777822156,-1.2141933885784804
1.5421170849804957,0.16316479470769707,-0.01597211871340723,0.11500079574569898,-1.151599195834266
1.5385024995440153,0.13807391385807932,-0.01545905899512023,0.10318077685969729,-1.0809616728951137
1.5350159386890865,0.11567600869549466,-0.014858861482520625,0.09158361585840179,-1.0019543881498962
1.5316789968390263,0.09591817085679821,-0.01415802417017555,0.08022366969545873,-0.9143699517565105
1.5285168069267634,0.07874455413652015,-0.013339279414719187,0.06911212787216095,-0.8181901566317362
1.5255591195993272,0.06409737404009519,-0.012379740823857089,0.05825465557500231,-0.7136774395081574
1.5228419385554137,0.05191847779745018,-0.011247920427564836,0.0476487900132345,-0.6014816221597514
1.5204100633357849,0.04215141468051797,-0.009898820612685955,0.03728219361223824,-0.4827391232984814
1.5183211864379405,0.034743508618952035,-0.008265326325093051,0.027134380836165983,-0.35911430730552363
1.516653023472751,0.029646487101480545,-0.0062404385895954454,0.01718754540272599,-0.23270378791699092
1.5155183508265622,0.026811737997356033,-0.0036262800729182742,0.007462446807073968,-0.10572140482745254
