x,y,v_x,v_y,omega
2.375,32.48,0.0,3.0769230769230766,-5.795918367346939
2.3732232085833886,31.781670858729345,-0.015450360144446335,2.995504238473902,-5.373349744548046
2.3681888027445264,31.101621947752264,-0.02832708193261631,2.9179645526311497,-4.997213771029732
2.3604411950422977,30.438995561137908,-0.03904341982589454,2.844004026624113,-4.660928546937408
2.3504380480540483,29.792999180434137,-0.04794046702844633,2.7733558055825767,-4.359015129655056
2.3385652687546234,29.16289842771748,-0.05530109209698855,2.7057811745622726,-4.086886574556906
2.3251491406162303,28.54801105623178,-0.061360891715126396,2.6410655340090456,-3.84068223610119
2.3104661982704067,27.947701781130167,-0.06631686781377552,2.5790151190484614,-3.61713654854755
2.2947513080916218,27.36137779850874,-0.07033435113217835,2.5194542950509065,-3.4134743355178703
2.278204313176957,26.788484874447505,-0.07355256116925785,2.4622233054815705,-3.227326714370001
2.2609955224715246,26.22850391072699,-0.07608909713884748,2.4071763790446408,-3.0566631188915845
2.243270264049978,25.680947912705882,-0.07804358478764124,2.3541801254867414,-2.899736030579561
2.225152676790066,25.14535929921344,-0.0795006522550781,2.3031121657518914,-2.7550357984578335
2.2067488792954477,24.62130750541318,-0.08053236943725328,2.2538599542503226,-2.6212535180214833
2.188149627367768,24.108386838270825,-0.08120025602082914,2.206319760031063,-2.497250385814032
2.1694325497119262,23.606214551112494,-0.08155694098649217,2.160395780476148,-2.3820322856974974
2.1506640344942136,23.114429109226975,-0.08164753916753137,2.115999366354444,-2.2747286234731208
2.131900825823036,22.632688622869118,-0.08151079710357477,2.0730483411052023,-2.1745746279655487
2.113191378404515,22.160669427599835,-0.08118005001400035,2.0314664003667926,-2.080896493464451
2.0945770099461476,21.69806479482974,-0.08068402353702078,1.9911825802427598,-1.993098861194005
2.0760928838858286,21.244583757853846,-0.08004750742227591,1.9521307847650184,-1.9106542341884298
2.0577688493598454,20.79995004067795,-0.07929192323844683,1.9142493645905714,-1.8330939965421085
2.0396301607195477,20.363901078622263,-0.07843580406848864,1.8774807402415072,-1.7600007689723243
2.02169809514946,19.936187121107544,-0.07749520088879484,1.8417710642343095,-1.6910018814025536
2.0039904838626414,19.5165704082318,-0.07648402769223674,1.8070699172938791,-1.625763782464692
1.9865221698202558,19.104824413769926,-0.0754143552850304,1.7733300345485203,-1.5639872374484123
1.9693054028370836,18.700733148105677,-0.07429666195994435,1.740507058184081,-1.5054031918595259
1.9523501812098234,18.304090515359533,-0.07314004784231874,1.7085593135215018,-1.4497691986056744
1.9356645475739045,17.91469971962718,-0.07195241855697648,1.6774476058902659,-1.3968663238614503
1.9192548455037,17.532372715808087,-0.07074064292306292,1.6471350360148687,-1.3464964606272194
1.9031259423773648,17.156929700995143,-0.06951068861028671,1.617586831923799,-1.2984799904802178
1.8872814231961765,16.788198642825346,-0.06826773905222,1.5887701956396454,-1.2526537434942977
1.8717237593509073,16.42601484156774,-0.06701629438490152,1.5606541631221555,-1.2088692141517723
1.8564544557413547,16.070220523054978,-0.06576025874164397,1.5332094761192514,-1.166990997587934
1.8414741791608642,15.72066445985628,-0.06450301587131785,1.5064084647389742,-1.1268954159376545
1.826782870440073,15.377201618346714,-0.06324749474425764,1.480224939692043,-1.0884693090888458
1.812404958155482,15.039696478091894,-0.061777829469575406,1.4546023668715986,-1.04543377062867
1.7983620433634793,14.708018812826861,-0.06033447306957973,1.429551244128702,-1.0045860531586155
1.7846479749985353,14.382039776555246,-0.058918295321236866,1.405049071276644,-0.9657867457509106
1.7712564286046448,14.061635566391384,-0.05752993419085416,1.381074495365627,-0.928907006411461
1.7581809558935315,13.746687167133672,-0.0561698285144793,1.3576072373101218,-0.893827634746293
1.7454150272793565,13.437080112069157,-0.054838246391389414,1.33462802412044,-0.8604382367622014
1.7329520683101927,13.132704258777746,-0.05353530986220911,1.3121185262396426,-0.8286364716013203
1.7207854907942113,12.833453578813355,-0.05226101636371738,1.2900612995376641,-0.7983273712520212
1.7089087193131605,12.539225960237182,-0.05101525738455012,1.2684397315594875,-0.7694227253562732
1.6973152137248189,12.249923022066476,-0.049797834687984835,1.2472379916640624,-0.7418405241700483
1.6859984881775956,11.96544993978161,-0.04860847441830552,1.226440984726084,-0.7155044535485461
1.674952127092558,11.68571528110612,-0.04744683936462897,1.2060343081042821,-0.6903434365389014
1.6641697985093868,11.41063085133921,-0.04631253961946946,1.1860042116079876,-0.6662912167840661
1.653645265141797,11.14011154757912,-0.04520514183783491,1.1663375602188635,-0.6432859794849926
1.6433723934437598,10.874075221229027,-0.044124177275531015,1.1470217993471603,-0.6212700061445705
1.6333451609494478,10.612442548225577,-0.04306914876196464,1.1280449224219895,-0.6001893597349466
1.6235576621164292,10.355136906474232,-0.04203953674254419,1.1093954406331816,-0.5799935972975522
1.6140041128725802,10.102084260015683,-0.041034804508316584,1.0910623546585378,-0.5606355073089786
1.6046788540418566,9.853213049484086,-0.04005440271536871,1.073035128224899,-0.5420708694314215
1.5955763538019951,9.608454088451289,-0.039097773283425896,1.0553036633646333,-0.524258234518658
1.5866912093079535,9.367740465281639,-0.03816435275171914,1.0378582772410256,-0.5071587229716251
1.5780181475980681,9.131007450149838,-0.037253575160326485,1.020689680426803,-0.49073583973527435
1.5695520258852198,8.898192406899835,-0.03636487451661639,1.00378895652974,-0.4749553044036464
1.561287831322429,8.669234709446084,-0.0354976868989563,0.9871475430680956,-0.4597848950557563
1.5532281781769646,8.444186148630394,-0.034586253496385756,0.9697964640248705,-0.4646038059898721
1.5453737797387082,8.223113434576565,-0.03371286335801855,0.9525749625301693,-0.4718802660197955
1.5377158937704714,8.0059872151915,-0.03287744940925869,0.9354791190791063,-0.4814794060562008
1.5302458079690735,7.792779020928659,-0.032079818428982665,0.9185051788586257,-0.49327085041613145
1.5229548676309377,7.583461227824838,-0.03131966277219809,0.9016495437832945,-0.5071283918322046
1.5158345007329523,7.378007022299485,-0.030596571123325346,0.8849087651328186,-0.5229296804581928
1.508876240643013,7.176390367582123,-0.029910038354408613,0.8682795367572871,-0.5405559254866138
1.502071746658272,6.978585971640747,-0.0292594745563823,0.8517586888198835,-0.559891608061942
1.4954128225541206,6.784569256490673,-0.028644213305805678,0.8353431820503353,-0.5808242042312738
1.4888914333131718,6.594316328769022,-0.02806351922418442,0.8190301024857538,-0.6032439167231957
1.4824997201909516,6.407803951465102,-0.027516594882078305,0.8028166566787682,-0.6270434143855873
1.4762300142635172,6.2250095167011,-0.02700258709560958,0.7867001673560229,-0.6521175781443846
1.4700748485917718,6.045911019461137,-0.02652059265869771,0.7706780695132176,-0.6783632523681158
1.464026969127735,5.870487032169482,-0.02606966355031866,0.7547479069359633,-0.7056790005373584
1.4580793444794355,5.69871668002088,-0.025648811652286503,0.738907329138838,-0.733964864124145
1.452225174643336,5.530579616967319,-0.025257013009449963,0.7231540887181948,-0.7631221235836326
1.4464578988062624,5.366056002266209,-0.024893211660755424,0.7074860391175399,-0.7930530603488684
1.4407712023126487,5.2051264774948045,-0.024556323066320638,0.6919011328077113,-0.8236607186988923
1.4351590228874889,5.047772143934836,-0.0242452371524595,0.6763974198876834,-0.8548486663403538
1.4296155562007073,4.8939745402294506,-0.023958820993467925,0.6609730471156777,-0.8865207525027463
1.4241352608546807,4.74371562021194,-0.023695921145893042,0.6456262573844028,-0.918580862296713
1.4187128628733907,4.596977730801974,-0.023455365647931343,0.6303553896587819,-0.9509326660229193
1.4133433597691258,4.453743589860274,-0.02323596569350281,0.6151588793994996,-0.9834793620449342
1.4080220242608228,4.31399626388669,-0.023036516987393035,0.6000352595012173,-1.0161234117525113
1.402744407717043,4.177719145439298,-0.022855800784606504,0.584983161780463,-1.048766265040623
1.3975063433962385,4.0448959301432055,-0.02269258461369212,0.5700013190551141,-1.0813080746135424
1.392303949557436,3.9155105931473706,-0.022545622680242912,0.5550885678651862,-1.1136473972910828
1.3871336325157646,3.789547364875123,-0.02241365594298834,0.5402438518934755,-1.1456808803447667
1.3819920897194744,3.6669907058995896,-0.022295411850837277,0.5254662261546477,-1.1773029307241827
1.3768763129282724,3.5478252807580297,-0.0221896037248338,0.5107548620328158,-1.2084053648473847
1.3717835915770344,3.4320359304992714,-0.022094929764191338,0.4961090532607289,-1.238877036423467
1.366711516414368,3.3196076437351927,-0.022010071650299154,0.48152822294865605,-1.2686034395506556
1.3616579835121556,3.210525525940458,-0.0219336927167651,0.46701193178817363,-1.2974662840905995
1.356621198750314,3.104774766713618,-0.021864435647073813,0.45255988757565213,-1.3253430400617014
1.351599682890669,3.0023406046768173,-0.02180091965418883,0.4381719562226245,-1.352106447526235
1.346592277365285,2.9032082896499567,-0.0217417370882807,0.42384817444573275,-1.3776239881758288
1.3415981509180326,2.8073630416875375,-0.021685449409566793,0.4095887643579221,-1.4017573145606466
1.3366168072538587,2.7147900065116204,-0.021630582452815527,0.3953941502152567,-1.4243616326791937
1.3316480938684956,2.6254742068116776,-0.021575620898168224,0.3812649776103434,-1.4452850334781304
1.3266922122525397,2.539400488810447,-0.021519001849273738,0.36720213544383684,-1.4643677687492869
1.3217497296884209,2.456553463413716,-0.021459107403934117,0.3532067810494868,-1.4814414670197364
1.316821592887307,2.376917441170132,-0.021394256084011645,0.33928036889471735,-1.4963282854059816
1.3119091437461488,2.3004763601647618,-0.02132269296953832,0.3254246833259063,-1.5088399941843909
1.307014137543737,2.227213705857004,-0.021242578355780892,0.3116418758719798,-1.5187769922194558
1.3021387639400277,2.1571124217512896,-0.02115197471995215,0.2979345076559582,-1.5259272536831288
1.2972856711966656,2.0901548096603833,-0.021048831744066958,0.2843055974823715,-1.5300652101191086
1.2924579941009031,2.0263224181921835,-0.020930969088650723,0.27075867615415794,-1.5309505774752337
1.2876593861532415,1.9655959179716795,-0.020796056543188675,0.2572978475024083,-1.528327146146186
1.2828940566760296,1.9079549620171754,-0.02064159108474066,0.24392785644979387,-1.521921564648887
1.2781668136234305,1.8533780296519105,-0.020464870242208097,0.23065416411772988,-1.5114421662038011
1.2734831130342659,1.8018422523924684,-0.02026296096791923,0.2174830294426345,-1.4965779149967384
1.2688491162867053,1.7533232204828835,-0.020032662923912717,0.20442159585811226,-1.4769975892873315
1.2642717566171484,1.7077947692439892,-0.019770464637451236,0.1914779801322838,-1.4523493776573189
1.2597588168028264,1.6652287453434482,-0.01947249026969685,0.17866135813329298,-1.4222611509408043
1.2553190205567877,1.6255947547064338,-0.019134433608900586,0.16598203871032208,-1.3863417976010937
1.2509621411734078,1.5888598964403933,-0.018751474072663737,0.15345151142914942,-1.3441841908147534
1.2466991325038523,1.5549884913591896,-0.018318166532166957,0.14108244579872048,-1.2953706126314666
1.242542289782726,1.5239418201819106,-0.01782829191240863,0.12888860791674156,-1.2394818196056938
1.2385054517427603,1.4956778961808261,-0.017274647565555547,0.11688464426661067,-1.1761114186802442
1.234604261779893,1.4701513110042796,-0.01664874341590022,0.1050856616163892,-1.104887835696304
1.230856516176535,1.4473132113719558,-0.015940348787211255,0.0935065090994792,-1.0255068413726092
1.2272826439513882,1.4271114877544626,-0.015136800996674698,0.08216065279175226,-0.9377781263709261
1.2239063895179365,1.4094912795871792,-0.014221933207253087,0.07105854866289862,-0.8416892000323293
1.2207558118743813,1.3943959116354847,-0.013174394128009559,0.060205520482270444,-0.7374876449903993
1.2178647826456561,1.3817683414152988,-0.011964990469601772,0.04959943795411974,-0.6257761753404986
1.2152752825807138,1.3715530559070856,-0.010552401399461847,0.0392291316825127,-0.5076009719057941
1.2130410330008397,1.3636979999222874,-0.008875855816834718,0.02907570296791767,-0.384491289839613
1.2112336375530055,1.3581553542210898,-0.006840626338245304,0.019121216172942535,-0.25838473770221426
1.2099548384932675,1.354878122515398,-0.0042793654855640285,0.009376450833063526,-0.13136868379983366
1.209373633613899,1.3538003763229476,-0.0007745899872065366,-4.7448117505236725e-06,-0.0052444806782001585
