x,y,v_x,v_y,omega
2.375,32.48,0.0,3.230769230769231,-6.653061224489796
2.3733954323690405,31.841781263098728,-0.016045676309595056,3.1514181382434696,-6.207630623873553
2.368828113756412,31.219084970670416,-0.02962750981669189,3.0755447860396505,-5.8070101941111005
2.3617543829648633,30.61124068971611,-0.041109798098795065,3.0028980235033957,-5.445352753676877
2.3525635973876113,30.01762559596549,-0.05079805767372374,2.9332529140027805,-5.1177171602578415
2.341588834634428,29.437659607845298,-0.058949569858106864,2.866406967199165,-4.8199073151528
2.329115696132036,28.870801204020236,-0.0657818151658177,2.80217707105146,-4.548343424370002
2.31538958777513,28.31654380023129,-0.07147926840323687,2.740396966837989,-4.299958301613034
2.30062177004698,27.774412588495082,-0.07619890887826429,2.6809151505240774,-4.072113286233228
2.2849944076618334,27.24396176218382,-0.08007471497320524,2.6235931125885728,-3.862529649884069
2.2686648011814063,26.724772065989146,-0.08322134983106269,2.568303849358153,-3.669232323857674
2.2517689463545874,26.216448621623755,-0.08573719843712568,2.5149305942957545,-3.490503493208503
2.2344245383686054,25.718618989280664,-0.08770688142269707,2.4633657291351496,-3.3248441415511993
2.2167335157919568,25.23093143203221,-0.08920334434378831,2.413509843349393,-3.170942039276719
2.198784221278401,24.75305335600126,-0.0902896007917717,2.3652709169600965,-3.0276449814883057
2.1806532420088565,24.284669903636647,-0.09102019190367301,2.318563606686033,-2.893938324356751
2.162406981566393,23.82548268103939,-0.0914424125209607,2.2733086192865715,-2.768926057362977
2.1441030058576738,23.37520860321451,-0.0915973445662309,2.2294321589622066,-2.65181479690064
2.1257911983458184,22.933578843514447,-0.09152073055232239,2.1868654380384402,-2.5419002034862013
2.1075147538857117,22.500337875507284,-0.09124371404874317,2.1455442420331687,-2.438555417498108
2.089311035574899,22.075242597133478,-0.09079346905938462,2.105408541704913,-2.3412211823162274
2.0712123150339803,21.65806152837454,-0.09019373634980307,2.066402145884465,-2.2493973830425213
2.0532464132390165,21.248574074799116,-0.08946528159983409,2.0284723898698065,-2.1626357767808124
2.035437256309835,20.846569850315923,-0.08862628769198048,1.9915698549620946,-2.0805337291464783
2.0178053584049733,20.451848053282085,-0.08769269135663874,1.9556481153763026,-2.002728803133974
2.00036824200061,20.0642168908142,-0.08667847268699073,1.920663509302492,-1.9288940721479946
1.9831408042684382,19.68349304674946,-0.08559590463472908,1.8865749313449467,-1.858734050045272
1.9661356369605891,19.30950118922057,-0.08445576844376244,1.853343643943968,-1.7919811483388897
1.9493633061136288,18.9420735142559,-0.08326754002583968,1.8209331057027338,-1.728392584998909
1.9328325969618179,18.581049322204613,-0.08203955149227046,1.7893088148101475,-1.6677476811095298
1.9165507286726249,18.226274624125725,-0.08077913139966003,1.7584381659787167,-1.6098454914675764
1.900523542860587,17.87760177557674,-0.07949272672071805,1.7282903195111543,-1.554502723393809
1.884755669279087,17.534889135498002,-0.07818600909428337,1.6988360812762158,-1.5015519048706703
1.8692506716170636,17.1980007481186,-0.07686396752594928,1.6700477925178245,-1.4508397688547616
1.8540111759255442,16.866806046012265,-0.0755309893892451,1.6418992285455047,-1.4022258254320703
1.8390389838559442,16.541179572611554,-0.07419093130675601,1.6143655054616015,-1.3555810975455067
1.8243351725990413,16.221000722647975,-0.07284718126227331,1.5874229941742217,-1.310786999455724
1.8099001831626116,15.906153499127917,-0.07150271310202337,1.5610492410263694,-1.2677343400024634
1.795733898410466,15.596526285580971,-0.07016013441943232,1.5352228944431034,-1.22632243520111
1.7818357121006265,15.292011632430544,-0.06882172867896157,1.5099236370611628,-1.1864583168089102
1.7682045900010968,14.992506056438366,-0.06748949231633808,1.4851321228606142,-1.1480560252862582
1.7548536177075391,14.697913219912301,-0.06602023061923774,1.460796242400017,-1.1068982813603803
1.741793947686603,14.408140175933475,-0.06457646959012497,1.4369341973882617,-1.0676149181133066
1.7290204318407718,14.123093848867295,-0.06315868886818551,1.4135290732735537,-1.030098400333489
1.716527840905293,13.842684468527722,-0.06176722048660037,1.390564730122175,-0.9942485333392214
1.704310892031748,13.566825419727525,-0.06040226824885098,1.3680257578797907,-0.9599718821777924
1.69236427272876,13.295433100467612,-0.05906392478102772,1.3458974347193358,-0.92718124291849
1.6806826615964567,13.028426788172997,-0.057752186542006576,1.3241656882268211,-0.8957951608267646
1.6692607462384799,12.765728513430382,-0.056466967037759865,1.302817059199333,-0.8657374907814902
1.6580932386891845,12.507262940725443,-0.05520810845519535,1.2818386678500424,-0.8369369958028097
1.6471748886532538,12.252957255717092,-0.05397539190411194,1.2612181822334751,-0.8093269800034788
1.636500494819587,12.002741058621659,-0.052768546432555116,1.2409437887208612,-0.7828449526696896
1.6260649144802743,11.756546263312543,-0.051587256960570094,1.2210041643702851,-0.7574323205247007
1.61586307165825,11.514307001770536,-0.050431171259672905,1.2013884510497939,-0.7330341055359988
1.605889963923289,11.275959533547184,-0.04929990608993723,1.1820862311837472,-0.7095986858991217
1.596140668054983,11.041442159928444,-0.04819305259312476,1.1630875050036495,-0.6870775580730082
1.5866103446928195,10.810695142508617,-0.047110181028510036,1.1443826691946164,-0.6654251179565365
1.577294242097194,10.583660625905395,-0.04605084492774294,1.1259624968376134,-0.6445984594870193
1.5681876991308137,10.36028256436606,-0.045014584736061604,1.107818118555754,-0.6245571891116701
1.5592861475572826,10.14050665203245,-0.04400093099924916,1.0899410047803402,-0.6052632547349032
1.55058511374248,9.924280256648508,-0.0430094071487761,1.072322949059061,-0.5866807878799352
1.542080219834456,9.711552356509113,-0.04203953193146259,1.0549560523348875,-0.5687759579243952
1.5337671844888474,9.502273480462645,-0.041090821524624316,1.0378327081297858,-0.5515168373781717
1.5256418231990911,9.29639565079242,-0.04016279137293842,1.0209455885724545,-0.534873277268978
1.5177000482838872,9.093872328813777,-0.03925495777910243,1.0042876312139535,-0.5188167917883587
1.5099378685783078,8.894658363034448,-0.03836683927668845,0.9878520265793252,-0.5033204514292158
1.5023591991003604,8.698892139484023,-0.03741985550278707,0.9698102089249296,-0.5248464344207554
1.4949651739887921,8.506722979273473,-0.0365203956128955,0.9518813931805764,-0.5481269564273998
1.4877464045016637,8.318128588787811,-0.035667299258387256,0.9340625116760413,-0.5730477443446935
1.4806937383972123,8.133087275677052,-0.03485936178612753,0.9163506194315558,-0.5994972257307416
1.473798268257065,7.951577924774863,-0.03409533961534801,0.8987428895903442,-0.6273662747330753
1.467051338783858,7.773579974888477,-0.033373955116722365,0.8812366092735023,-0.6565479643607802
1.4604445531692876,7.5990733963766885,-0.03269390102898111,0.8638291758444009,-0.6869373240553219
1.4539697786218793,7.42803866943499,-0.03205384444509971,0.8465180935725753,-0.7184311015285962
1.4476191511376728,7.260456763008747,-0.03145243039696594,0.8293009706898602,-0.750927527844214
1.4413850795915306,7.096309114256325,-0.03088828506445591,0.8121755168343612,-0.7843260847178323
1.435260249221885,6.9355776084848095,-0.030360018631999462,0.7951395408807774,-0.818527273004311
1.4292376245773881,6.778244559480871,-0.029866227812969284,0.7781909491586195,-0.8534323813233753
1.4233104519901352,6.624292690158704,-0.029405498059561025,0.7613277440630618,-0.8889432537509705
1.4174722616368571,6.473705113445742,-0.028976405473219384,0.7445480230665652,-0.9249620554702229
1.4117168692467268,6.326465313324782,-0.02857751842808268,0.7278499781430539,-0.9613910352333527
1.4060383775121845,6.182557125948438,-0.028207398917340594,0.711231895620393,-0.9981322834334658
1.4004311772574705,6.0419647207382745,-0.02786460362979976,0.6946921564812468,-1.0350874845222027
1.3948899484183603,5.904672581376431,-0.027547684761301698,0.6782292371371764,-1.072157662434991
1.3894096608859394,5.770665486592097,-0.02725519056290723,0.6618417107061481,-1.1092429175993173
1.3839855752671568,5.639928490638528,-0.026985665624918748,0.6455282488295508,-1.1462421540020846
1.3786132436153826,5.512446903348426,-0.026737650892821724,0.6292876240714833,-1.183052794678837
1.3732885101852954,5.3882062696462185,-0.026509683408051054,0.6131187129505813,-1.2195704838594232
1.3680075122681818,5.267192348384846,-0.026300295763084548,0.5970204996631605,-1.2556887738606421
1.3627666811662047,5.14939109036192,-0.02610801525668796,0.5809920805661034,-1.2912987946557233
1.3575627433674227,5.034788615355421,-0.02593136273113167,0.5650326694989033,-1.326288903872563
1.3523927219874285,4.923371188001848,-0.0257688510688097,0.5491416040368041,-1.360544314777229
1.3472539385484623,4.815125192320043,-0.02561898332085162,0.5333183527812605,-1.3939466995867538
1.342144015172882,4.710037104660891,-0.025480250434951515,0.5175625238102493,-1.4263737652269672
1.337060877275021,4.608093464836909,-0.025351128543660284,0.5018738744295673,-1.4576987984098078
1.332002756843885,4.509280845155207,-0.025230075767698448,0.4862523223874379,-1.4877901766549746
1.3269681964189821,4.413585817042581,-0.025115528481330307,0.47069795873882325,-1.516510841630771
1.321956053873013,4.320994914911388,-0.025005896978359286,0.4552110625730886,-1.5437177309507235
1.316965508128408,4.2314945968691475,-0.024899560467691966,0.4397921178493188,-1.5692611643545198
1.3119960659499919,4.145071201822436,-0.024794861316469904,0.42444183261780033,-1.5929841800515125
1.3070475699737225,4.061710902466267,-0.02469009844622414,0.4091611609439026,-1.614721816952883
1.302120208151797,3.981399653582727,-0.02458351977303052,0.393951327891482,-1.6343003386234745
1.2972145248179159,3.904123134996965,-0.024473313565782286,0.3788138579661241,-1.651536395131602
1.2923314336036549,3.829866688454114,-0.024357598576826806,0.36375060746237187,-1.6662361196880164
1.2874722324684273,3.758615247587816,-0.024234412775449368,0.34876380120061296,-1.6781941582210842
1.2826386211423086,3.6903532600503937,-0.024101700485736895,0.33385607417359864,-1.6871926320895496
1.2778327213243061,3.625064600768866,-0.023957297694288893,0.31903051864168913,-1.6930000373545333
1.2730571000301647,3.5627324751839673,-0.023798915247125598,0.3042907372072864,-1.6953700889480026
1.268314796546009,3.503339311228949,-0.023624119594429987,0.28964090234291223,-1.6940405254486424
1.2636093535206336,3.4468666387232787,-0.02343031065932412,0.27508582271380133,-1.688731901108251
1.2589448528255591,3.3932949548140456,-0.02321469629142049,0.2606310163785125,-1.679146407850713
1.2543259569364849,3.3426035741262083,-0.022974262599322167,0.24628279049987653,-1.6649667934833525
1.2497579567556105,3.294770462431405,-0.022705739209420858,0.23204832644816292,-1.6458554766202353
1.2452468270222703,3.249772052989453,-0.022405558123981633,0.21793576797137187,-1.6214540085620277
1.240799290782615,3.2075830453711056,-0.02206980427256961,0.20395430821211308,-1.5913831043707716
1.2364228948612157,3.168176187706859,-0.021694154941423106,0.19011426843035825,-1.5552435691428785
1.2321260989851543,3.1315220451766663,-0.0212738038191898,0.1764271568715524,-1.5126185941327424
1.2279183822955277,3.0975887605237133,-0.02080336307707636,0.16290568965797866,-1.4630781082722195
1.223810372672141,3.0663418169503345,-0.020276733156790572,0.14956374607581235,-1.4061861650956677
1.2198140069683825,3.037743820608906,-0.01968692388079488,0.1364162173384798,-1.3415127453158413
1.2159427345097058,3.0117543298397145,-0.01902580070597133,0.12347869035342235,-1.268651874148161
1.2122117830199022,2.9883297720874324,-0.01828371419206435,0.11076688716940608,-1.1872485668755532
1.2086385170341456,2.967423507217699,-0.017448945665501342,0.09829576152791773,-1.0970377061320522
1.2052429362088266,2.9489861160340283,-0.016506862587689207,0.08607815030877694,-0.9978981772202169
1.2020483883889943,2.9329660087566474,-0.015438615610634372,0.07412292246502672,-0.8899246512789121
1.1990826156469014,2.919310443734858,-0.014219111810293426,0.06243272775285656,-0.7735157561175938
1.1963793216063334,2.9079669872037144,-0.012813828595386243,0.05100183755857115,-0.6494685569627092
1.193980572859524,2.898885267751389,-0.011173658872708027,0.039815356964685585,-0.5190528831445599
1.1919406206468612,2.8920184811137943,-0.009225863253920276,0.028852509411263882,-0.38401646100372444
1.190332541237965,2.8873232670605837,-0.006854930835041998,0.018099631120859924,-0.2464544697298692
1.1892624934015767,2.884754279956649,-0.003845547528841666,0.0075902399184827486,-0.10848695904973915
