x,y,v_x,v_y,omega
2.375,32.48,0.0,2.564102564102564,-3.224489795918368
2.3744564023482666,31.99771519773659,-0.005722080544561577,2.5125795649859493,-3.0564401983679326
2.3728929026072136,31.52506204025151,-0.010735811466522263,2.462716829593845,-2.9011760081406446
2.3704362588967594,31.06173343996699,-0.015123596011945248,2.414426331295832,-2.7574142993349566
2.367198559794027,30.60743842788241,-0.01895744717471242,2.3676264274891863,-2.624025702953758
2.3632790612255405,30.1619009987041,-0.022300432493561742,2.3222412480720087,-2.500013390560583
2.358765769870599,29.72485906502622,-0.025207897558456847,2.2782001590635663,-2.3844952790760616
2.353736811585368,29.296063507373496,-0.027728505443977213,2.23543728991246,-2.2766889106705386
2.348261616937286,28.875277308896077,-0.029905122430566176,2.1938911151129874,-2.175898563268812
2.342401950690959,28.462274765132477,-0.03177557489919295,2.153504082398612,-2.0815042281359335
2.3362128077762354,28.05684076060033,-0.03337329788737065,2.1142222810976357,-1.992952155899214
2.3297431947138127,27.65877010509309,-0.03472789224339405,2.0759951452943923,-1.909746724639913
2.323036812529472,27.267866923497014,-0.03586560443387779,2.0387751872958653,-1.8314434260131232
2.3161326547407817,26.883944093731763,-0.036809740710231464,2.002517757601524,-1.7576427997775694
2.3090655319587876,26.506822728085712,-0.037581025416020826,1.9671808281463623,-1.6879851752339299
2.30186653293887,26.136331693786197,-0.03819791163574558,1.9327247960590794,-1.6221461011293374
2.2945634304808156,25.772307169131537,-0.03867685108061575,1.8991123055688925,-1.5598323645693366
2.287181039370661,25.414592231930488,-0.03903252902627768,1.8663080860211219,-1.500778515163951
2.2797415325373045,25.063036477356093,-0.03927806921957502,1.8342788042356455,-1.4447438236395604
2.2722647207337547,24.717495662634747,-0.03942521292305646,1.8029929296732592,-1.3915096149665738
2.264768300320236,24.377831376264083,-0.039484475640297646,1.7724206110705898,-1.340876925080471
2.2572680731030537,24.043910729692165,-0.03946528454056712,1.7425335633706758,-1.2926644378297623
2.249778141651462,23.71560606959968,-0.03937609916039776,1.7133049639186053,-1.2467066651269476
2.2423110830603696,23.39279470911111,-0.039224517587945505,1.6847093570137215,-1.2028523386172891
2.234878103737429,23.07535867642337,-0.039017370021956904,1.6567225660151288,-1.1609629856859698
2.227489177458883,22.76318447948455,-0.038760801331157925,1.6293216122882581,-1.1209116664367582
2.2201531686510885,22.456162885483035,-0.038460344014047396,1.6024846403592483,-1.0825818515092502
2.212877942606895,22.154188714021195,-0.03812098276693495,1.576190848712723,-1.0458664233514998
2.2056704641321345,21.857160642949268,-0.03774721170423065,1.5504204257286678,-1.0106667859082803
2.1985368859324064,21.564981025925896,-0.037343085135011236,1.5251544903068162,-0.9768920696868464
2.191482627889976,21.277555720853286,-0.036912262680045105,1.5003750367732762,-0.944458420875456
2.1845124482413594,20.99479392840785,-0.03645804941065807,1.4760648837049628,-0.9132883646596495
2.1776346941585336,20.716609408514657,-0.03593936198750653,1.4521932204339638,-0.8816718378407675
2.1708563563349528,20.442918895838318,-0.03541156247124027,1.4287595445801076,-0.8514379044250746
2.1641789842929615,20.17364060015149,-0.03487656428655987,1.4057488310707118,-0.8225102201302881
2.1576037835342166,19.908695523708783,-0.03433607527917935,1.3831467104314699,-0.794817451401048
2.1511316526267037,19.64800734011473,-0.03379161848411371,1.360939432663791,-0.7682928941435385
2.1447632165515693,19.39150227982973,-0.03324455072782423,1.3391138334941115,-0.7428741253451014
2.1384988566986354,19.139109021880515,-0.032696079303059074,1.3176573028134382,-0.7185026844138134
2.1323387378567604,18.890758591374812,-0.03214727692720385,1.296557755141305,-0.6951237814086967
2.126282832507485,18.646384262449935,-0.03159909517043434,1.2758036019626866,-0.6726860296280868
2.1203309426970383,18.40592146631254,-0.031052376518477667,1.2553837257993536,-0.6511412002865331
2.1144827197322686,18.169307704052162,-0.030507865215938467,1.2352874558888598,-0.6304439972437013
2.1087376819198935,17.936482463934002,-0.029966217019589847,1.2155045453549345,-0.610551849955704
2.103095230545268,17.70738714289783,-0.029428007976468426,1.1960251497626477,-0.5914247230032996
2.0975546642662684,17.48196497200914,-0.028893742328793326,1.1768398069604087,-0.5730249407152089
2.092115192079572,17.26016094562662,-0.02836385963642933,1.1579394181187603,-0.5553170255508171
2.086775945000335,17.041921754066443,-0.027838741197643416,1.1393152298831144,-0.5382675490368363
2.0815359865817498,16.827195719558958,-0.027318715840095775,1.120958817564107,-0.5218449941689443
2.07639432238805,16.615932735307318,-0.026804065146217443,1.1028620692952131,-0.5060196282935698
2.0713499085229876,16.40808420747047,-0.026295028170231514,1.0850171710926915,-0.4907633855782862
2.066401659305509,16.203602999904664,-0.025791805697965256,1.0674165927578907,-0.47604975826291035
2.06154845417516,16.002443381508847,-0.02529456409518104,1.0500530745664884,-0.4618536959584832
2.05678914390151,15.804560976029158,-0.024803438785342614,1.0329196146933788,-0.4481515123287643
2.052122556164524,15.609912714187342,-0.024318537393457348,1.016009457325729,-0.4349207985495562
2.047547500566207,15.418456788006477,-0.02383994258883164,0.9993160814202072,-0.4221403429958109
2.0430661853361953,15.230352798708932,-0.02333179667444546,0.9807259111855471,-0.4515543925034446
2.0386779256608745,15.045770522019271,-0.022860410434194244,0.9622454223898126,-0.48247035971449315
2.0343758186549246,14.864689390917519,-0.022424926470543224,0.9438717471023303,-0.5147803453678461
2.0301531292524437,14.68708937264731,-0.022024435660836335,0.9256021294261901,-0.5483784888560236
2.026003299530951,14.51295094776831,-0.02165798246013673,0.9074339219316954,-0.5831607356432742
2.021919957073288,14.34225508985022,-0.021324569725786814,0.889364582469248,-0.6190246079769959
2.01789692245534,14.174983245736826,-0.021023163094720174,0.8713916713559632,-0.6558689779302678
2.0139282159419087,14.011117316309377,-0.020752694941401785,0.853512848932982,-0.693593841805053
2.010008063468057,13.850639637678889,-0.020512067941246617,0.8357258734932198,-0.7321000949099324
2.0061309019788016,13.693532962736725,-0.020300158261444153,0.8180285995821922,-0.7712893057027184
2.0022913841961283,13.539780442992043,-0.02011581839827181,0.8004189766776328,-0.8110634882565461
1.9984843828789598,13.389365610623262,-0.01995787967718763,0.7828950482569119,-0.8513248719675414
1.9947049946388506,13.242272360668697,-0.019825154429225295,0.7654549512648244,-0.8919756673722931
1.990948543371902,13.098484933278709,-0.019716437854444595,0.7480969159982008,-0.9329178268834212
1.9872105833655929,12.957987895948214,-0.01963050958038933,0.73081926642807,-0.9740527991807061
1.9834869021379948,12.820766125643988,-0.019566134920640986,0.7136204209848389,-1.015281275912616
1.9797735230661522,12.686804790735891,-0.019522065835597666,0.6964988938372404,-1.0565029292676165
1.9760667078602911,12.556089332634688,-0.019497041594518,0.679453296701731,-1.0976161388652494
1.972362958941024,12.428605447031583,-0.01948978913460993,0.6624823412257057,-1.1385177062924114
1.9686590217778364,12.30433906462557,-0.019499023109471852,0.6455848419954694,-1.1791025554692676
1.9649518872489677,12.18327633121429,-0.01952344561546113,0.6287597202285122,-1.2192634168704979
1.9612387940853495,12.065403587011737,-0.019561745580519853,0.6120060082194434,-1.2588904934497822
1.957517231464621,11.950707345041977,-0.019612597795570966,0.5953228546201516,-1.2978711059174275
1.953784941825486,11.839174268441543,-0.019674661563743565,0.5787095306475925,-1.3360893148018522
1.9500399239778852,11.730791146483927,-0.019746578937319258,0.5621654373273207,-1.3734255164847748
1.9462804365907387,11.625544869117544,-0.019826972506327502,0.545690113897759,-1.4097560101375703
1.9425050021465118,11.523422399782898,-0.019914442696059898,0.5292832475195682,-1.4449525322036674
1.9387124114606715,11.424410746245155,-0.020007564523310636,0.5129446844566818,-1.478881754772041
1.9349017288744454,11.328496929144276,-0.02010488375275409,0.4966744429209898,-1.5114047438753297
1.9310722982413218,11.235667947925624,-0.02020491238539078,0.4804727278016763,-1.5423763734321154
1.9272237498416858,11.145910743768809,-0.020306123400251924,0.4643399475332201,-1.571644690251147
1.9233560083761199,11.059212159080783,-0.020406944658336056,0.44827673339337076,-1.599050225248401
1.9194693022065172,10.975558893059809,-0.020505751863796304,0.4322839615642383,-1.624425245829927
1.9155641740356264,10.894937452769291,-0.02060086046137184,0.4163627783359457,-1.6475929443150992
1.9116414932403953,10.81733409908352,-0.020690516330532854,0.40051462888269074,-1.6683665573907478
1.9077024701030498,10.74273478678069,-0.02077288511521081,0.384741290094472,-1.6865484120057554
1.9037486722168653,10.671125097961525,-0.020846040002521573,0.3690449080020206,-1.7019288939969897
1.89978204338195,10.602490167864868,-0.020907947733428477,0.35342804038382364,-1.7142853373119944
1.8958049253511124,10.53681460203573,-0.020956452591176598,0.33789370518605644,-1.7233808342972674
1.8918200828385798,10.474082383679278,-0.0209892580670611,0.3224454354081797,-1.7289629716407275
1.8878307322670453,10.414276769911762,-0.0210039058438277,0.30708734109198127,-1.73076250290162
1.8838405748043037,10.357380175505558,-0.02099775165871765,0.2918241789733102,-1.7284919781613788
1.8798538343341038,10.303374042636737,-0.02096793750128122,0.27666143017217243,-1.7218443656857838
1.8758753011237161,10.252238695105682,-0.020911359450167897,0.26160538594421123,-1.7104917217891589
1.8719103821038072,10.203953175555782,-0.0208246302330842,0.2466632408968456,-1.694083996521298
1.867965158881593,10.158495064427012,-0.020704035263907166,0.23184319203758744,-1.6722481089905217
1.864046454893256,10.115840279850541,-0.020545480402800097,0.21715454034632053,-1.644587493801112
1.8601619135107428,10.075962858570705,-0.020344428886812725,0.20260778891510162,-1.6106824188554962
1.8563200895241976,10.038834719502312,-0.0200958236031348,0.1882147275943183,-1.5700915182799087
1.852530557344577,10.004425414036053,-0.019793988813924825,0.17398848783996684,-1.522355191243106
1.848804040710319,9.972701871185997,-0.019432502073000422,0.1599435421606063,-1.4670018125506148
1.8451525709667669,9.943628151814803,-0.019004021543339408,0.14609560911511232,-1.4035581133394326
1.8415896846620243,9.917165235360521,-0.018500044822370183,0.13246140619310076,-1.33156564712385
1.838130677162961,9.893270875717203,-0.01791056043092873,0.11905816899972721,-1.2506059625140271
1.8347929386944646,9.87189958092166,-0.017223528711139538,0.10590282884807527,-1.1603378897570582
1.831596414971892,9.853002793516357,-0.016424089421204203,0.09301072278670747,-1.060550954530919
1.8285642601070795,9.836529370656201,-0.015493330208399015,0.08039372837281705,-0.9512386787254644
1.825723790583773,9.822426472351776,-0.01440634898430193,0.06805783272640635,-0.8326929297778006
1.8231079160736132,9.810640932505205,-0.013129172175273889,0.05600048144802734,-0.7056128531943571
1.8207573387090488,9.801121050716969,-0.01161374745172163,0.04420880053340664,-0.5712057448549228
1.8187240488736705,9.7938183993558,-0.009789303446996592,0.03266121379468331,-0.4312312470823182
1.8170772876105186,9.788688498653887,-0.007545025638814004,0.021337740962289214,-0.28791315999233374
1.8159156081857977,9.785687375088681,-0.004683178831931129,0.01025303340829772,-0.14363922345921076
1.8154044446687925,9.784751622853893,-0.0006974897681234745,-0.00040300988421040733,-0.00047065596113554653
