x,y,v_x,v_y,omega
2.375,32.48,0.0,3.6923076923076925,-7.387755102040816
2.3729368255813026,31.751597553273257,-0.020631744186976077,3.591716774959701,-6.828562082142492
2.3671022162815754,31.042810946457262,-0.03771434881029304,3.4961492932002387,-6.33346239030607
2.3581469244975737,30.352676236767167,-0.05183856902972459,3.4051978037007307,-5.893007095026286
2.3466142555376193,29.68030621249505,-0.06348812056982174,3.318502439020438,-5.499392820245881
2.3329593276220053,29.02488163930405,-0.07306115858631652,3.2357432928895653,-5.146134540465778
2.317564514834402,28.38564387246602,-0.08088696928971313,3.156634375490746,-4.827811420010563
2.300751911925843,27.761888560001744,-0.08723905979588344,3.080918749152011,-4.539867573386225
2.282793455343016,27.152960228590015,-0.09234550603238156,3.0083645649652753,-4.278454583658984
2.2639191855735947,26.558247592415974,-0.09639719166183276,2.9387617967751427,-4.0403060891137335
2.2443240253999712,25.977179460524574,-0.09955441007440341,2.871919522138846,-3.822637219336971
2.2241733658376925,25.409221144550415,-0.101952185548381,2.807663637602735,-3.623063444592398
2.203607688789043,24.85387128850939,-0.10370458493811753,2.7458349228075156,-3.4395347049676555
2.1827464074409395,24.310659057454362,-0.10490822854291518,2.6862873877427633,-3.2702816484937003
2.1616910683974115,23.779141633470605,-0.1056451618923637,2.628886852094811,-3.1137715263462797
2.1405280307352443,23.258901976605365,-0.10598521472930861,2.573509716557569,-2.9686718351425148
2.119330714618175,22.74954681552638,-0.10598794644138733,2.5200418942322886,-2.833820208342103
2.098161494332142,22.250704838448094,-0.10570425641893895,2.4683778765506035,-2.7081993744671244
2.0770732965165934,21.762025059490448,-0.10517772173654838,2.418419913025823,-2.5909162435326345
2.056110953140441,21.283175339394273,-0.10444571202497427,2.3700772879359526,-2.4811843724316507
2.035312349780278,20.813841042597417,-0.10354032157665813,2.3232656800325966,-2.378309208076514
2.0147094025242653,20.35372381521956,-0.1024891509834679,2.2779065937459775,-2.2816756235463265
1.9943288909791121,19.90254047061893,-0.10131596446806439,2.233926852260318,-2.190737354578647
1.9741931701139896,19.460021970955708,-0.1000412441831617,2.191258144371913,-2.105008016944469
1.9543207798113063,19.025912494689095,-0.09868265884367228,2.149836618294235,-2.0240534437163578
1.93472696783531,18.599968581199583,-0.0972554609162895,2.109602516600845,-1.9474851283602457
1.915424139337872,18.181958344805096,-0.09577282405809043,2.070499847344051,-1.8749545973986466
1.8964222438875695,17.7716607513616,-0.09424613044493375,2.0324760870908762,-1.806148567000502
1.8777291092466788,17.36886495143194,-0.09268521596397473,1.9954819122057461,-1.740784762723934
1.8593507296617011,16.973369664691056,-0.09109857988580118,1.9594709552031073,-1.6786083019251086
1.8412915152211151,16.584982610829726,-0.08949356452006028,1.9243995834101744,-1.6193885549547078
1.8235545078244941,16.203519982735337,-0.08787650944614973,1.8902266975337578,-1.5629164149080232
1.806141568463922,15.828805958179295,-0.08625288415957061,1.8569135480266443,-1.5090019169422149
1.7890535398125096,15.460672246635927,-0.0846274023545525,1.8244235674070328,-1.4574721574761156
1.7722903875220264,15.098957668204598,-0.08300412055027807,1.7927222169062451,-1.4081694713048758
1.7558513231328048,14.74350776191286,-0.08138652334193948,1.7617768460111267,-1.360949831083203
1.739734911078289,14.394174420948445,-0.07977759720321859,1.7315565636330146,-1.3156814389901286
1.7239391619108801,14.050815552607265,-0.07817989447086873,1.7020321197787907,-1.2722434848735416
1.7084616135743371,13.713294760956924,-0.07659558889456138,1.6731757967246395,-1.2305250489370276
1.693299402292117,13.381481050404222,-0.07502652392764063,1.6449613088023727,-1.1904241301991265
1.6784493244233487,13.055248548523597,-0.07347425476004263,1.6173637100038618,-1.151846784627517
1.6639078904525673,12.734476246653898,-0.07194008494776975,1.5903593086931167,-1.1147063591109003
1.6496713721208551,12.419047756905638,-0.07042509836935347,1.5639255887894792,-1.07892280934773
1.6357358435704294,12.108851084341627,-0.06893018713490238,1.5380411368506215,-1.0444220913596103
1.6220972172584907,11.803778413202394,-0.06745607598448526,1.5126855745416954,-1.0111356177245368
1.6087512752963264,11.50372590614542,-0.06600334363715646,1.487839496028067,-0.9789997708096233
1.5957081695449338,11.208596320075404,-0.0644277138767687,1.4634563646720853,-0.943891595313719
1.5829764677107978,10.918295844726433,-0.06288930446459153,1.4395483888176306,-0.910381533075489
1.5705487755935883,10.632731144179239,-0.061387616707503714,1.4160986166543232,-0.8783779424421617
1.558417805113988,10.351812195370965,-0.05992208808849786,1.3930908714284158,-0.8477954350334828
1.5465763859084434,10.075452137545565,-0.05849210396694826,1.3705097068255945,-0.8185543811361636
1.5350174747402798,9.803567130321497,-0.057097007714687106,1.3483403654150998,-0.7905804594451504
1.5237341630199555,9.536076219788924,-0.055736109488556826,1.3265687399106127,-0.7638042467164332
1.5127196826897154,9.272901212095299,-0.054408693813845097,1.3051813370256369,-0.738160843384666
1.5019674106952985,9.013966554020623,-0.053114026130323275,1.2841652437211082,-0.713589531628749
1.4914708722389673,8.759199220082419,-0.051851358432989506,1.2635080956609335,-0.6900334627473526
1.4812237429834054,8.508528605745589,-0.05061993412263009,1.243198047707347,-0.6674393710406934
1.4712198503544835,8.2618864263446,-0.049418992166587926,1.2232237463025513,-0.6457573116903667
1.4614531740720897,8.019206621354716,-0.04824777065734944,1.203574303596277,-0.6249404203905579
1.4519178460218085,7.780425263676008,-0.04710550984546324,1.1842392731907858,-0.6049446927157484
1.442608149565897,7.545480473618369,-0.045991454713653374,1.1652086273856088,-0.5857287814157277
1.4335185183794725,7.314312337298404,-0.04490485715059196,1.1464727358140605,-0.5672538100115214
1.4246435348868651,7.086862829179758,-0.04384497777547965,1.1280223453724132,-0.549483201228489
1.415977928363497,6.863075738507451,-0.04281108745820387,1.1098485613506495,-0.5323825189477488
1.4075165727602488,6.642896599404285,-0.041802468574278565,1.0919428296810085,-0.5159193224863354
1.39925448429993,6.426272624413464,-0.04081841602890827,1.07429692022719,-0.500063032131927
1.391186818889012,6.213152641286431,-0.039858238080270454,1.056902911043127,-0.48478480496118287
1.3833088693821456,6.0034870328285415,-0.038921256988394576,1.0397531735357677,-0.47005742006312035
1.3756160627320297,5.797227679627831,-0.03800680951276346,1.0228403584713366,-0.45585517237175116
1.368103957052862,5.594327905503782,-0.03711424727891434,1.0061573827691568,-0.4421537743864728
1.3607682386217885,5.394742425523734,-0.03624293703182028,0.989697417031326,-0.42893026512542204
1.353612472547039,5.198606360004881,-0.035314723715674554,0.971663238157219,-0.4520667694957155
1.3466374957083702,5.006065900672407,-0.03443504467101449,0.9537413551675162,-0.47692509560500207
1.3398337234679216,4.817098892394306,-0.03360267773347141,0.9359287276135135,-0.5033926638315244
1.333191819611442,4.631683776070741,-0.032816360831325164,0.9182224356221288,-0.5313595427393886
1.3267027038176573,4.449799564967503,-0.03207479710652155,0.9006196754102549,-0.5607181989474648
1.3203575581516342,4.271425821905204,-0.03137665955370826,0.8831177552127293,-0.591363253176045
1.3141478326750977,4.096542637222793,-0.030720595211656987,0.8657140916113937,-0.6231912414407449
1.3080652502601127,3.9251306074361096,-0.030105228938194582,0.8484062062554442,-0.6561003803772115
1.3021018106866238,3.757170814513966,-0.02952916679669318,0.8311917229660084,-0.6899903356867427
1.29624979409903,3.592644805695297,-0.02899099907924375,0.8140683652206705,-0.7247619926918513
1.2905017638922223,3.4315345737715788,-0.028489302988834984,0.7970339540165294,-0.7603172279819489
1.2848505690933232,3.2738225377585906,-0.02802264500015573,0.7800864061133546,-0.796558681112426
1.2792893463017065,3.119491523881102,-0.027589582916010647,0.7632237326615413,-0.8333895252951357
1.2738115212467294,2.9685247467926565,-0.027188667633760866,0.7464440382229115,-0.8707132359842151
1.2684108100199882,2.8209057909507678,-0.026818444633649626,0.7297455201959941,-0.9084333562177973
1.2630812200367911,2.6766185920650365,-0.026477455198321526,0.7131264686613253,-0.9464532575228503
1.2578170507799324,2.535647418532246,-0.026164237370266262,0.6965852666665796,-0.9846758951264537
1.2526128943777772,2.3979768527679823,-0.025877326651285344,0.6801203909760632,-1.023003556141463
1.2474636360681124,2.263591772338941,-0.02561525644536295,0.6637304133143447,-1.0613375993068537
1.2423644545992274,2.1324773307935416,-0.025376558243487075,0.6474140021396603,-1.099578184762111
1.2373108226202807,2.004618938080643,-0.025159761545979105,0.6311699249893298,-1.1376239922198044
1.2322985071142118,1.880002240437026,-0.024963393514709928,0.6149970514468569,-1.175371925769894
1.2273235699283243,1.7586130996134557,-0.024785978344165606,0.5988943567888307,-1.212716803402311
1.2223823684602448,1.6404375712966406,-0.024626036336628118,0.5828609263793337,-1.2495510291699181
1.2174715565603116,1.5254618825696582,-0.02448208266270332,0.5668959608904959,-1.2857642457313079
1.2125880857156413,1.4136724082365788,-0.024352625783999365,0.5509987824403146,-1.3212429648114992
1.2077292065862546,1.3050556458172338,-0.0242361655098671,0.5351688417531272,-1.3558701728984757
1.2028924709697997,1.199598188995477,-0.024131190654682756,0.5194057264644355,-1.389524909255526
1.1980757342787218,1.0972866992779906,-0.02403617625609508,0.5037091707104417,-1.4220818130755906
1.193277158622325,0.9981078755905521,-0.02394958030787313,0.4880790661639543,-1.4534106363383064
1.1884952165962017,0.9020484215038955,-0.02386983995335991,0.4725154747026105,-1.4833757186599281
1.1837286958931736,0.8090950097413412,-0.02379536707692193,0.45701864292294436,-1.5118354201616393
1.1789767048633795,0.7192342435745473,-0.02372454322102055,0.4415890187450053,-1.538641508139617
1.174238679166736,0.6324526146613252,-0.023655713745413604,0.42622727038721714,-1.5636384931257392
1.1695143896789675,0.5487364568196007,-0.02358718113227246,0.4109343080300164,-1.5866629098183012
1.164803951833106,0.46807189516366776,-0.02351719732634329,0.39571130852931685,-1.607542538392278
1.1601078366022457,0.39044478995209886,-0.02344395498225961,0.38055974358634365,-1.6260955619483204
1.1554268833569061,0.3158406744107154,-0.023365577471135497,0.3654814118274636,-1.6421296564445564
1.1507623148623123,0.2442446856985967,-0.02328010747480301,0.35047847529372705,-1.6554410105429063
1.1461157547181022,0.17564148808116897,-0.023185493967298392,0.33555350088052277,-1.6658132746340855
1.1414892475866065,0.1100151872635422,-0.023079577347658347,0.32070950729577496,-1.6730164412324469
1.1368852826075364,0.04734923472307884,-0.022960072443041744,0.30595001810887085,-1.6768056634586508
1.1323068204589883,-0.012373679230179846,-0.022824549042439517,0.29127912142371537,-1.676920025185693
1.1277573246005264,-0.06917174503250578,-0.022670409542180317,0.27670153659956137,-1.6730812866700582
1.1232407973288479,-0.12306416751434313,-0.02249486317460365,0.2622226882188218,-1.6649926446574408
1.1187618213980028,-0.1740713150457367,-0.022294896133845464,0.24784878709514543,-1.6523375682626238
1.1143256081165709,-0.22221488549789115,-0.02206723668047333,0.2335869174263905,-1.6347788045911946
1.109938053052979,-0.2675180900478935,-0.021808313955445684,0.21944512807360617,-1.6119576957390978
1.1056058007883265,-0.3100058552715055,-0.02151420869108,0.20543252416250898,-1.583494018137758
1.1013363206038875,-0.34970504293045224,-0.02118059315330937,0.19155935242694166,-1.548986655668811
1.097137995659621,-0.3866446851201957,-0.020802656289356323,0.177837069470514,-1.5080155627329503
1.0930202292441844,-0.4208562296432845,-0.020375007865009846,0.16427837576037904,-1.4601456802703636
1.0889935732751541,-0.4523737861039052,-0.019891551825292,0.15089718884584533,-1.4049337590360365
1.0850698867590818,-0.4812343565959054,-0.019345313335431612,0.1377085160741431,-1.3419394450669384
1.0812625359696368,-0.507478025129501,-0.018728194559018203,0.12472816926177903,-1.270742510758954
1.0775866546141781,-0.5311480662444197,-0.01803061899556803,0.11197224188742752,-1.1909687596160228
1.0740594927429945,-0.5522909151770818,-0.017240999716269224,0.09945624743920714,-1.1023277948514094
1.0707008999749374,-0.5709559207344554,-0.016344927964302126,0.08719380813454662,-1.0046662145857437
1.0675340154255577,-0.5871947832523574,-0.015323917529494694,0.07519481704450583,-0.8980391360777884
1.0645862793192202,-0.6010605787761278,-0.014153443533879272,0.063463138193194,-0.7827997378218761
1.0618909501102045,-0.6126063200755638,-0.01279984855627837,0.05199427480114152,-0.6596982023348734
1.0594894314015606,-0.6218831675698411,-0.011215338530161854,0.0407742001416207,-0.5299652084637764
1.0574349693209235,-0.628938782688742,-0.009329282276209754,0.029781951047415108,-0.3953313447596895
1.0557990175362515,-0.6338171159254173,-0.0070302355705109155,0.019001381319359287,-0.25791296380386364
1.054684550279511,-0.6365630193237095,-0.004114436996894414,0.008457652663569086,-0.11989984974959192
