x,y,v_x,v_y,omega
2.375,32.48,0.0,2.4615384615384617,-5.183673469387755
2.373980756493452,31.968501542025052,-0.009707081014742998,2.4098754239372036,-4.899062669420253
2.371054009182405,31.467661774375593,-0.018166702899990665,2.3600271251052707,-4.637470539439575
2.366465754090712,30.977110924269056,-0.025530964639943695,2.3118857330522244,-4.39644438317142
2.3604321749871082,30.496500891938677,-0.03193169348961376,2.2653526700942375,-4.173844541326147
2.3531435835922516,30.025503422498566,-0.03748346265187888,2.22033751504967,-3.967798305792902
2.3447677789829906,29.563808490594568,-0.04228610505536721,2.1767570745122233,-3.7766615251340525
2.335452922089717,29.11112286565034,-0.04642681773771599,2.134534591623262,-3.5989864609278093
2.325330003424028,28.667168831439284,-0.04998193145932425,2.0935990675296923,-3.433494754953823
2.314514968100185,28.231683038381664,-0.05301840495822751,2.0538846758761977,-3.279054598396089
2.303110550972299,27.804415470676282,-0.05559509149782812,2.0153302546512615,-3.134661373651517
2.2912078656652235,27.38512851334562,-0.057763816188606015,1.9778788627835802,-2.9994211796816876
2.278887783953338,26.973596106668154,-0.059570295353160926,1.9414773912875287,-2.8725367624453098
2.26622213597491,26.569602977415283,-0.061054923489011134,1.9060762206446078,-2.7532954597016586
2.2532747568821705,26.172943937899362,-0.062253448822793975,1.8716289176022474,-2.6410588395427195
2.240102401503236,25.78342324514613,-0.06319755478610438,1.838091965761876,-2.535253768288785
2.226755545263485,25.400854013586454,-0.06391536178295533,1.8054245252826464,-2.435364688831985
2.2132790868488526,25.025057675563076,-0.06443186121354313,1.7735882177971631,-2.340926927406644
2.1997129657871954,24.65586348470203,-0.06476929175461651,1.7425469332603998,-2.251520876859116
2.1860927061930515,24.29310805783357,-0.06494746628485218,1.7122666559630109,-2.166766929147301
2.17244989629905,23.93663495168477,-0.06498405651516069,1.6827153073589016,-2.0863210500892007
2.158812612030089,23.586294271023327,-0.06489484128446585,1.6538626037024482,-2.0098709061414097
2.145205791720556,23.241942305322937,-0.06469392356823246,1.6256799267774595,-1.9371324668879917
2.1316515680948993,22.9034411913562,-0.06439392048563951,1.598140206239069,-1.8678470184877163
2.118169562798694,22.570658599410635,-0.06400612995441483,1.5712178122901255,-1.8017785329870502
2.104777148057148,22.24346744107402,-0.06354067710792337,1.5448884575824025,-1.7387113464983701
2.0914896794311884,21.92174559675342,-0.0630066431393132,1.5191291073756952,-1.6784481060427674
2.0783207031214808,21.60537566128251,-0.06241217885790066,1.4939178971091778,-1.6208079505876163
2.065301514525006,21.294249340837464,-0.06158009348947663,1.4691899166531615,-1.5606194051350528
2.052459776863482,20.988262322894137,-0.06072216995361084,1.4449721589975488,-1.5032967392029586
2.039800426428181,20.687309450888698,-0.05984307228735407,1.4212456696256939,-1.4486685335692997
2.027327474303402,20.391289452805445,-0.05894694794863345,1.397992407357641,-1.3965755721483868
2.015044109077643,20.10010475522884,-0.0580374827728813,1.3751951886100366,-1.346869835262369
2.002952788651318,19.813661308669808,-0.05711794985878561,1.3528376357617053,-1.2994135871110688
1.99105532234125,19.53186842334173,-0.056191253094243464,1.3309041292675943,-1.2540785475953657
1.9793529443421582,19.254638614632647,-0.05525996594472459,1.3093797631998665,-1.2107451397851485
1.967846379482791,18.981887457584342,-0.05432636604924889,1.288250303926844,-1.1693018053153053
1.9565359021068727,18.7135334497468,-0.05339246610235436,1.2675021516687837,-1.129644380861973
1.9454213888146792,18.44949788182865,-0.05246004144234481,1.2471223046946007,-1.0916755296130523
1.9345023657181013,18.189704715611384,-0.051530654715539866,1.2270983259460162,-1.055304222316129
1.9237780507890423,17.93408046863802,-0.05060567794216514,1.2074183118955486,-1.0204452630756442
1.9132473918166566,17.682554105225414,-0.04968631227103299,1.1880708634625945,-0.9870188555899225
1.9029091004321637,17.435056933384924,-0.048773605676516577,1.169045058827788,-0.9549502059765228
1.8927616826098337,17.19152250726799,-0.047868468821865066,1.1503304280001343,-0.9241691587390545
1.8828034660083934,16.95188653478253,-0.04697168928708975,1.1319169290042566,-0.8946098627868343
1.8730326244778648,16.716086790052586,-0.0460839443369923,1.1137949255666528,-0.8662104647362996
1.863447200022056,16.48406303041811,-0.045205812384996616,1.0959551661902664,-0.8389128270049708
1.8540451224760837,16.255756917693944,-0.04433778329093095,1.078388764516075,-0.8126622684593063
1.8448242271309103,16.031111943427472,-0.04348026761548073,1.0610871808788858,-0.7874073256007911
1.8357822705125395,15.810073357913108,-0.042633604940431655,1.0440422049722116,-0.7630995324733342
1.8269169445018534,15.592588102738898,-0.04179807135181704,1.0272459395440634,-0.7396932176523785
1.8182258889618026,15.378604746656332,-0.04097388617247577,1.0106907850518079,-0.7171453168345475
1.8097067030214724,15.168073424578846,-0.04016121802114433,0.9943694252099785,-0.6954151996883585
1.8013637307082662,14.96109365188056,-0.03929566115224863,0.9768665052498852,-0.7026148603458803
1.793198906293211,14.757776796266796,-0.038464571372088016,0.9594845005954825,-0.7120073294895799
1.7852050107408162,14.558097828598463,-0.03766776722214605,0.9422199533886405,-0.7234689284175139
1.7773748739218496,14.362032431067021,-0.03690496438706141,0.9250695469107938,-0.7368795654396594
1.7697013952544363,14.169556968196897,-0.03617578482639705,0.9080300994713285,-0.7521224618074411
1.7621775625043314,13.980648459080985,-0.03547976517460222,0.8910985587754505,-0.7690838874348676
1.7547964688924915,13.795284550750882,-0.03481636446196772,0.8742719967493403,-0.7876529053234946
1.7475513286474558,13.613443492587859,-0.03418497120503951,0.8575476048032561,-0.8077211236429593
1.7404354911302806,13.435104111684335,-0.03358490991091543,0.8409226895160115,-0.8291824544510794
1.7334424536508468,13.260245789068822,-0.03301544703607342,0.8243946687269573,-0.8519328780627068
1.7265658730861912,13.088848436709945,-0.03247579643683636,0.8079610680242619,-0.8758702120947697
1.7197995764040728,12.920892475217197,-0.031965124345243026,0.7916195176209448,-0.9008938842263139
1.7131375701882239,12.756358812157654,-0.03148255390093837,0.7753677496128026,-0.9269047077168451
1.706574049255622,12.595228820908723,-0.031027169266696283,0.7592035956151016,-0.9538046587238017
1.7001034044506256,12.437484319967474,-0.030598019352318748,0.7431249847777385,-0.9814966544504212
1.6937202296958982,12.283107552636753,-0.030194121168893844,0.7271299421815199,-1.0098843311383763
1.687419328375729,12.132081167007456,-0.02981446283271837,0.7112165876213237,-1.038871820895088
1.6811957191235583,11.984388196154768,-0.029458006235574822,0.6953831347852217,-1.0683635263132232
1.6750446410822981,11.840012038463886,-0.029123689395474495,0.6796278908422212,-1.0982638917991352
1.6689615587033348,11.698936437997663,-0.02881042849941357,0.6639492564551568,-1.1284771704774657
1.6629421661479495,11.561145464814722,-0.02851711964711283,0.6483457262395186,-1.1589071854802329
1.6569823913532824,11.426623495141737,-0.028242640302097447,0.6328158896936831,-1.1894570843599455
1.651078399823914,11.295355191297624,-0.027985850453793593,0.6173584326312129,-1.220029085286977
1.6452265982096534,11.16732548126042,-0.027745593491543544,0.6019721391516882,-1.250524213601015
1.639423637730245,11.042519537759226,-0.027520696788538614,0.5866558941930266,-1.2808420271842562
1.6336664175084348,10.920922756763826,-0.027309971990604347,0.5714086867155551,-1.3108803290096644
1.627952087874263,10.802520735233177,-0.02711221500150709,0.5562296135763374,-1.34053486509065
1.622278053705546,10.687299247970696,-0.02692620565294233,0.5411178841615739,-1.369699005918876
1.6166419778724126,10.57524422341891,-0.02675070704356625,0.5260728258554449,-1.398263409324817
1.6110417848574727,10.466341718208337,-0.02658446452728926,0.5110938904357184,-1.4261156625320814
1.6054756646278245,10.360577890255087,-0.026426204326503805,0.4961806614999936,-1.4531399010031685
1.599942076840747,10.257938970178198,-0.026274631740899376,0.4813328630417911,-1.4792164014943405
1.5944397554716734,10.158411230780942,-0.02612842891694563,0.46655036931303584,-1.504221146555691
1.588967713961019,10.061980954309526,-0.025986252136905953,0.45183321612900873,-1.5280253575369538
1.5835252509858209,9.968634397167637,-0.02584672857926678,0.4371816137937366,-1.5504949930017256
1.5781119569730653,9.878357751725236,-0.025708452494596124,0.42259596184816745,-1.5714902093295615
1.5727277214842823,9.79113710481479,-0.02556998073190862,0.4080768658703528,-1.5908647802216107
1.5673727416156902,9.706958392456865,-0.025429827540396816,0.3936251565860731,-1.6084654718567157
1.5620475315751898,9.625807350299485,-0.025286458559605648,0.37924191157945114,-1.6241313706222447
1.5567529336172048,9.547669459191496,-0.025138283897395173,0.3649284799252145,-1.637693160740138
1.551490130539202,9.47252988523929,-0.024983650178824514,0.35068651009579965,-1.6489723498272788
1.5462606599703128,9.400373413619128,-0.024820831429642375,0.33651798152478174,-1.6577804416174713
1.5410664307136002,9.331184375334992,-0.02464801863428838,0.3224252402288864,-1.6639180569389909
1.5359097414402503,9.264946566026733,-0.024463307778566805,0.30841103889737453,-1.667174006883737
1.5307933020778561,9.20164315584936,-0.02426468614899535,0.29447858183949716,-1.667324326343466
1.5257202582881089,9.141256589368389,-0.024050016610502833,0.28063157512215176,-1.6641312823257854
1.5206942194948425,9.083768474359342,-0.023817019515845615,0.2668742821068616,-1.657342380552256
1.515719291006178,9.029159458379084,-0.023563251804766223,0.25321158437177305,-1.6466894070002724
1.5108001108816809,8.977409092019222,-0.02328608271425619,0.23964904762691389,-1.6318875600118279
1.5059418923380112,8.92849567789828,-0.02298266532069246,0.22619299162015688,-1.6126347558170548
1.5011504726817617,8.882396104760723,-0.02264990283406434,0.2128505620708678,-1.5886112292907293
1.4964323700330167,8.839085666618384,-0.02228440810636346,0.1996298011894986,-1.5594796073649821
1.4917948495005058,8.798537867827545,-0.02188245410802714,0.18653971110421083,-1.524885711535848
1.4872460010571003,8.760724216537007,-0.021439912019644795,0.17359030118662003,-1.4844604575018436
1.4827948322515465,8.725614011344902,-0.020952171842771785,0.16079260540484394,-1.4378233761087218
1.4784513802523955,8.693174129644106,-0.02041403767295149,0.14815864888843583,-1.3845884948979263
1.4742268498301483,8.663368831514322,-0.0198195853960713,0.1357013332999964,-1.3243736085425681
1.4701337871834401,8.636159600723474,-0.019161963620196256,0.12343419804140343,-1.2568143381296109
1.4661863046963506,8.611505054998652,-0.018433107685418625,0.11137099933784476,-1.1815848201639325
1.462400379849821,8.589360971417761,-0.01762331942438756,0.09952503476585878,-1.0984273043859
1.4587942642380725,8.569680488577017,-0.01672063878274036,0.0879081351459838,-1.0071931711149906
1.4553890584295393,8.552414561223195,-0.01570989272709987,0.07652926822376277,-0.9078974360085391
1.4522095390611525,8.537512745285465,-0.014571244114680486,0.06539278832603654,-0.8007867699667871
1.4492853726382067,8.524924360329493,-0.013277959913375508,0.05449659220702521,-0.6864159059719904
1.4466529308127039,8.514599972962387,-0.011792914615222184,0.043830906527328066,-0.5657172551712558
1.44435807918103,8.506492904155458,-0.010062815210242014,0.0333792725862695,-0.44003331481950997
1.44246071064266,8.50055997483934,-0.008007361345663499,0.023124816138638506,-0.31106596097262185
1.4410431540151722,8.496759620349163,-0.0054931779637440534,0.013069036148764979,-0.18069367862143826
1.4402313592793872,8.49504140274188,-0.002238200472304352,0.0032949410634434424,-0.0506392298662349
