x,y,v_x,v_y,omega
2.375,32.48,0.0,3.1794871794871797,-7.510204081632653
2.373037349543684,31.820736582010476,-0.018691909107772214,3.0992120394606304,-6.991928764053772
2.367458485461449,31.177944280595785,-0.03444012977065761,3.0226194025840605,-6.52758474524229
2.3588345157276174,30.55087936528508,-0.0476929153134503,2.949427409898844,-6.109894904144621
2.3476502678497693,29.938853963996507,-0.05882373114224564,2.879385935706598,-5.732750460786491
2.3343185291463717,29.34122991888224,-0.06814520889011276,2.8122716368102343,-5.390995105883243
2.3191916639726364,28.757413577854905,-0.07592017371689225,2.747883992021546,-5.080254304001045
2.302571150004029,28.186851338592582,-0.08237043550793889,2.6860420961910596,-4.796799169900685
2.284715449823476,27.629025804675305,-0.0876838519258989,2.6265820363544274,-4.537437083447872
2.2658465409347714,27.08345244501384,-0.0920200422522393,2.5693547223261675,-4.299423179150558
2.2461553574717925,26.54967667118212,-0.09551503834756121,2.5142240760711805,-4.080388271278183
2.225806343830927,26.027271264923165,-0.09828509156544375,2.4610655073474614,-3.878279819562855
2.204941279735575,25.515834101544318,-0.10042980458076456,2.409764620070124,-3.6913133147519366
2.183682504677815,25.014986125265544,-0.10203471977885109,2.3602161063943927,-3.51793204381275
2.162135645001037,24.524369540630037,-0.10317346761903641,2.3123227948961427,-3.3567736342290826
2.140391927436213,24.0436461904032,-0.10390955680786187,2.2659948263118,-3.2066421128201554
2.1185301474666467,23.572496095392076,-0.10429787147372305,2.2211489356989103,-3.066484473445014
2.096618348564819,23.11061613562026,-0.10438592759130036,2.1777078240327077,-2.9353709490389313
2.0747152584376627,22.6577188555216,-0.10421493076257002,2.135599605478299,-2.8124783406953044
2.052871520414209,22.21353137844065,-0.10382066946079589,2.0947573191022233,-2.697075880311145
2.031130751614029,21.777794417878063,-0.1032342714933005,2.055118495779549,-2.588513201369371
2.0095304542384853,21.350261374694227,-0.1024828463690227,2.016624772637898,-2.486210070531963
1.9881028019899651,20.93069751095893,-0.10159003218831145,1.9792215486506912,-2.389647595254366
1.9668753200590858,20.51887919236868,-0.10057646239149172,1.9428576760183562,-2.298360672953268
1.9458714741782477,20.11459319219159,-0.09946016504505975,1.9074851828110202,-2.2119314879415954
1.9251111818043558,19.717636050578314,-0.09825690518248169,1.8730590230297612,-2.1299838953773986
1.9046112564703328,19.32781348382548,-0.0969804789510721,1.8395368508067411,-2.0521785584069723
1.884385794659193,18.94493983881796,-0.0956429668693053,1.8068788159315332,-1.9782087267297463
1.8644465131455115,18.56883758842571,-0.09425495230861357,1.7750473782803808,-1.9077965629274207
1.8448030435683058,18.199336864105845,-0.09282571033144132,1.7440071390516485,-1.8406899378370327
1.8254631900070675,17.8362750223719,-0.09136337120416099,1.7137246869859482,-1.7766596286066323
1.8064331544966603,17.479496242150205,-0.0898750622282887,1.6841684579825473,-1.7154968633314385
1.7877177347107085,17.128851150356226,-0.08836703097125247,1.6553086067220504,-1.657011164711208
1.769320497445326,16.78419647329754,-0.08684475250858073,1.627116889074914,-1.601028452304646
1.7512439310277976,16.445394711751483,-0.08531302289645303,1.5995665542209025,-1.5473893689332656
1.7334895793434701,16.112313837777638,-0.08377604076380837,1.5726322455300026,-1.4959478018072838
1.7160581598065097,15.78482701151379,-0.0822374786358138,1.5462899093637812,-1.4465695731743164
1.698949667286256,15.46281231637031,-0.08070054536660096,1.5205167110503173,-1.399131278862055
1.6821634657323035,15.146152511186408,-0.07916804086151973,1.4952909573678057,-1.3535192561086884
1.665721683927649,14.834739697322114,-0.07742035727804586,1.4705453651492826,-1.3033206411131038
1.6496437466401574,14.52846987755671,-0.07570285498377767,1.4463100611879158,-1.2555050624445654
1.6339232341666015,14.227237877112728,-0.07401631143103989,1.422566133516665,-1.209930360087996
1.6185535857899986,13.930942397548275,-0.07236129215565511,1.3992955766209791,-1.1664644693880286
1.6035281413153326,13.63948583215209,-0.07073817903164148,1.3764812366760082,-1.124984590394471
1.5888401770371472,13.352774092422525,-0.06914719504631434,1.3541067607484343,-1.0853764346766694
1.5744829368240896,13.070716444833113,-0.06758842603042614,1.3321565496269103,-1.0475335415473637
1.5604496589201498,12.793225357154618,-0.06606183972138055,1.3106157139777996,-1.0113566565603318
1.54673359898809,12.520216353663987,-0.06456730248871237,1.2894700335520157,-0.9767531659543345
1.5333280498558497,12.251607878625581,-0.06310459400881481,1.2687059191946923,-0.9436365814242185
1.5202263583702904,11.987321167479717,-0.06167342013936832,1.2483103774325832,-0.9119260702218831
1.507421939713368,11.727280125218641,-0.060273424212275564,1.228270977434799,-0.8815460261365804
1.494908289492752,11.471411211471075,-0.058904196936448584,1.2085758201610584,-0.8524256773855238
1.4826789938812408,11.219643331853696,-0.057565285077943236,1.1892135095282792,-0.8244987278704533
1.4707277380463164,10.97190773518189,-0.056256199064193484,1.1701731254413121,-0.7977030286309008
1.459048313082267,10.728137916163107,-0.05497641964103905,1.1514441985470882,-0.7719802766566859
1.4476346216319307,10.488269523224385,-0.05372540369549892,1.1330166865836024,-0.7472757385160612
1.4364806823628347,10.252240271151464,-0.052502589343508654,1.1148809522061145,-0.7235379965166016
1.4255806334429328,10.01998985824062,-0.05130740036984242,1.0970277421828611,-0.7007187153474546
1.4149287351439197,9.79145988768596,-0.050139250096951415,1.0794481678615395,-0.6787724273574709
1.4045193716849613,9.566593792944822,-0.04899754475027007,1.062133686815951,-0.6576563348070822
1.3943470524163355,9.345336766842244,-0.047881686379498904,1.045076085589565,-0.6373301275952595
1.3844064124307145,9.127635694192097,-0.04679107538832151,1.0282674634594646,-0.6177558151088113
1.374692212679464,8.91343908772808,-0.045725112718824436,1.011700217150221,-0.5988975709716894
1.3651993396621849,8.702697027151864,-0.044683201731452744,0.9953670264327961,-0.5807215895886669
1.3559318920860077,8.495504861359858,-0.04357820375594885,0.977891695395836,-0.5907431666647173
1.3468916459411133,8.29196998675329,-0.042519378576377796,0.960535681809589,-0.6029033241997112
1.3380689844630642,8.092067703530368,-0.04150596883361369,0.9432955869801309,-0.6170799216178328
1.3294544576139178,7.895774011095284,-0.04053714401539907,0.9261681504968543,-0.6331543935044965
1.3210387966531503,7.703065579651451,-0.03961200799191059,0.9091502442063357,-0.6510114739848368
1.3128129271934057,7.513919723010204,-0.03872960591041908,0.8922388666626899,-0.6705389311814802
1.3047679808706878,7.328314372517266,-0.037888930496417686,0.8754311380319688,-0.6916273106330262
1.2968953057490777,7.14622805200365,-0.03708892780462947,0.8587242954310483,-0.7141696865973745
1.289186475571333,6.967639853671546,-0.0363285024596074,0.8421156886842377,-0.7380614201991176
1.2816332979587455,6.792529414828927,-0.03560652242217799,0.8256027764835677,-0.7631999234078963
1.2742278216563705,6.620876895389305,-0.03492182331472739,0.8091831229413968,-0.7894844278550558
1.2669623429131216,6.4526629560551605,-0.034273212335261274,0.7928543945266449,-0.8168157575092246
1.2598294110802566,6.287868737105104,-0.033659471787262814,0.7766143573786585,-0.845096104237576
1.2528218335063857,6.126475837705822,-0.03307936224960384,0.7604608749954518,-0.8742288052784629
1.2459326798023258,5.968466295670229,-0.032531625408110006,0.7443919062958985,-0.9041181216427112
1.239155285544853,5.813822567583028,-0.032014986567819766,0.7284055040583977,-0.9346690164449004
1.232483255484671,5.662527509214023,-0.031528156862486556,0.7124998137416501,-0.9657869321421851
1.2259104663206895,5.514564356138017,-0.031069835175432305,0.6966730726964946,-0.9973775656262622
1.2194310691000074,5.369916704477845,-0.030638709783444924,0.6809236097813269,-1.02934664007354
1.2130394913007807,5.228568491684069,-0.030233459732999998,0.6652498453974969,-1.0615996724089423
1.206730438653472,5.090503977260973,-0.029852755955652777,0.6496502919653261,-1.0940417351795058
1.2004988967547972,4.955707723343675,-0.029495262126965335,0.6341235548660727,-1.1265772115644133
1.194340132528034,4.8241645750253,-0.029159635270778153,0.6186683338803656,-1.1591095421676703
1.1882496955832649,4.69585964032612,-0.028844526107975894,0.6032834251594322,-1.19154096214761
1.1822234195315866,4.570778269688326,-0.028548579146102194,0.5879677237719556,-1.223772227133124
1.1762574233084084,4.448906034870216,-0.028270432503213018,0.5727202268767148,-1.2557023262593265
1.1703481125626718,4.330228707102318,-0.02800871745618455,0.5575400375794425,-1.2872281805247756
1.1644921811712443,4.214732234354599,-0.027762057700266952,0.5424263695416985,-1.3182443245280826
1.1586866129409061,4.102402717548603,-0.027529068302952892,0.5273785524201816,-1.3486425694838096
1.1529286835643247,3.9932263855306545,-0.02730835433115592,0.5123960382269629,-1.3783116452465745
1.1472159629013015,3.887189568601766,-0.027098509126208512,0.4974784087148248,-1.4071368188896736
1.141546317662446,3.7842786703764304,-0.02689811219622426,0.4826253839074327,-1.4349994871929383
1.135917914579409,3.684480137715422,-0.026705726689843147,0.4678368319116876,-1.4617767401983544
1.1303292241540093,3.5877804284468944,-0.02651989640920078,0.4531127801695205,-1.4873408927981449
1.124779025088176,3.4941659765545694,-0.02633914231302037,0.4384534283288033,-1.5115589811391243
1.1192664095077558,3.4036231544715427,-0.02616195845288686,0.4238591629381254,-1.5342922204749356
1.1137907891061325,3.3161382320722517,-0.02598680727685947,0.4093305741979953,-1.5553954209974106
1.1083519023485,3.231697331903156,-0.02581211422440211,0.3948684750314907,-1.5747163581632797
1.1029498228948247,3.150286380133984,-0.02563626152488604,0.3804739227701626,-1.5920950941511498
1.0975849694193924,3.0718910526456575,-0.02545758109827833,0.36614824378534055,-1.6073632474053527
1.0922581170278138,2.9964967155980986,-0.02527434644056592,0.35189306142949184,-1.6203432078469846
1.086970410499042,2.924088359741127,-0.025084763357261026,0.3377103276845398,-1.630847296399518
1.08172337961111,2.854650527645539,-0.02488695938494784,0.32360235894009554,-1.6386768691882483
1.0765189568459597,2.7881672329413263,-0.02467897171172218,0.309571876338117,-1.643621369416804
1.0713594978123557,2.7246218705590906,-0.024458733370220188,0.2956220511117612,-1.6454573339098206
1.0662478047785244,2.6639971168858523,-0.024224057428173445,0.2817565553000342,-1.643947367223724
1.0611871537708328,2.6062748186774556,-0.023972618835555022,0.267979618113252,-1.6388391049034066
1.0561813257760437,2.551435869533197,-0.02370193349576885,0.2542960880225294,-1.6298642000964958
1.0512346426892645,2.499460072759611,-0.0234093339973676,0.24071150029733648,-1.6167373860370606
1.046352008788205,2.450325989568597,-0.023091941250818055,0.22723214914090514,-1.5991556933150133
1.0415389587032062,2.40401077182959,-0.022746630987265735,0.21386516265915967,-1.576797938824166
1.0368017131176042,2.3604899791152683,-0.022369993637515573,0.2006185774772324,-1.5493246577320021
1.032147243815512,2.3197373806771857,-0.02195828543002976,0.18750140764735584,-1.5163787275843381
1.0275833502597256,2.281724744454614,-0.021507367482221765,0.17452369923427116,-1.4775870441238643
1.0231187507365298,2.24642161753307,-0.02101262797678631,0.1616965571613975,-1.4325637639640931
1.0187631924157838,2.213795106013798,-0.020468879839842316,0.1490321239745212,-1.3809158453089296
1.0145275867149794,2.183809667544619,-0.019870222072579637,0.13654348049385656,-1.322251911155652
1.0104241795579025,2.1564269374242,-0.019209846090057325,0.12424442541488005,-1.2561958421292838
1.0064667711673436,2.1316056198703706,-0.018479757629551823,0.11214907509777307,-1.1824069709432548
1.002671007997163,2.1093014900857483,-0.017670367800740206,0.1002712085653113,-1.1006092356847827
0.9990547819342728,2.0894675694369162,-0.016769880417262545,0.08862327380452312,-1.010631965731957
0.9956387914682798,2.0720545519057936,-0.01576336211600341,0.07721498839665443,-0.9124646708155434
0.9924473499290223,2.057011565479609,-0.014631319210258877,0.06605154899559418,-0.8063263597885737
0.989509573522898,2.0442873263766543,-0.013347503705209896,0.055131680556346714,-0.6927449539480379
0.986861160606006,2.033831647293013,-0.011875476455667106,0.04444621547833312,-0.5726322916088095
0.9845471244865156,2.0255970272616075,-0.010162962777574728,0.033978737201709186,-0.4473243085238116
0.9826262159138113,2.0195395696549845,-0.008131404581513998,0.023711335242332113,-0.3185387145641034
0.981179023110502,2.01561742808482,-0.005651384021432075,0.013642393997344456,-0.18819698732809845
0.9803278088902816,2.013781248287657,-0.0024554180759056004,0.0038450326423041213,-0.058085018920071174
