x,y,v_x,v_y,omega
2.375,32.48,0.0,4.0,-2.7346938775510203
2.3738644891928615,31.574978641300433,-0.009874007018593561,3.8697509452136134,-2.48017415822975
2.3706988004406258,30.699018173338573,-0.017653721261720937,3.7472966022807936,-2.2617170915968914
2.3659352308261536,29.85040729386144,-0.023768623211947,3.6319284366508127,-2.0728464945444802
2.359918183701603,29.027587857470735,-0.028553525697191152,3.5230231841379385,-1.9084398143153665
2.3529233357891233,28.229136744008372,-0.03227123875915464,3.4200299764043223,-1.7644107975701488
2.345172266429204,27.453750415708853,-0.03512936437057829,3.322459834895835,-1.6374738967522529
2.3368437111524263,26.700231678286677,-0.03729285542748686,3.229877012253539,-1.52496758750694
2.3280822817616844,25.967478265477062,-0.038893487100703755,3.1418917947865994,-1.4247206172372007
2.3190052692834997,25.25447294454176,-0.040037056187860014,3.0581544742160185,-1.334949861279618
2.309707985014521,24.560274899545625,-0.040808893977172245,2.97835026488079,-1.254181672640947
2.300267978753259,23.884012194960242,-0.04127811699031953,2.902194992383415,-1.1811908505325281
2.2907483888164744,23.224875157911534,-0.0415009259382449,2.82943141673581,-1.1149529330136574
2.281200616433833,22.582110545659397,-0.041523181736896043,2.759826081108846,-1.054606645673594
2.271666471237141,21.955016387472355,-0.04138242866912358,2.6931665987784936,-0.9994241494397782
2.2621799003551137,21.34293740824733,-0.041109492044155635,2.6292593075260586,-0.9487873199811585
2.2527683879366873,20.74526095599372,-0.040729746376945264,2.567927233809671,-0.9021687231064874
2.243454092501993,20.16141336737971,-0.040264126968221424,2.509008319355668,-0.8591162696738749
2.2342547747373933,19.590856715481763,-0.039729940550036084,2.4523538710612285,-0.819240771109051
2.22518455703096,19.033085892111202,-0.03914151776677408,2.397827201726258,-0.7822057947987091
2.216254547325564,18.487625983945527,-0.0385107405410186,2.345302434497042,-0.747719353165826
2.2074733531132398,17.95402990742679,-0.03784747000093136,2.2946634482745654,-0.7155270625003279
2.198847506135709,17.431876272209234,-0.03715989502107478,2.2458029449215835,-0.6854064858426445
2.19038181424024,16.920767447007172,-0.03645481711344148,2.198621622052877,-0.6571624344120227
2.182079653603308,16.420327805142975,-0.035737884077270854,2.153027437635796,-0.6306230486584448
2.1739432119772646,15.930202130028956,-0.03501378223615027,2.108934954660014,-0.6056365162716654
2.1659736915857963,15.450054163322285,-0.0342863950809653,2.0662647558327607,-0.582068312844166
2.1581714786766097,14.979565280638369,-0.03355893456413603,2.024942919679548,-0.5597988731872027
2.150536285445549,14.51843328155286,-0.032834050053780706,1.9849005506292285,-0.5387216189214747
2.143067269006679,14.066371282212835,-0.032113918979872876,1.9460733566753332,-0.5187412819538049
2.135763131244526,13.62310670025273,-0.03140032243015047,1.9084012690647159,-0.4997724746076723
2.1286222027062864,13.188380322902812,-0.030694708337151242,1.871828099195434,-0.48173846611118404
2.121642513140917,12.76194545021444,-0.0299982444051947,1.836301228529524,-0.4645701323332884
2.1148218508432457,12.34356710622962,-0.029311862531076153,1.801771327860226,-0.44820505146337686
2.1081578125944325,11.933021311711574,-0.028636296154256113,1.7681921027314964,-0.4325867230353865
2.10164784568941,11.530094412744212,-0.027972111715506384,1.7355200622020948,-0.41766389152744965
2.095289283294717,11.134582460114974,-0.027319735194863942,1.7037143084869415,-0.40338995889656576
2.089079374176292,10.746290634929139,-0.02667947453057037,1.6727363453029307,-0.38972247297228174
2.0830153076682625,10.365032716374095,-0.026051538582731265,1.6425499030017843,-0.3766226807428544
2.0770942346140973,9.99063058796752,-0.025436053192619146,1.6131207787945385,-0.36405513730836386
2.0713132848954032,9.622913778991094,-0.024833074796022876,1.584416690565666,-0.35198736271677683
2.0656695820669704,9.261719038137517,-0.024242601972958397,1.556407142943703,-0.34038954009628053
2.060160255535949,8.906889936688046,-0.023664585253314822,1.529063304443003,-0.32923424949473756
2.0547824506555115,8.558276498795713,-0.02309893544614302,1.5023578946207683,-0.3184962326706407
2.0495333370467144,8.215734856678985,-0.02254553071730985,1.4762650803072899,-0.3081521847784518
2.0444186127688115,7.879127298165745,-0.02193033256880166,1.4507571676339406,-0.2960204458788418
2.039443280494284,7.548321568896981,-0.02133342634013321,1.4258143912248655,-0.2845015705725184
2.0346031876215838,7.223190223962373,-0.02075433777030231,1.4014146951630142,-0.2735567577123352
2.0298942917716394,6.90361076373248,-0.02019258266399898,1.3775371329230157,-0.26315012816626276
2.025312662569334,6.5894653867065855,-0.01964767126909044,1.3541617977369322,-0.2532484701845281
2.020854482503362,6.280640757780212,-0.019119111913275682,1.3312697581445916,-0.24382100988694522
2.016516047021988,5.977027790791112,-0.01860641401171561,1.3088429982823493,-0.23483920411003267
2.012293763998468,5.678521444300273,-0.01810909054063134,1.28686436250757,-0.22627655318710915
2.0081841526796653,5.385020529652493,-0.017626660057653162,1.2653175039948479,-0.21810843152426765
2.0041838422142026,5.096427530441012,-0.017158648337675563,1.2441868369745654,-0.2103119340871879
2.00028956984185,4.812648432572676,-0.016704589682781167,1.223457492315308,-0.20286573713343317
1.996498178813373,4.533592564195793,-0.016264027956147457,1.2031152761793344,-0.19574997171668532
1.9928066160994284,4.25917244481208,-0.01583651738250209,1.183146631505128,-0.1889461086571167
1.9892119299380249,3.989303642948258,-0.015421623151443058,1.1635386020933376,-0.1824368538190442
1.9857112672623276,3.7239046418118917,-0.015018921854618521,1.144278799092453,-0.17620605266594067
1.9823018710439755,3.4628967124009193,-0.014628001783225889,1.1253553696985965,-0.17023860317618145
1.9789810775814363,3.2062037935770746,-0.014248463108420555,1.1067569679000628,-0.16452037630262278
1.9757463137581168,2.953752378650698,-0.013879917963921087,1.0884727271119101,-0.15903814324700702
1.9725950942908295,2.705471408058525,-0.0135219904472746,1.0704922345591539,-0.15377950889777736
1.969525018985702,2.461292167747125,-0.013174316553831876,1.0528055072791018,-0.14873285084847346
1.9665337700156387,2.221148192903243,-0.012836544055415977,1.0354029696242177,-0.14388726347459355
1.9636191092308675,1.984975176698434,-0.012508332333899223,1.0182754321567438,-0.13923250660062808
1.9607788755119544,1.7527108837393577,-0.012189352178388128,1.0014140718352358,-0.1347589583367398
1.9580109821727967,1.5242950679371603,-0.011879285553417274,0.9848104134012746,-0.13045757170702135
1.9553159463564118,1.2997704690912357,-0.01155580850210332,0.9675774026502323,-0.14380247546683486
1.9526926704141045,1.0791952129351863,-0.011255286648395833,0.9504683030545462,-0.15932565349426145
1.9501358181555677,0.86254121929489,-0.010978211251925213,0.933479467730654,-0.1769065876481716
1.9476399569335725,0.6497812300023789,-0.010724929808901874,0.9166073956824746,-0.19642849925736483
1.945199589291343,0.4408887761182356,-0.010495658384398551,0.8998487250491822,-0.2177780752756199
1.94280918188669,0.23583814664946345,-0.010290492960409918,0.8832002268531749,-0.2408452047521412
1.9404631919107698,0.034604358650788924,-0.010109419873679318,0.8666587992222303,-0.265522724532581
1.9381560912030162,-0.16283687139699055,-0.00995232541113258,0.8502214620627934,-0.2917061731460575
1.9358823882488534,-0.35650915503308767,-0.009819004625067723,0.8338853521641673,-0.3192935518665741
1.933636648233099,-0.5464354581843196,-0.00970916942496838,0.8176477187161135,-0.3481850919631415
1.93141351130947,-0.732638126547549,-0.009622455997893546,0.80150591922504,-0.378283027171781
1.9292077092351596,-0.9151389100773386,-0.009558431604805233,0.7854574158165898,-0.4094913704344606
1.9270140805090796,-1.093958986666479,-0.009516600795890567,0.7694997719150758,-0.44171569395480614
1.9248275841429061,-1.2691189851053934,-0.009496411083878983,0.7536306492928585,-0.4748629116179833
1.9226433121855508,-1.4406390074049042,-0.009497258110514065,0.7378478054854815,-0.5088410628122341
1.9204565011140087,-1.6085386505664232,-0.009518490337679535,0.7221490915711825,-0.5435590966718394
1.9182625421966912,-1.7728370278834902,-0.00955941329116733,0.7065324503163394,-0.5789266557353563
1.9160569909293137,-1.933552789859398,-0.009619293381680194,0.690995914691525,-0.6148538579783197
1.9138355756381202,-2.0907041448270363,-0.009697361324349316,0.6755376067661806,-0.6512510761355895
1.9115942053407196,-2.2443088793594015,-0.0097928151747864,0.6601557369935371,-0.6880287131744054
1.909328976951028,-2.3943843785623145,-0.009904822996444821,0.6448486039013639,-0.7250969727141412
1.9070361819117947,-2.5409476463449465,-0.010032525170801141,0.6296145942084926,-0.7623656231117089
1.9047123123359198,-2.6840153257689963,-0.010175036358548183,0.6144521833919183,-0.7997437538414274
1.9023540667362806,-2.8236037195835593,-0.010331447116574155,0.5993599367347199,-0.8371395226936512
1.899958355423101,-2.959728811060536,-0.010500825171945281,0.5843365108911782,-0.8744598921961135
1.8975223056480353,-3.092406285254448,-0.010682216350364405,0.5693806560124218,-0.9116103535242002
1.895043266575195,-3.2216515508215195,-0.010874645152592824,0.5544912184838532,-0.9484946360095141
1.8925188141613225,-3.347479762545646,-0.01107711496803864,0.5396671443346662,-0.9850144001782826
1.8899467560303402,-3.4699058447340008,-0.011288607910067498,0.5249074833901615,-1.0210689120505068
1.8873251364316443,-3.5889445156625683,-0.011508084252507272,0.5102113942495273,-1.0565546962053645
1.8846522413768663,-3.704610313272603,-0.011734481441214731,0.4955781501855549,-1.0913651648664855
1.8819266040565656,-3.8169176223429915,-0.011966712648355863,0.4810071460786969,-1.125390219980886
1.8791470106465413,-3.925880703391421,-0.012203664830115542,0.46649790651632045,-1.1585158249567007
1.876312506623389,-4.031513723589875,-0.012444196240774788,0.4520500952093487,-1.1906235423875682
1.8734224037207565,-4.133830790017818,-0.012687133347334454,0.43766352590318164,-1.2215900337273866
1.8704762876717325,-4.232845985620344,-0.012931267078960392,0.4233381749883385,-1.2512865164925264
1.867474026899209,-4.328573408289664,-0.013175348334287445,0.4090741960492028,-1.2795781741677041
1.864415782335231,-4.42102721354744,-0.013418082656824358,0.3948719366271317,-1.3063235135907203
1.861302018572677,-4.510221661374075,-0.01365812397408171,0.38073195751753236,-1.3313736642130025
1.8581335165785409,-4.5961711678101125,-0.013894067279274653,0.36665505496974343,-1.3545716133132073
1.8549113882281847,-4.678890362046232,-0.014124440115126001,0.35264228621389193,-1.3757513710349834
1.8516370929548027,-4.758394149822841,-0.01434769269689301,0.33869499880012877,-1.394737059110531
1.8483124568488187,-4.834697784079566,-0.014562186485574204,0.3248148643018418,-1.4113419174434685
1.8449396945889696,-4.907816943929674,-0.014766180991375355,0.3110039170034484,-1.4253672235435635
1.8415214346416446,-4.977767823185083,-0.01495781855058016,0.2972645982609886,-1.4366011214081875
1.8380607482293185,-5.04456722982259,-0.015135106773996522,0.2835998072825226,-1.444817359240423
1.8345611826447605,-5.10823269795803,-0.015295898309114094,0.27001295911260187,-1.4497739399888685
1.831026799578289,-5.1687826140749635,-0.015437867486291645,0.25650805059987924,-1.451211695990285
1.8274622192350887,-5.226236359424156,-0.01555848332414545,0.243089735045289,-1.4488528103314628
1.8238726711553794,-5.280614470646185,-0.01565497823854239,0.229763406015837,-1.442399324910856
1.8202640528224627,-5.331938820731693,-0.015724311612909315,0.2165352903798744,-1.4315317015352071
1.8166429973692113,-5.380232822356838,-0.015763127111014713,0.2034125498387849,-1.415907542139717
1.81301695199963,-5.425521655310334,-0.01576770218969371,0.1904033888872516,-1.3951606339231766
1.8093942691737217,-5.467832518996602,-0.01573388760081311,0.17751716490636207,-1.3689005745340679
1.8057843132364766,-5.507194909597217,-0.01565703359262131,0.16476449249031452,-1.3367133656384358
1.8021975861326904,-5.543640918999721,-0.015531897744651024,0.15215732840103977,-1.2981635607164987
1.7986458773553797,-5.577205548455929,-0.015352526405875798,0.13970901469640554,-1.2527988433372328
1.7951424456972713,-5.607927023228882,-0.015112096708110413,0.12743424419884486,-1.2001583329372458
1.7917022443459016,-5.6358470840014405,-0.014802697651625901,0.11534889295386631,-1.1397865093952153
1.7883422074640183,-5.661011214999547,-0.01441501436475151,0.1034696374644381,-1.0712554487512749
1.7850816274570076,-5.683468746064285,-0.013937855261426942,0.09181324135935251,-0.9941990473951661
1.7819426707034616,-5.703272735790932,-0.013357420856364703,0.08039536495932215,-0.9083638842702927
1.7789511106426978,-5.7204795088026685,-0.012656144889406785,0.06922874818619823,-0.8136816966663932
1.7761374090328839,-5.73514769629783,-0.011810825630716915,0.05832070829346353,-0.7103665531021275
1.7735383633073,-5.747336652912736,-0.010789571983053161,0.047670218792680005,-0.5990324931655275
1.7711996912362427,-5.757104276995733,-0.009546706895706915,0.037265642798614065,-0.48080973957185125
1.7691802382535997,-5.764504699222087,-0.008013753822928226,0.02708585482186069,-0.357406133077814
1.7675593593301588,-5.769587316581884,-0.006080845511341492,0.017110817872031222,-0.2310235563130986
1.766452553899489,-5.7724012995756055,-0.0035435495379604765,0.007358599464687825,-0.104028003067827
