x,y,v_x,v_y,omega
2.375,32.48,0.0,3.8974358974358974,-3.959183673469388
2.373806766989082,31.711518309625827,-0.011932330109178923,3.787381006305801,-3.6444902841592506
2.3704441289766627,30.964485016107837,-0.02169405001501447,3.6829519288740884,-3.367721404256793
2.3653080899647465,30.237819521920024,-0.029666340104148932,3.5837030130040484,-3.123036380800218
2.3587256409409734,29.53052559069065,-0.03615815013357999,3.48923629928967,-2.905648073429678
2.350967711490489,28.841682467764354,-0.04142114437126666,3.3991949299733215,-2.7116084100944287
2.3422594690807426,28.17043720445518,-0.04566127972619558,3.313257703118402,-2.5376422244413264
2.332788557220218,27.515997981304714,-0.049047838879053667,3.2311345283862623,-2.381017500948296
2.3227117209464807,26.877628268251915,-0.05172052385831781,3.152562602141726,-2.239443316428722
2.312160162528771,26.2546416917046,-0.0537950603187799,3.077303163331423,-2.1109890224866716
2.3012438914666946,25.6463975030452,-0.05536765030198201,3.0051387232625584,-1.994019841229153
2.29005527354627,25.052296562144562,-0.05651852890226565,2.935870685743857,-1.887145233237542
2.2786719387155654,24.471777764420526,-0.05731481940478018,2.869317291496481,-1.7891772702182536
2.2671591731638054,23.90431485187384,-0.057812836112816256,2.8053118339703933,-1.6990968932441448
2.2555718945496785,23.349413558090617,-0.058059950028452094,2.743701103861805,-1.6160264229065069
2.243956288867158,22.806609044951927,-0.05809610679675469,2.6843440275251225,-1.539207053789674
2.2323511715157287,22.275463595131445,-0.05795506671753759,2.6271104706796953,-1.4679803437438794
2.220789122682996,21.755564529689572,-0.057665421609789956,2.5718801837390184,-1.4017729210421763
2.2092974373478325,21.24652232441189,-0.05725143174184464,2.518541869037779,-1.3400837960937133
2.197898922466155,20.747968902165937,-0.056733717074934104,2.466992353421794,-1.2824737910016366
2.1866125677501054,20.259556081597466,-0.05612983008556204,2.4171358522629243,-1.2285566988085437
2.175454111544808,19.780954165062116,-0.05545473196741098,2.368883313090565,-1.177991861397418
2.16443651937644,19.311850650874185,-0.054721189716270116,2.3221518287887535,-1.1304779156805953
2.15357038958411,18.85194905681861,-0.05394010820702788,2.276864111766993,-1.0857475056605672
2.1428642978955192,18.40096784346883,-0.05312080867888054,2.2329480217307918,-1.0435627960265978
2.1323250907376585,17.958639427225776,-0.05227126289972534,2.190336140699736,-1.0037116533283925
2.1219581353911816,17.52470927417759,-0.05139829056504551,2.148965389782159,-0.9660043851053957
2.1117675337237554,17.098935066904914,-0.05050772610921486,2.108776682944565,-0.9302709469297195
2.101756305113105,16.681085937247094,-0.04960455999729098,2.0697146136336695,-0.8963585431354842
2.091926543246585,16.270941758819966,-0.04869305866790587,2.0317271706376205,-0.8641295598306447
2.0822795507228267,15.86829249375364,-0.0477768665696806,1.9947654800256396,-0.8334597792238042
2.072815954751777,15.472937588711659,-0.046859093140813934,1.958783570394167,-0.8042368328229096
2.063535806727954,15.084685415773976,-0.045942387097414675,1.9237381589826674,-0.7763588580496085
2.0544386680182507,14.703352754224525,-0.04502899999961984,1.889588456511838,-0.7497333285590206
2.045523683944412,14.328764309688548,-0.04412084073876887,1.8562959888479245,-0.7242760332955196
2.0367896476384852,13.960752267422261,-0.04321952232049563,1.823824433814935,-0.6999101832390127
2.0282350551967516,13.599155876874118,-0.04232640209684141,1.7921394716665144,-0.6765656280538743
2.019858153345389,13.243821064917952,-0.04144261641678429,1.7612086478951392,-0.654178167565267
2.0116569806525106,12.894600075408288,-0.04056911051199928,1.7310012472014915,-0.6326889452528058
2.003629403170549,12.551351132930716,-0.03970666430761613,1.7014881775742314,-0.612043912848451
1.9957731452656178,12.21393812881906,-0.03885591474169795,1.6726418635423432,-0.5921933567183556
1.9880858162826038,11.882230327688742,-0.03801737508844179,1.6444361477608342,-0.5730914780494355
1.9805649336031892,11.5561020928949,-0.037191451705702705,1.616846200177589,-0.5546960199933786
1.9732079425761275,11.23543262946653,-0.03637845856491562,1.58984843410612,-0.5369679358786575
1.9660122337327532,10.920105743196206,-0.03557862986882585,1.5634204285971094,-0.5198710934136223
1.9589751576440715,10.610009614680287,-0.034792131017992015,1.5375408565620983,-0.5033720104945986
1.9520940377273288,10.305036587208434,-0.03401906814943492,1.5121894181564355,-0.48743961882169695
1.94536618126849,10.005082967495149,-0.033259496438954025,1.487346778976432,-0.47204505202794594
1.9387961833215461,9.710049520963256,-0.03244048303048335,1.4629876863424975,-0.45513388472376115
1.9323878907246343,9.419840568816422,-0.03164244293863407,1.4391018351258327,-0.43899111403416763
1.9261371513008663,9.13436314266566,-0.030864951299047847,1.41567242638179,-0.4235727729852107
1.9200398996464763,8.853527557737468,-0.030107565244851482,1.3926834229001313,-0.4088378871386699
1.914092160264845,8.577247264861157,-0.029369828571461757,1.3701195058629967,-0.39474823856885
1.9082900498349662,8.305438710831883,-0.028651275727326547,1.3479660344297424,-0.381268150935074
1.9026297787401811,8.03802120658694,-0.027951435220522895,1.326209008019668,-0.3683642935472985
1.8971076519662242,7.774916802676579,-0.027269832519047656,1.3048350310839616,-0.3560055025529869
1.891720069463096,7.516050171550532,-0.026605992512232057,1.2838312801764937,-0.34416261757650635
1.8864635260526985,7.2613484962179236,-0.02595944159174404,1.2631854731495928,-0.3328083323214211
1.8813346109532336,7.010741364871379,-0.025329709402904032,1.2428858403158483,-0.3219170578042085
1.8763300069819078,6.764160671096747,-0.024716330310355684,1.2229210974304618,-0.3114647970277724
1.8714464894892369,6.521540519317611,-0.024118844616352875,1.203280420360878,-0.3014290300269677
1.8666809250711094,6.282817135149376,-0.023536799564921412,1.1839534213214762,-0.29178860832815107
1.8620302700985354,6.0479287803611115,-0.022969750160819064,1.1649301265611496,-0.28252365796226897
1.8574915690996077,5.816815672164925,-0.022417259828458633,1.1462009554007055,-0.27361549025766385
1.8530619530234922,5.589419906572324,-0.021878900932696257,1.1277567005253104,-0.26504651971593246
1.8487386374121673,5.365685385575318,-0.021354255180553016,1.1095885094447466,-0.2568001883429321
1.8445189205020647,5.1455577479267305,-0.020842913920474295,1.091687867041118,-0.24886089586838778
1.8404001812746582,4.928984303309626,-0.020344478353587894,1.0740465791299127,-0.24121393534237212
1.8363798774723439,4.715913969700029,-0.019858559669555995,1.0566567569660463,-0.2338454336459606
1.8324555435935892,4.50629721374025,-0.019384779117990497,1.0395108026317441,-0.22674229649726904
1.8286247888792917,4.300085993952287,-0.018922768024984434,1.0226013952478954,-0.21989215757344122
1.8248852953004855,4.097233706632007,-0.018472167763076325,1.0059214779548937,-0.21328333140447617
1.8212348155559894,3.897695134275221,-0.018032629681886084,0.9894642456129839,-0.20690476972651975
1.8176749273218284,3.7015998376424406,-0.017566252659722816,0.9714887207148043,-0.2352162458919133
1.8142046387916118,3.5090887051514272,-0.017136632642444846,0.9536226041953129,-0.2651039964811468
1.810816673615798,3.32014014747368,-0.01674301911569191,0.9358629725821714,-0.2964632167165061
1.8075039111958215,3.134733148809037,-0.016384605084073123,0.9182070140642506,-0.32919139084383264
1.8042593973982617,2.9528472449540892,-0.016060532891525925,0.9006520244852315,-0.36318806651552643
1.8010763541560897,2.7744625021349627,-0.01576989953019389,0.8831954037060364,-0.3983546337331162
1.7979481880557646,2.5995594965317146,-0.0155117614730584,0.8658346523264355,-0.43459410744187343
1.794868498002235,2.4281192944232117,-0.015285139062237288,0.848567368758591,-0.4718109128723862
1.7918310820478403,2.260123432882576,-0.015089020481710352,0.8313912466477528,-0.5099106727196947
1.7888299434656472,2.095553900954016,-0.014922365340221002,0.8143040726378425,-0.5487999952393001
1.7858592961429038,1.9343931212420031,-0.014784107887209479,0.7973037244822835,-0.5883862623207827
1.7829135693659999,1.7766239318434565,-0.014673159881831037,0.780388169503192,-0.6285774165735277
1.779987412064579,1.6222295685526404,-0.014588413132376337,0.7635554634049827,-0.6692817464246749
1.77707569657927,1.4711936472669827,-0.014528741720715258,0.746803749451591,-0.7104076681863123
1.7741735220148283,1.3235001465198302,-0.014493003923702511,0.7301312580199428,-0.7518635039964555
1.7712762172383796,1.1791333900632317,-0.014480043840785826,0.713536306546052,-0.7935572544757086
1.7683793435808695,1.0380780294201983,-0.014488692734315488,0.6970172998842685,-0.8353963648677967
1.7654786972988141,0.9003190263212915,-0.01451777008623605,0.6805727311048089,-0.8772874833463801
1.7625703118529992,0.7658416349348229,-0.014566084371913061,0.6642011827598613,-0.9191362100715589
1.7596504600609308,0.6346313837934012,-0.014632433548772415,0.6479013286543669,-0.9608468354660032
1.7567156561806367,0.5066740573115496,-0.014715605254166864,0.6316719361641556,-1.002322066051297
1.7537626579848813,0.3819556767799739,-0.014814376703388185,0.6155118691515872,-1.043462736038384
1.750788468887046,0.2604624807110767,-0.01492751427496443,0.5994200915373722,-1.0841675027003703
1.7477903401829233,0.14218090439764097,-0.015053772766263691,0.5833956715970028,-1.1243325233697612
1.7447657734765063,0.027097558531799848,-0.015191894297905857,0.5674377870614076,-1.1638511116939014
1.7417125233626667,-0.08480079328577261,-0.015340606840491195,0.5515457311143098,-1.2026133705505195
1.7386286004454568,-0.19352725833655882,-0.015498622331608664,0.5357189193935686,-1.2405057987687098
1.7355122747778062,-0.2990948400880029,-0.015664634344896608,0.5199568981208454,-1.2774108685188512
1.7323620798167174,-0.40151646525044526,-0.015837315265989287,0.5042593535036017,-1.313206569928226
1.7291768169978812,-0.5008050128584145,-0.016015312922375128,0.4886261225761001,-1.3477659191492704
1.7259555610451058,-0.5969733456832387,-0.016197246605378256,0.4730572056721733,-1.3809564257585598
1.7226976661433187,-0.69003434432571,-0.01638170241249298,0.45755278075250727,-1.4126395150042625
1.719402773119373,-0.7800009443853142,-0.01656722782696221,0.4421132198435222,-1.4426699000603893
1.71607081779282,-0.8668861771580723,-0.016752325438569804,0.42673910788407354,-1.4708948991076818
1.712702040679479,-0.9507032143785281,-0.016935445694839388,0.4114312643204981,-1.4971536917742263
1.7092969982545092,-1.031465417594596,-0.017114978554858846,0.3961907678401732,-1.5212765092805816
1.7058565760091886,-1.1091863928474694,-0.017289243898346143,0.38101898468858875,-1.5430837526142684
1.7023820035673771,-1.183880051423749,-0.01745648051976881,0.36591760107420107,-1.562385033310562
1.6988748721643454,-1.2555606775539019,-0.017614833510549276,0.3508886602273227,-1.5789781320935277
1.6953371548332368,-1.3242430040507003,-0.017762339800538332,0.3359346047406731,-1.592647871957944
1.6917712296940401,-1.3899422970121762,-0.0178969115914272,0.3210583248741098,-1.6031649045789567
1.6881799067981769,-1.4526744508540403,-0.018016317367206568,0.3062632135445662,-1.6102844127058475
1.684566459050807,-1.512456095081312,-0.018118160106491712,0.29155322872815703,-1.6137447371390752
1.6809346578158846,-1.569304714349002,-0.018199852242731247,0.2769329639487573,-1.613265946048424
1.6772888139104374,-1.6232387834813764,-0.01825858681174066,0.26240772737495394,-1.6085483782977048
1.6736338248216027,-1.6742779191919297,-0.018291304076607003,0.24798362973057964,-1.5992712133540674
1.6699752291436334,-1.7224430502292662,-0.01829465270308432,0.23366768064280247,-1.5850911515987594
1.6663192694500086,-1.76775660749869,-0.018264944233163175,0.2194678920514382,-1.5656413353050693
1.6626729651164827,-1.8102427352686163,-0.0181980991020972,0.20539338564784188,-1.5405307093672198
1.6590441970412955,-1.849927523697957,-0.01808958164977338,0.19145449864558978,-1.5093441224722075
1.655441806846639,-1.8868392613606275,-0.017934320296791085,0.1776628779811073,-1.4716436187768671
1.651875714120904,-1.9210087038129018,-0.01772660696056083,0.16403154654164845,-1.4269715882892655
1.6483570567926904,-1.9524693499850798,-0.017459966321573907,0.15057491518016405,-1.3748567592657757
1.6448983621827447,-1.9812577114832166,-0.017126979777884126,0.1373086998012086,-1.3148244627780317
1.6415137602770495,-2.0074135497016385,-0.016719039279066816,0.12424968238299892,-1.2464132130394172
1.6382192573370271,-2.030980040739813,-0.016225990121157073,0.11141522799873109,-1.1692004404494287
1.635033098822638,-2.0520038074884326,-0.01563559502273321,0.09882243948748995,-1.082841121915377
1.6319762685436396,-2.070534732328831,-0.014932707767252154,0.08648680891646562,-0.9871237956615937
1.6290732004679462,-2.086625437447239,-0.014097972989681443,0.0744202422676174,-0.8820482548394522
1.626352828003387,-2.1003303080973126,-0.013105751655910342,0.06262846423312851,-0.7679263466446291
1.6238501758377788,-2.1117039742931425,-0.011920770000171346,0.0511081977251414,-0.6454985357896339
1.6216088414800456,-2.1207993334503357,-0.010492573577160824,0.03984539384679234,-0.5160399358039508
1.6196850141907242,-2.1276656232466777,-0.008745699316053677,0.028817504116640087,-0.3813990170041657
1.6181545422265782,-2.13234799981705,-0.006559020325405486,0.018006261587082656,-0.24388150563524494
1.6171281714480976,-2.134892633941952,-0.0037046874593995496,0.007440079661908778,-0.10589177517942905
