x,y,v_x,v_y,omega
2.375,32.48,0.0,2.9743589743589745,-4.204081632653061
2.3739621272762084,31.862812713065633,-0.009884502131350222,2.9036151869206894,-3.9315541587307097
2.3710041364407863,31.26017375208936,-0.01828683915838208,2.8358034890437938,-3.6854815868955777
2.366414917564519,30.671487845090756,-0.025420007282261303,2.7707289585619868,-3.46253583706555
2.3604421168469836,30.096198767153542,-0.03146380907521579,2.7082146408400494,-3.2598839354710254
2.3532985093335217,29.53378579927529,-0.03657054819585148,2.6480993389528087,-3.0751041470967513
2.3451672886263166,28.983760614495683,-0.04086964901562455,2.590235754186306,-2.906117976424547
2.336206475957974,28.445664524927324,-0.04447142401621001,2.534488908369526,-2.7511347209736328
2.3265526095124622,27.919066036045344,-0.04747016117913894,2.4807347952683667,-2.608606021386312
2.3163238427067245,27.403558664449193,-0.04994666554217227,2.428859219933078,-2.477188421572486
2.3056225550012717,26.898758983024678,-0.051970360224049064,2.3787567936337104,-2.355712383982466
2.2945375590160952,26.40430486353536,-0.053601030110963434,2.3303300586455156,-2.2431565347334437
2.283145972049602,25.91985389154427,-0.05489027433182759,2.283488722222,-2.138626167099058
2.27151480760507,25.44508193249391,-0.055882720378001696,2.2381489830195496,-2.0413352286518798
2.2597023325203662,24.979681830964978,-0.056617042333462576,2.1942329363036146,-1.950591170945018
2.2477592272381126,24.523362227751406,-0.057126817497525725,2.1516680466827713,-1.8657821612494718
2.2357295802349424,24.07584648155074,-0.05744124919933412,2.1103866790378425,-1.7863662511499838
2.2236517423327187,23.6368716838672,-0.05758577844088932,2.0703256798530143,-1.7118621724749723
2.2115590622946133,23.206187757230648,-0.05758260287439944,2.0314260023998716,-1.6418414914374435
2.1994805215714064,22.78355662810369,-0.05745111829899928,1.9936323702378362,-1.5759219003059184
2.1874412831559957,22.368751466924643,-0.05720829518110495,1.9568929743245307,-1.5137614649507516
2.175463167106355,21.961555988650538,-0.05686900052975629,1.9211591997145225,-1.4550536781866525
2.1635650633132446,21.561763807949177,-0.056446273690345154,1.8863853783936868,-1.3995231944833146
2.15176329044223,21.169177843864333,-0.05595156317645766,1.8525285652715173,-1.3469221425353017
2.140071908608655,20.78360976936178,-0.055394930476639806,1.819548334752772,-1.2970269293058718
2.1285029921995604,20.404879501669832,-0.054785225800453266,1.7874065956467684,-1.249635463225732
2.117066868298255,20.032814729768774,-0.05413023992626499,1.7560674224585098,-1.204564735821989
2.105772325362755,19.667250475768938,-0.05343683564992312,1.7254969013494728,-1.1616487106404885
2.0946267961322707,19.308028687254474,-0.05271106178326318,1.695662989264459,-1.1207364762784773
2.0836365181646874,18.95499785796719,-0.051958252193717885,1.6665353849001567,-1.0816906269626203
2.072806674924915,18.608012674466373,-0.05118311199458933,1.6380854103457008,-1.0443858396302632
2.0621415199344657,18.26693368663234,-0.05038979267635804,1.6102859023593992,-1.0087076210937422
2.0516444861447547,17.931627000086582,-0.049581957701840804,1.5831111123620878,-0.974551202746047
2.041318282400428,17.60196398878403,-0.048762839863180245,1.5565366143289128,-0.941820563529434
2.0311649786063186,17.27782102619525,-0.047935291509288,1.5305392198499062,-0.9104275646412914
2.021186080995629,16.95907923364174,-0.04710182859251547,1.5050968997073364,-0.8802911817793443
2.0113825987118648,16.645624244476938,-0.04626466934809594,1.480188711386024,-0.8513368227014978
2.001768149791846,16.33734780134609,-0.0453015108425617,1.4557774136696566,-0.8199798059426157
1.992354654266875,16.03414561286934,-0.04435082749049434,1.4318624765850927,-0.7900992540314782
1.9831394017369708,15.735915348851957,-0.0434134823181159,1.4084257521518877,-0.7616078201034726
1.9741195172021686,15.442558400556372,-0.04249017991809657,1.3854499459012992,-0.7344243048402637
1.9652919922631158,15.153979706754434,-0.04158148616812106,1.362918566498103,-0.7084731553750896
1.9566537124286034,14.870087589987136,-0.04068784558913884,1.3408158789047213,-0.6836840104714452
1.9482014809951984,14.590793602318353,-0.039809596633765335,1.319126860797977,-0.6599912872111445
1.9399320399070836,14.316012379927106,-0.038946985157803746,1.2978371619757967,-0.6373338049677241
1.93184208795449,14.045661505935534,-0.03810017629546896,1.2769330665153673,-0.615654442914408
1.9239282966257234,13.7796613809175,-0.03726926493088,1.2564014574659164,-0.5948998277313213
1.916187323889898,13.51793510057631,-0.036454284934122685,1.236229783878758,-0.5750200485419383
1.9086158261543558,13.260408340119593,-0.03565521730913908,1.2164060299947392,-0.5559683964304362
1.9012104686117415,13.00700924489552,-0.0348719973824245,1.1969186864249814,-0.5377011261753246
1.8939679341662967,12.757668326887522,-0.03410452114562174,1.1777567231750163,-0.5201772380852827
1.8868849311066231,12.512318366694746,-0.033352650851268026,1.158909564375246,-0.50335827804475
1.8799581996726065,12.27089432065316,-0.03261621994889195,1.140367064592249,-0.48720815407309787
1.8731845176469686,12.033333232777348,-0.031895037438136056,1.1221194866059487,-0.4716929678752873
1.8665607050867934,11.79957415122627,-0.031188891706388527,1.1041574805471752,-0.45678086001651264
1.8600836282970339,11.569558049017445,-0.030497553910369162,1.0864720642987737,-0.44244186749080083
1.8537502031362671,11.343227748733593,-0.029820780954076948,1.069054605071254,-0.4286477925759283
1.8475573977346085,11.120527850983645,-0.02915831810933927,1.0518968020710986,-0.4153720819761279
1.8415022346945495,10.901404666396616,-0.028509901319792242,1.0349906701863367,-0.4025897153514427
1.8355817928374125,10.68580615094196,-0.027875259224370875,1.0183285246198965,-0.390277102419602
1.8297932085509712,10.473681844384174,-0.027254114932212054,1.0019029664066457,-0.378411987894151
1.824133676787483,10.264982811692207,-0.026646187577199852,0.9857068687549474,-0.36697336359229193
1.8186054630924542,10.059806096495734,-0.026003466661169095,0.9683570854971797,-0.3834585066278885
1.8132085938363693,9.858260828258189,-0.025395288158687263,0.9511216596223097,-0.4018557296219262
1.8079358533287002,9.66032332627968,-0.024821288104827744,0.9339974068396896,-0.42205323747717155
1.8027801111243975,9.465970565445382,-0.02428101860281591,0.9169812677726777,-0.44394224647353764
1.7977343388324662,9.275180150536151,-0.023773955606054095,0.9000703027914316,-0.4674167421793437
1.7927916253573388,9.087930291580978,-0.023299506061824564,0.8832616872578419,-0.49237324490848067
1.787945190702282,8.904199780166529,-0.022857014462526453,0.8665527071654922,-0.5187105817802675
1.7831883984548411,8.723967966622354,-0.022445768846432738,0.849940755159986,-0.5463296644634704
1.778514767065901,8.547214738003177,-0.022065006286331394,0.8334233269273937,-0.575133271704288
1.77391798002623,8.373920496792,-0.021713917901012913,0.8169980179409535,-0.6050258357501159
1.7693918950373808,8.204066140249552,-0.02139165342135763,0.8006625205585534,-0.6359132317865795
1.764930552267466,8.037633040336981,-0.021097325339735594,0.784414621465938,-0.6677025695045682
1.7605281817765976,7.874603024139436,-0.02083001266853434,0.7682521994630643,-0.7003019859066708
1.7561792101916622,7.714958354718487,-0.02058876433085237,0.7521732235935957,-0.7336204384482653
1.7518782667055326,7.558681712321036,-0.02037260220371456,0.7361757516202203,-0.7675674975872637
1.7476201884718292,7.405756175871524,-0.020180523831557055,0.7202579288513297,-0.8020531377877823
1.7434000254628728,7.25616520467273,-0.020011504825169425,0.7044179873276514,-0.83698752598634
1.7392130448555614,7.109892620238348,-0.019864500958747186,0.6886542453807334,-0.8722808064840568
1.7350547350074998,6.966922588177599,-0.019738449975172843,0.6729651075787836,-0.9078428811741066
1.730920809083863,6.827239600048497,-0.01963227310708245,0.6573490650793351,-0.9435831839496741
1.7268072083941601,6.690828455091843,-0.019544876318659456,0.6418046964126011,-0.9794104480630795
1.7227101054973089,6.557674241752469,-0.01947515127039878,0.6263306687242828,-1.0152324651207028
1.7186259071332588,6.427762318887652,-0.019421976006269416,0.6109257395120898,-1.0509558342999021
1.7145512570398278,6.30107829655476,-0.019384215359738936,0.5955887588964204,-1.0864857002622894
1.7104830387144987,6.177608016261008,-0.019360721071969424,0.5803186724726519,-1.1217254781114363
1.7064183781826703,6.057337530547333,-0.019350331612109705,0.565114524800445,-1.1565765636013274
1.7023546468363744,5.940253081765864,-0.019351871685946282,0.5499754635945107,-1.1909380266436609
1.6982894644107558,5.826341079895819,-0.01936415141518276,0.5349007446916204,-1.2247062859866322
1.6942207021698117,5.715588079225753,-0.01938596516523589,0.5198897378804399,-1.2577747627446054
1.6901464863780291,5.607980753710407,-0.01941608999459938,0.5049419336942695,-1.290033510247073
1.686065202140783,5.503505870787876,-0.019453283693458785,0.49005695128222954,-1.3213688174472962
1.681975497703778,5.402150263416569,-0.01949628237325598,0.47523454749210836,-1.3516627828879926
1.677876289310555,5.303900800061477,-0.01954379756220074,0.4604746273183029,-1.3807928559671558
1.6737667667273335,5.208744352324466,-0.019594512754194316,0.44577725589132416,-1.40863134198798
1.6696463995563795,5.116667759873664,-0.019647079350129888,0.43114267221153585,-1.4350448672231926
1.6655149444729207,5.0276577922812145,-0.01970011192090517,0.4165713048594149,-1.4598937999917343
1.6613724535366206,4.941701107326448,-0.019752182710525586,0.4020637899478772,-1.4830316235585874
1.6572192837470752,4.858784205261909,-0.01980181528514612,0.3876209916191629,-1.5043042565621545
1.653056108034089,4.778893378471828,-0.01984747721948116,0.37324402542922397,-1.5235493167000884
1.6488839278980383,4.702014655876141,-0.019887571695289024,0.3589342850058751,-1.5405953236399543
1.644704087943993,4.628133741347284,-0.019920427867046578,0.34469347241182,-1.5552608376760138
1.640518292586152,4.557235945311845,-0.019944289826677578,0.33052363268760004,-1.5673535316876803
1.636328625237381,4.489306108605373,-0.01995730397114169,0.3164271930883232,-1.5766691957000263
1.632137570343487,4.424328517537845,-0.019957504542133974,0.3024070075548075,-1.5829906761362993
1.627948038674894,4.36228680901343,-0.01994279706351458,0.2884664069634209,-1.586086756169942
1.6237633963519569,4.303163864437764,-0.019910939345409884,0.2746092556619609,-1.5857109901282633
1.6195874981576535,4.246941691050363,-0.019859519647957166,0.26084001469422663,-1.5816005146843917
1.6154247257879075,4.193601289257796,-0.0197859314924796,0.24716381190165018,-1.5734748740663846
1.6112800318131568,4.143122504544358,-0.01968734445752668,0.23358651870251992,-1.5610349178406657
1.6071589902871524,4.095483862648045,-0.019560670075849995,0.22011483269095145,-1.5439618610742902
1.6030678551597366,4.050662386982584,-0.019402521613824133,0.20675636412297882,-1.5219166423003616
1.5990136279605105,4.008633397871531,-0.01920916599785207,0.19351972264894243,-1.4945397810988545
1.5950041366701548,3.96937029420425,-0.018976465338868886,0.1804145979918372,-1.461452033346682
1.5910481283677542,3.9328443198735243,-0.018699804207804156,0.16745182420553437,-1.4222562809469834
1.5871553792702813,3.899024320171865,-0.018373996720509593,0.15464341104835708,-1.376541291169465
1.5833368273854886,3.8678764977193474,-0.017993164087040228,0.1420025170708561,-1.3238882601685023
1.5796047355450786,3.8393641841608535,-0.017550567726387144,0.12954332634335644,-1.2638814395846083
1.5759728966658115,3.81344765365775,-0.01703837398091703,0.11728077368618507,-1.19612465191295
1.5724568996678792,3.7900840179741344,-0.016447311713677335,0.10523004234826507,-1.1202661175327362
1.5690744851110352,3.769227261111972,-0.015766160256266065,0.09340573729138225,-1.0360346470257955
1.5658460367339342,3.750828492662599,-0.014980967144694952,0.081820628893121,-0.9432905967063022
1.5627952825207876,3.734836517545446,-0.014073834885274463,0.07048389603212914,-0.8420943185787488
1.5599503228049776,3.721198820055921,-0.013021019551009396,0.05939893720144602,-0.7327916801182233
1.5573451745198845,3.7098630080517054,-0.01178991649749648,0.04856117712441427,-0.6161081291798529
1.555022147622346,3.7007785946846212,-0.010334149193344815,0.03795704541923318,-0.4932270390000536
1.5530356438498703,3.693898602658976,-0.008584934354045904,0.027566688158341422,-0.365805221055413
1.5514587668048407,3.689179641661628,-0.006432942265281066,0.01737579753069708,-0.23585891572421086
1.550397432634374,3.6865768464869078,-0.003675002215357805,0.007412727942813729,-0.10545958365306393
