x,y,v_x,v_y,omega
2.375,32.48,0.0,2.5128205128205128,-3.1020408163265305
2.3744892332398257,32.00730279704932,-0.00537649221236135,2.4629395182392493,-2.9431099765128113
2.3730192652250803,31.54393341552068,-0.01009685531127397,2.4146329189043163,-2.7960340182919525
2.3707076280698827,31.089600506268052,-0.014236167375016352,2.3678187574391294,-2.6596448425983494
2.3676584734297212,30.64402773871901,-0.017860197258260498,2.322420900971827,-2.532911745352075
2.363964220323817,30.206952746069042,-0.021026677540730256,2.278368495343643,-2.414922933785467
2.3597069793088603,29.778126167951328,-0.023786385774607007,2.235595484842841,-2.3048698275590964
2.3549597864166825,29.35731077905967,-0.026184065721999765,2.1940401877009053,-2.202033680663163
2.349787674792057,28.94428069389256,-0.028259214537215614,2.153644919321337,-2.1057741449103835
2.344248607472553,28.538820639180717,-0.03004675724704059,2.114355656592771,-2.0155194637292078
2.3383942910478677,28.140725286718492,-0.03157762617069711,2.076121737746435,-1.930758039620903
2.3322708868700026,27.74979864028682,-0.032879259912094984,2.0388955931133017,-1.8510311628539
2.325919633938295,27.365853471168954,-0.033976034105878586,2.0026325028642344,-1.7759267248963742
2.3193773954593717,26.988710797447702,-0.03488963409331403,1.9672903784120792,-1.7050737694128335
2.312677139305143,26.618199402857282,-0.03563937805646217,1.932829564644978,-1.6381377576847689
2.3058483611006544,26.254155391462223,-0.03624249778026138,1.89921266056618,-1.5748164450905289
2.298917457418224,25.896421774864336,-0.03671438308742253,1.866404356253688,-1.5148362816104741
2.2919080554945133,25.54484808900831,-0.03706879505690506,1.8343712843360742,-1.4579492628573765
2.284841304990059,25.19929003797658,-0.03731805235839995,1.8030818844189345,-1.403930169385493
2.2777361365494624,24.859609162442492,-0.03747319438472601,1.7725062790978066,-1.35257414141887
2.270609491272629,24.525672530693576,-0.0375441243187796,1.7426161603644423,-1.3036945439935985
2.2634765246550748,24.197352450349822,-0.03753973481337002,1.7133846853592989,-1.2571210840994873
2.2563507880830813,23.874526199088606,-0.03746801857603686,1.684786380548215,-1.2126981469526468
2.2492443905650186,23.557075772853185,-0.037336165824625324,1.6567970535088776,-1.1702833232099763
2.2421681430328912,23.244887650167307,-0.03715065030302771,1.6293937116056545,-1.1297461028950941
2.235131687249474,22.93785257130813,-0.03691730531189191,1.6025544869119754,-1.0909667151623113
2.2281436110989423,22.635865331204585,-0.03664139100949471,1.5762585668095501,-1.0538350958790559
2.2212115518166002,22.338824585030963,-0.036327654067788824,1.5504861297549095,-1.0182499674387995
2.2143422885209545,22.0466326655573,-0.035980380623221245,1.5252182857573306,-0.9841180172931345
2.2075418252446926,21.759195411400228,-0.03560344333742851,1.5004370211592433,-0.9513531634689127
2.200815465516405,21.47642200539169,-0.035200343276124604,1.476125147351644,-0.9198758968606315
2.194171774017814,21.198226153334268,-0.034733251445883274,1.4522522427264828,-0.8880276585984801
2.187617942360358,20.924524540020915,-0.034254450211552115,1.4288173710983065,-0.8575726054061106
2.181155998615848,20.65523536679278,-0.03376601025697365,1.405805504987315,-0.828433785088489
2.17478759800441,20.390279627912747,-0.033269785652902575,1.383202272697245,-0.8005392974699889
2.1685140619943764,20.129580989399997,-0.032767435505344375,1.3609939221737994,-0.7738219098840102
2.162336413502237,19.873065674505938,-0.03226044335927832,1.3391672872373641,-0.7482187058365825
2.156255408595694,19.62066235539763,-0.031750134604335324,1.317709756007952,-0.7236707636501266
2.1502715650587683,19.372302050648027,-0.03123769210014315,1.2966092413562929,-0.7001228622324336
2.1443851881389446,19.12791802816239,-0.030724170213793,1.2758541532293748,-0.6775232114155544
2.1385963937618584,18.887445713197984,-0.03021050743974408,1.2554333727117306,-0.6558232045746151
2.132905129468542,18.650822601159298,-0.02969753775305723,1.2353362276954862,-0.634977191471822
2.1273111933031728,18.41798817487416,-0.029186000829780904,1.2155524700428026,-0.6149422694798007
2.12181425085528,18.18888382607737,-0.02867655125329928,1.196072254133951,-0.5956780915241131
2.116413850639055,17.96345278084786,-0.028169766812229914,1.176886116702975,-0.5771466892501111
2.111109437973432,17.74164002876335,-0.02766615598380034,1.1579849578708115,-0.5593123100666295
2.1059003675097685,17.523392255552796,-0.02716616468634264,1.1393600232929315,-0.5421412668505156
2.100785914538898,17.308657779042182,-0.02667018237545221,1.1210028873451139,-0.5256017992134813
2.09576528519595,17.09738648820309,-0.026178547550313493,1.1029054372769285,-0.5096639453378605
2.090837625669361,16.889529785126328,-0.025691552729572933,1.0850598582679472,-0.4942994234819772
2.086002030509818,16.685040529754836,-0.025209448949826328,1.0674586193266713,-0.4794815223402163
2.0812575501253368,16.48387298722102,-0.024732449834185856,1.0500944599767028,-0.4651849995186354
2.0766031975401145,16.285982777643742,-0.02426073527341723,1.0329603776788439,-0.45138598745501096
2.072037954487157,16.091326828249798,-0.02379445475771453,1.0160496159416124,-0.43806190617343094
2.0675607768978157,15.899863327693112,-0.023333730393245104,0.9993556530761498,-0.4251913823186671
2.0631738021520785,15.711751926504423,-0.022844951140832886,0.9807643594363684,-0.45450734626570943
2.058876277489375,15.527162445723569,-0.022392150571834003,0.9622828066778962,-0.4853268275409891
2.0546614448747866,15.346074307227575,-0.021974508529098644,0.9439081248589027,-0.5175419326505517
2.0505227071895087,15.168467467534203,-0.021591151315930278,0.9256375561239588,-0.5510468042262868
2.0464536378905596,14.99432239684441,-0.021241157094061998,0.9074684511370246,-0.5857373887850446
2.0424479896908108,14.823620058726505,-0.02092356079802984,0.8893982658935602,-0.6215112077543867
2.0384997023482567,14.656341890370538,-0.020637358597275668,0.8714245589060853,-0.6582671308054691
2.0346029096477727,14.492469783342244,-0.02038151193413657,0.8535449887601786,-0.695905150525107
2.0307519456535603,14.331986064766163,-0.020154951162832925,0.8357573120406772,-0.7343261574431803
2.0269413503059868,14.17487347886738,-0.019956578811627317,0.8180593816307307,-0.7734317144078455
2.023165874432573,14.021115168800463,-0.019785272487465724,0.8004491453894393,-0.8131238292691265
2.019420484239501,13.870694658692845,-0.01963988743960427,0.7829246452170899,-0.8533047247908121
2.0157003653471244,13.72359583582777,-0.019519258795943066,0.7654840165205639,-0.8938766046606113
2.0120009264306242,13.579802932889255,-0.01942220348300482,0.7481254880953703,-0.9347414144084719
2.008317802525159,13.439300510187916,-0.01934752183768166,0.7308473824450297,-0.9758005959720603
2.0046468580535595,13.302073437782127,-0.01929399891599721,0.7136481165632647,-1.0169548345656987
2.0009841896339298,13.168106877403691,-0.01926040550116007,0.6965262032097393,-1.0581037964135485
1.9973261287243615,13.037386264090745,-0.019245498810083292,0.6794802527160106,-1.0991458557983809
1.9936692441624477,12.909897287423046,-0.01924802289427312,0.6625089753650397,-1.1399778097526925
1.9900103446583786,12.785625872245827,-0.019266708727506753,0.6456111843951775,-1.1804945785779049
1.986346481302213,12.664558158757913,-0.01930027396897515,0.6287857996881393,-1.2205888902186377
1.9826749501484415,12.546680481827561,-0.019347422386510885,0.6120318522102879,-1.2601509463412608
1.9789932949443143,12.431979349385248,-0.019406842920093075,0.5953484892877479,-1.2990680677679318
1.9752993100726146,12.320441419726084,-0.01947720836095579,0.5787349808087026,-1.3372243166981663
1.9715910437847803,12.21205347753547,-0.01955717361624796,0.5621907264609287,-1.374500092909143
1.967866801806531,12.106802408429381,-0.019645373523216648,0.5457152641294957,-1.4107717008635996
1.964125151405655,12.004675171775183,-0.019740420170215125,0.5293082795989104,-1.4459108843716215
1.9603649260204203,11.9056587715293,-0.019840899674361038,0.5129696177261819,-1.4797843251528509
1.9565852305574163,11.809740224794027,-0.019945368357259456,0.49669929527668455,-1.5122531013341365
1.952785447479659,11.716906527756588,-0.02005234825071053,0.4804975156437032,-1.5431721016036783
1.9489652438197531,11.62714461862841,-0.020160321853563725,0.4643646857055319,-1.5723893904409434
1.9451245792690433,11.540441337150813,-0.020267726048645834,0.4483014351112853,-1.5997455195746677
1.941263715512324,11.456783380174045,-0.020372945074715054,0.43230863832838184,-1.6250727806231764
1.937383226999153,11.376157252748907,-0.02047430243234679,0.4163874398309542,-1.6481943937926475
1.9334840133675897,11.29854921409338,-0.020570051584109145,0.4005392828588151,-1.668923627624343
1.929567313764762,11.223945217709943,-0.02065836528776305,0.3847659422299982,-1.6870628452002006
1.92563472334173,11.152330844832399,-0.02073732337573136,0.36906956174416644,-1.7024024730963174
1.9216882122384942,11.083691230273978,-0.02080489876359355,0.35345269676551966,-1.714719890946642
1.9177301474197967,11.018010979632756,-0.020858941433221177,0.33791836261577896,-1.7237782420799286
1.9137633177751021,10.955274076688426,-0.02089716008987954,0.32247008942980454,-1.7293251698087964
1.9097909629588958,10.895463779701998,-0.020917101133344586,0.30711198411152035,-1.7310914902884373
1.9058168065232717,10.838562505216206,-0.020916124504805098,0.29184879994945173,-1.7287898224539764
1.9018450939881903,10.78455169786556,-0.02089137586447168,0.27668601426789485,-1.7221132098892777
1.8978806366126861,10.73341168466704,-0.020839754403993993,0.261629914137569,-1.710733790761153
1.8939288617834005,10.685121512316663,-0.020757875377960724,0.24668768955062675,-1.6943016033545053
1.889995871142149,10.639658766228468,-0.020642026108898447,0.23186753243036956,-1.6724436608949
1.8860885078591025,10.596999370521225,-0.020488113712640994,0.217178738172185,-1.6447634969486504
1.8822144348670118,10.557117369037009,-0.020291601993577837,0.2026318037669295,-1.6108414813732055
1.8783822264774876,10.51998468899567,-0.020047433685623738,0.18823851245767684,-1.570236350169648
1.8746014767227077,10.485570891391085,-0.01974993215416562,0.17401198864321918,-1.52248859941569
1.8708829292036278,10.453842916211766,-0.01939267330983227,0.1599666974548708,-1.4671266883148852
1.8672386355079786,10.424764836703698,-0.018968312960158742,0.14611834999845966,-1.4036774085022423
1.8636821529321164,10.398297646072095,-0.018468345733128437,0.13248365665000392,-1.3316823332650716
1.8602287981943557,10.374399113234901,-0.017882756769613973,0.11907984689942008,-1.2507229660168417
1.8568959835172316,10.353023762226613,-0.01719950298958823,0.10592384792467022,-1.1604579930722485
1.8537036772097606,10.334123052056054,-0.01640372129957911,0.09303099597594093,-1.060676652852274
1.8506750563750485,10.31764585602054,-0.015476498013182663,0.08041317281891867,-0.9513719830489613
1.8478374604688799,10.303539348843255,-0.014392932578064836,0.06807637641564884,-0.8328351169998295
1.8452238214050483,10.291750376390258,-0.013119057567531844,0.056018070457992064,-0.7057641895049527
1.8428748617618467,10.282227246325085,-0.01160683341353593,0.04422540391224233,-0.5713652587933906
1.840842589079986,10.274921535068763,-0.009785510606050329,0.03267681983849762,-0.4313966999143436
1.8391962559087245,10.269788765500042,-0.007544312249334231,0.02135233351647036,-0.28808141546398225
1.8380344146414154,10.266784974546663,-0.004685595827603834,0.010266518624364831,-0.1438071871628869
1.8375224364449256,10.265846817183292,-0.0007036483459723275,-0.0003911779572889351,-0.0006365887282263338
