x,y,v_x,v_y,omega
2.375,32.48,0.0,2.41025641025641,-4.571428571428571
2.3741197421781655,31.979076715973697,-0.008383407826996904,2.360441532851205,-4.3250453297061755
2.3715904632020908,31.488436063877863,-0.015704963373714957,2.3123265823472234,-4.098162805067856
2.3676217976339458,31.007731289550627,-0.02209185156099611,2.2658141255312008,-3.8887466290284696
2.362398414999703,30.53663526413304,-0.027654649717508913,2.2208146879696384,-3.6950163565877165
2.356083254028459,30.07483890635073,-0.032489740484814136,2.177245862338055,-3.515408995371678
2.348820291260616,29.622049778397347,-0.036681333494644815,2.1350315467417866,-3.348548453794562
2.340736918745074,29.177990830555288,-0.04030316665337465,2.094101289849264,-3.193219834064747
2.331945992172994,28.74239927405487,-0.04341994355690776,2.0543897244404628,-3.0483477122629203
2.3225476000908603,28.315025565149554,-0.04608855246341582,2.0158360746577504,-2.91297771604497
2.3126305962069935,27.895632486174268,-0.04835910357340717,1.9783837251068896,-2.7862608424638124
2.302273929806665,27.483994311607777,-0.050275814524961944,1.9419798421930246,-2.6674400625682293
2.291547803580846,27.079896048994488,-0.051877768578078846,1.9065750398382793,-2.5558388422177076
2.2805146834903747,26.683132746083388,-0.05319956561688432,1.872123083124577,-2.450851274746072
2.269230181427387,26.293508856780676,-0.05427188260204177,1.8385806245203238,-2.35193357434121
2.257743828240192,25.910837659540285,-0.0551219572760069,1.8059069682452795,-2.258596722050141
2.2460997520309594,25.53494072267408,-0.05577400662144712,1.7740638590519153,-2.1704000912939345
2.23433727441819,25.165647411783155,-0.056249589690645474,1.7430152922902495,-2.0869459083308595
2.2224914355985415,24.80279443511919,-0.056567922877435714,1.7127273426046574,-2.0078744265203117
2.2105934574815014,24.446225423199945,-0.05674615442770587,1.683168009007204,-1.9328597125193747
2.1986711528541343,24.095790539442227,-0.05679960392817191,1.6543070743996107,-1.8616059584806415
2.1867492874199956,23.751346118952,-0.05674197163505208,1.6261159778882992,-1.793844247542425
2.174849900612272,23.41275433293495,-0.05658552177184246,1.598567698464563,-1.7293297109114836
2.1629925902784213,23.0798828764708,-0.05634124331244867,1.5716366488130362,-1.6678390240349403
2.151194765649218,22.752604677637276,-0.056018991251393,1.5452985781729272,-1.6091681970649414
2.1394718724202106,22.430797626181235,-0.05562761092962957,1.5195304833131806,-1.5531306212975837
2.127837593272626,22.114344320119443,-0.055175047618793535,1.4943105267991423,-1.4995553387284335
2.1163212403759286,21.803135620997317,-0.05450450377832503,1.4695818457925276,-1.4438608576606284
2.1049487344735036,21.497066420616342,-0.05380507624477217,1.4453629197405393,-1.390818848130338
2.093725654959796,21.196031654959263,-0.05308139531434732,1.4216348484221415,-1.34027064849632
2.0826566615629813,20.899930133746587,-0.05233758941722153,1.3983796393176122,-1.292068890668811
2.0717455941758454,20.60866435560773,-0.05157733807930867,1.3755801524810254,-1.2460765687027453
2.0609955621767515,20.32214033440537,-0.050803919054918156,1.3532200494462248,-1.2021661944961637
2.050409024393241,20.0402674359026,-0.05002025031184997,1.3312837458182663,-1.1602190314975571
2.03998786072663,19.762958224031784,-0.04922892746539892,1.3097563672370878,-1.1201243983741473
2.0297334363384443,19.49012831608664,-0.0484322571839867,1.288623708430984,-1.081779035509248
2.019646659196487,19.22169624621538,-0.04763228702513118,1.2678721951048142,-1.0450865279989794
2.0097280316878425,18.957583336643992,-0.04683083210481889,1.2474888484322002,-1.00995677952212
1.9999776969265715,18.697713576104633,-0.04602949895490338,1.2274612519426509,-0.9763055320749209
1.9903954803138106,18.442013504986193,-0.04522970688091451,1.2077775206139145,-0.9440539271065643
1.980980926846257,18.190412106762032,-0.04443270709578625,1.1884262719971734,-0.9131281040702616
1.971733334614559,17.942840705284414,-0.04363959987276723,1.169396599218218,-0.883458832828073
1.9626517848850005,17.699232867566778,-0.0428513499325508,1.1506780457116648,-0.8549811767215467
1.9537351691153164,17.459524311703483,-0.04206880025491674,1.1322605815578077,-0.8276341834513801
1.944982213217787,17.2236528196031,-0.04129268448345843,1.114134581302971,-0.8013606012028522
1.936391499349371,16.991558154235076,-0.0405236380728841,1.0962908031544,-0.7761066177143678
1.9279614854790013,16.76318198111162,-0.03976220831158924,1.0787203694499146,-0.7518216202181106
1.9196905229558567,16.53846779374674,-0.039008863337407114,1.0614147483108547,-0.7284579743880061
1.9115768722790318,16.317360842852693,-0.03826400025140219,1.0443657363943755,-0.7059708206139693
1.9036187172482135,16.099808069051146,-0.03752795242305801,1.0275654426679681,-0.6843178860854109
1.8958141776564386,15.885758038891804,-0.03680099607003677,1.0110062731352818,-0.6634593113134942
1.8881613206694823,15.675160883985566,-0.03608335618668734,0.9946809164479502,-0.6433574898527068
1.880663985542454,15.468114424144193,-0.035319835499296105,0.9771901296603698,-0.6517933847341127
1.8733236471320427,15.264728406969912,-0.03458814936176416,0.9598195577137245,-0.6623850401292546
1.8661336284134116,15.064977947020406,-0.033888219387105525,0.9425657751387249,-0.6750107714066887
1.8590872800067288,14.86883886363497,-0.033219860676538586,0.925425495198776,-0.6895523825324328
1.8521780015697134,14.676287652427227,-0.03258279110456135,0.9083955639225961,-0.7058948988058615
1.8453992613178503,14.487301457981975,-0.031976639865563,0.8914729546036294,-0.7239263089201432
1.8387446138217873,14.301858047660371,-0.03140095533503663,0.8746547627449812,-0.743537315297207
1.832207716220728,14.119935786421856,-0.03085521229410074,0.8579382014313617,-0.7646210916833539
1.82578234298084,13.94151361257478,-0.030338818561975362,0.8413205971122066,-0.7870730470207646
1.81946239931872,13.766571014370808,-0.02985112107726167,0.8247993857827666,-0.8107905946324921
1.8132419334017498,13.595088007360598,-0.029391411465310855,0.8083721095525496,-0.8356729257741429
1.8071151474297031,13.427045112430307,-0.028958931125611844,0.7920364135930983,-0.8616207866143889
1.8010764076951689,13.262423334439763,-0.028552875869951356,0.7757900434597043,-0.8885362577086613
1.7951202537142206,13.101204141384137,-0.028172400139078593,0.7596308427843428,-0.916322535025758
1.7892414065132323,12.943369444001092,-0.02781662082271628,0.7435567513398889,-0.9448837115754869
1.7834347761528246,12.788901575745154,-0.027484620704975656,0.7275658034785746,-0.9741245586666074
1.7776954685655764,12.63778327305008,-0.027175451554531996,0.7116561269507184,-1.0039503057979362
1.7720187917803416,12.489997655798383,-0.02688813687627553,0.6958259421130376,-1.0342664181511612
1.7664002616027852,12.345528207914878,-0.02662167433854608,0.6800735615393885,-1.0649783706112257
1.7608356068190543,12.204358757997927,-0.026375037887464023,0.6643973900506347,-1.0959914171885898
1.7553207739873584,12.06647345989823,-0.026147179557259443,0.6487959251845589,-1.1272103546566803
1.749851931880647,11.931856773150056,-0.02593703098284891,0.6332677581314011,-1.1585392791467843
1.7444254756425381,11.80049344315385,-0.0257435046181866,0.6178115751657863,-1.1898813343608583
1.7390380307182138,11.672368481002227,-0.02556549466109299,0.6024261596115925,-1.2211384499695346
1.7336864566221568,11.547467142832815,-0.025401877682307058,0.5871103943828077,-1.2522110686573422
1.7283678506054097,11.425774908581793,-0.025251512953380798,0.5718632651507389,-1.2829978601591965
1.7230795512865114,11.307277460000364,-0.025113242464698406,0.5566838641962059,-1.313395420501083
1.71781914231248,11.19196065778322,-0.02498589062131276,0.5415713950147074,-1.3432979545132842
1.7125844561192003,11.079810517642592,-0.02486826360040016,0.5265251777531724,-1.3725969395265896
1.7073735778644203,10.970813185143768,-0.024759148349885747,0.5115446555689543,-1.401180767991354
1.702184849611354,10.86495490909741,-0.024657311203124224,0.49662940201541866,-1.4289343665775396
1.697016874846693,10.762222013280521,-0.024561496079363226,0.481779129573998,-1.4557387891237645
1.6918685234237913,10.662600866230882,-0.024470422233986818,0.46699369947018393,-1.4814707806094536
1.686738937030028,10.56607784882878,-0.024382781516139453,0.4522731329307933,-1.5060023091336345
1.6816275352869976,10.472639319344516,-0.024297235084151804,0.4376176240621949,-1.5292000627076339
1.6765340226034469,10.382271575589797,-0.02421240952109154,0.4230275545541603,-1.550924907523098
1.671458395913957,10.294960813765236,-0.0241268922835746,0.40850351044166433,-1.5710313042650956
1.6664009534515014,10.210693083544204,-0.024039226406479704,0.3940463011872126,-1.5893666790368663
1.6613623047195374,10.129454238874779,-0.02394790437413037,0.37965698137873966,-1.6057707455974652
1.6563433818495343,10.051229883915951,-0.023851361054468678,0.3653368753720133,-1.6200747759568543
1.6513454525533116,9.976005313451655,-0.023747965576226,0.3510876052403341,-1.63210081702588
1.6463701349068245,9.903765447046727,-0.023636012009366106,0.33691112242563837,-1.6416608521250544
1.641419414233908,9.834494756123501,-0.02351370868507502,0.32280974350983405,-1.648555907921241
1.6364956623959934,9.768177183048596,-0.023379165961730727,0.3087861905368617,-1.652575110077494
1.6316016598384615,9.70479605123025,-0.023230382205239083,0.29484363630453214,-1.65349469498509
1.626740620798175,9.644333965143776,-0.023065227702251914,0.28098575499521133,-1.6510769909926961
1.6219162221429029,9.586772699137025,-0.0228814261574831,0.267216778402419,-1.645069391404457
1.6171326363964198,9.532093073835672,-0.022676533332832465,0.25354155780096477,-1.63520335439917
1.6123945696099642,9.480274818995998,-0.022447912252459158,0.23996563114829478,-1.6211934836583377
1.6077073048822164,9.431296421780313,-0.022192704202282167,0.22649529471535107,-1.602736770351065
1.603076752522741,9.385134959717643,-0.02190779445938763,0.2131376773100983,-1.5795121157169976
1.5985095081243181,9.341765918150426,-0.02158977123987731,0.19990081380627397,-1.5511803087656582
1.5940129201996676,9.301162992890323,-0.021234875661556993,0.18679371248042448,-1.5173847124741506
1.5895951696147135,9.26329788030802,-0.020838939433243234,0.17382640735104,-1.4777530237407788
1.585265363921116,9.228140059442325,-0.020397305267685163,0.16100998184607374,-1.4319006296528585
1.581033651027787,9.195656574320378,-0.019904722287831127,0.14835654312485516,-1.3794363006425763
1.5769113587312793,9.165811830046461,-0.019355204345572835,0.13587911662670948,-1.3199712561756547
1.5729111698904765,9.138567423964538,-0.01874183223350186,0.12359141748684455,-1.2531330220321786
1.5690473481825409,9.113882043953822,-0.018056469746836546,0.11150743975806979,-1.1785859604520676
1.565336037510619,9.091711479974954,-0.017289346176230017,0.09964078861209653,-1.0960608290424714
1.5617956709360472,9.07200881151158,-0.016428430724454213,0.0880036729438435,-1.0053960136846767
1.5584475450425956,9.054724848846064,-0.015458482546514248,0.0766054952991622,-0.9065927187771017
1.5553166468681836,9.039808910273688,-0.014359595305027641,0.0654510625330008,-0.7998844450233992
1.5524328697592162,9.027209988816654,-0.013104948589900037,0.054538665629239175,-0.6858159535351067
1.5498328367247893,9.016878260203029,-0.011657270785593166,0.04385874973861228,-0.5653166603421815
1.5475627099754998,9.008766641567561,-0.009962983969545425,0.03339476107537652,-0.43973746762463084
1.5456827686000179,9.002831612136518,-0.00794121960647403,0.02312932874409066,-0.3108032348300488
1.5442759072320222,8.999031401699447,-0.00545746008872244,0.013063151608959347,-0.18042870921455784
1.5434690468197194,8.997315502679026,-0.0022269247903520728,0.003278743823627967,-0.0503771610892666
