x,y,v_x,v_y,omega
2.375,32.48,0.0,2.051282051282051,-2.7346938775510203
2.374561812537912,32.05327067734581,-0.0041732139246497026,2.012806735900676,-2.6059691262628535
2.3732970543229217,31.634505843746506,-0.007872102408590195,1.9754297745688958,-2.485933237949235
2.371300093887614,31.223480391315334,-0.01114656840386424,1.9390983438231986,-2.3738045519481976
2.3686554172220426,30.81997994024014,-0.014040828411099956,1.9037630949881814,-2.2688857993880087
2.3654387467351814,30.423800140924186,-0.01659412860662743,1.869377850878047,-2.1705536493308877
2.3617180202873,30.034746036243423,-0.01884136137319275,1.8358993365578118,-2.0782497094172085
2.357554249606665,29.652631477266826,-0.020813597489999024,1.80328693940975,-1.9914727565435744
2.353002274469928,29.27727858670201,-0.022538546669401256,1.7715024945409013,-1.9097720112238998
2.3481114265810974,28.90851726509341,-0.02404095703374679,1.7405100922076664,-1.8327413003173953
2.342926115039449,28.546184735443816,-0.02534296241052623,1.7102759044551368,-1.7600139781934958
2.3374863435705464,28.190125122473418,-0.02646438491235231,1.680768028596251,-1.6912584972596767
2.3318281682490793,27.84018906319247,-0.027422999101621486,1.6519563455080541,-1.6261745359823183
2.325984103220881,27.496233345857643,-0.02823476307169797,1.6238123910140745,-1.5644896067775032
2.319983480896472,27.15812057472037,-0.02891402097028871,1.5963092388647344,-1.5059560779893577
2.3138527722088114,26.82571885826632,-0.029473680816954805,1.569421394030983,-1.4503485540486643
2.3076158717783395,26.498901518897355,-0.02992537090182493,1.5431246951972386,-1.3974615661673397
2.3012943521880116,26.177546822225814,-0.030279577577492264,1.517396225484114,-1.3471075328598527
2.2949076910225634,25.861537724341822,-0.030545766855346067,1.492214230553895,-1.2991149554213122
2.288483676272707,25.55076346052866,-0.03063532600042695,1.467540662904793,-1.2508635178196974
2.282046960824927,25.245117419225274,-0.03066672588319211,1.443374016175069,-1.204912194890938
2.275609124351328,24.944495112428875,-0.03064600243679915,1.4196955723620917,-1.1611233243318335
2.2691805399656353,24.64879588907603,-0.03057861076027352,1.3964875071887908,-1.1193690450336855
2.26277049010447,24.35792275302007,-0.030469483155589058,1.3737328362013252,-1.07953048867172
2.2563872708713753,24.071782191917087,-0.03032308096912033,1.3514153647794596,-1.0414970469044282
2.2500382860700054,23.790284016234132,-0.030143440948690595,1.3295196417248707,-1.0051657062850323
2.243730132012733,23.51334120765981,-0.02993421673961519,1.3080309161257928,-0.9704404438978902
2.2374686740680425,23.240869776257888,-0.029698716066963664,1.286935097225827,-0.9372316775284117
2.231259115802078,22.972788625758835,-0.029439934085078733,1.2662187170508892,-0.9054557648716991
2.2251060614747766,22.70901942643348,-0.02916058331779286,1.245868895571537,-0.8750345468960494
2.2190135725673374,22.449486495037604,-0.028863120562580103,1.2258733081986906,-0.8458949310141254
2.2129852189440204,22.194116681356668,-0.028549771088056716,1.2062201554293113,-0.8179685101867948
2.2070241251861016,21.942839260916692,-0.028222550415931386,1.1868981344752183,-0.7911912145007796
2.2011330125782074,21.695585833460864,-0.027883283944964428,1.1678964127231315,-0.7655029921285494
2.1953142371762517,21.45229022682176,-0.027533624645089558,1.149204602887408,-0.7408475169035705
2.189569824340994,21.212888405847036,-0.02717506902403749,1.130812739728995,-0.7171719200314337
2.183901500081128,20.977318386061867,-0.026808971546109398,1.1127112582249719,-0.6944265437121855
2.178310719514195,20.74552015177455,-0.02643655766277677,1.0948909730828598,-0.672564714675371
2.172798692721899,20.51743557835306,-0.026058935597184953,1.07734305950273,-0.6515425358303651
2.1673664082482382,20.293008358419968,-0.025677107009109905,1.0600590350981596,-0.6313186944135326
2.1620146544636953,20.072183931730756,-0.025291976653201775,1.0430307428943513,-0.6118542851732608
2.1567440389963313,19.854909418517373,-0.02490436113121932,1.0262503353283259,-0.5931126472762371
2.15155500641059,19.641133556093777,-0.02451499682822063,1.009710259182088,-0.5750592137455068
2.146447854296745,19.43080663853422,-0.024124547113158194,0.9934032413851164,-0.5576613723545947
2.1414253139308856,19.22402510734907,-0.02370917065693462,0.9759446746639278,-0.568282449743777
2.13648781742284,19.020897406355637,-0.023314605610168536,0.9586048586068782,-0.5809781143716152
2.131630953539216,18.821398950204316,-0.022941240900534805,0.9413804380723898,-0.5956312744152515
2.126850242620591,18.62550584411961,-0.02258933927684707,0.9242681913057609,-0.6121280707808225
2.12214116200593,18.433194856478067,-0.022259047529445405,0.9072650243279771,-0.630357627513457
2.1174991693932737,18.24444339251881,-0.02195040592442435,0.8903679657602027,-0.6502118102336052
2.1129197242959465,18.059229469097147,-0.021663356907261483,0.8735741620651604,-0.6715849916522619
2.1083983077423643,17.877531690395443,-0.021397753126859688,0.856880873189134,-0.6943738232441565
2.103930440357232,17.699329224508553,-0.021153364826778945,0.8402854685907967,-0.718477012178322
2.099511698952541,17.524601780823744,-0.020929886646471777,0.823785423645491,-0.7437951026196987
2.095137731748141,17.353329588117283,-0.020726943871618653,0.8073783164160113,-0.7702302605235669
2.09080427233386,17.18549337329135,-0.02054409816915639,0.7910618247833735,-0.797686061046587
2.0865071524779744,17.021074340676073,-0.020380852839275397,0.7748337239335373,-0.8260672776939294
2.0822423138804327,16.860054151822197,-0.020236657613504152,0.7586918841986032,-0.8552796723112183
2.0780058189633923,16.70241490570971,-0.020110913024975252,0.7426342692536655,-0.8852297850125446
2.0737938607864943,16.548139119297375,-0.020002974374051612,0.7266589346733077,-0.9158247231113074
2.069602772169705,16.397209708336934,-0.019912155309658636,0.7107640268547086,-0.946971948088732
2.065429034102582,16.24960996837385,-0.01983773104389336,0.6949477823175355,-0.9785790595951385
2.0612692835154256,16.10532355585411,-0.01977894121473883,0.6792085273942766,-1.0105535754308572
2.0571203204849358,15.96433446925322,-0.01973499240897533,0.6635446783284743,-1.0428027063965193
2.052979114944758,15.826627030139466,-0.019705060354621527,0.6479547418025102,-1.07523312483561
2.0488428129696326,15.692185864078471,-0.019688291789429914,0.6324373159212492,-1.1077507256149308
2.0447087427007897,15.560995881280022,-0.01968380600907061,0.6169910916830388,-1.1402603782001801
2.040574419979796,15.433042256880888,-0.019690696095633144,0.6016148549753869,-1.172665668383397
2.036437553758243,15.308310410748856,-0.019708029823920847,0.5863074891391968,-1.2048686281056875
2.032296051351566,15.18678598668319,-0.019734850239668127,0.5710679781528573,-1.236769451691645
2.0281480236068763,15.068454830875073,-0.01977017590023348,0.5558954104958896,-1.2682661966704583
2.0239917900570834,14.953302969478056,-0.01981300076446295,0.5407889837614104,-1.2992544672023565
2.019825884136821,14.841316585122865,-0.019862293714226088,0.5257480100975412,-1.32962707795751
2.0156490585398457,14.732481992192742,-0.01991699768553917,0.5107719225702921,-1.3592736961080831
2.0114602908027392,14.626785610654633,-0.01997602838214038,0.4958602825545658,-1.3880804588938707
2.0072587892060416,14.524213938217422,-0.020038272538791247,0.4810127882760276,-1.4159295640100256
2.0030439990914557,14.424753520560724,-0.020102585695358447,0.4662292846448971,-1.4426988298457495
1.9988156097026866,14.328390919345942,-0.020167789435776785,0.4515097745435069,-1.4682612223818248
1.9945735616679205,14.23511267768481,-0.020232668038185117,0.4368544317529888,-1.4924843453425132
1.9903180552541708,14.144905282699003,-0.020295964473716583,0.42226361573090193,-1.5152298900087235
1.98604955953788,14.057755124756738,-0.02035637568143409,0.4077378884811441,-1.5363530409568977
1.981768822652601,13.973648452918258,-0.020412547035509248,0.3932780337900939,-1.5557018339246833
1.977476883293568,13.892571326060771,-0.020463065907662267,0.37888507913835573,-1.573116462067968
1.9731750836809263,13.81450955908456,-0.02050645421273528,0.3645603206350906,-1.5884285271333174
1.9688650842087962,13.739448663525032,-0.020541159807550457,0.35030535136041946,-1.6014602326246576
1.9645488800368234,13.667373781810646,-0.02056554659219082,0.3361220935385052,-1.6120235170358823
1.9602288199152054,13.598269614314543,-0.020577883137505935,0.32201283499582767,-1.619919126856518
1.955907627574463,13.532120338250117,-0.020576329631468226,0.30798027037967124,-1.6249356316290686
1.9515884260588998,13.46890951736108,-0.020558922897703242,0.29402754761115824,-1.6268483872649344
1.9472747654398397,13.408620001260854,-0.02052355918858542,0.2801583200100496,-1.625418459714973
1.9429706544143734,13.351233813194483,-0.02046797438728286,0.2663768044315611,-1.6203915298086773
1.938680596381964,13.296732024945065,-0.02038972115947429,0.2526878455628794,-1.6114968128703993
1.934409630701655,13.245094617611553,-0.02028614246251536,0.23909698618484665,-1.5984460453861407
1.9301633799773876,13.196300327085869,-0.020154340625745372,0.22561054263121197,-1.5809326181072505
1.9259481044145452,13.15032647331553,-0.01999114092513486,0.21223568375296284,-1.5586309742291158
1.9217707645636124,13.107148772946246,-0.019793048131368157,0.19898051024023689,-1.5311964479300735
1.917639094158766,13.06674113583545,-0.01955619381955088,0.18585412891019223,-1.4982658000053237
1.9135616853381303,13.02907544741722,-0.01927627113888435,0.17286671316818492,-1.4594588238296573
1.9095480894081995,12.99412134127683,-0.018948452003311824,0.16002953578790394,-1.4143815601584373
1.9056089376660714,12.961845969976547,-0.018567278874099247,0.1473549527862145,-1.3626318906643982
1.9017560889097154,12.932213787724418,-0.018126518805483237,0.13485630675788834,-1.3038085969988058
1.8980028136183495,12.905186366594485,-0.017618960159905103,0.12254770400336337,-1.2375253900451335
1.894364030127832,12.880722279426646,-0.017036120702166195,0.11044360235701112,-1.1634319282127785
1.8908566166616847,12.858777097696091,-0.016367817070664377,0.09855812841018577,-1.0812443907660607
1.8874998366905522,12.839303570832964,-0.01560151598774133,0.08690403219103064,-0.9907885483155859
1.8843159366994207,12.82225207092663,-0.014721341070655383,0.07549120501214449,-0.8920579774114608
1.881331009628121,12.807571392903498,-0.013706535798864054,0.06432477616056015,-0.7852880591634653
1.8785762719568742,12.795209971389522,-0.012529061070154432,0.05340304778206893,-0.6710408737007723
1.876089995128,12.785117465892032,-0.01114976587150353,0.042716052194020734,-0.5502847505173318
1.8739205150853246,12.777246398222829,-0.009511948820643741,0.03224649703648437,-0.42443423622169885
1.8721312131628305,12.77155296382146,-0.007529021869775443,0.02197668773845412,-0.295296982135427
1.870810007061738,12.76799484744243,-0.005053893378726016,0.011910134918965455,-0.16486899808554661
1.8700946571295405,12.76651861060045,-0.001758963118392005,0.0021492635761025374,-0.03496148320072193
