x,y,v_x,v_y,omega
2.375,32.48,0.0,3.641025641025641,-3.959183673469388
2.374004415367162,31.797078039061912,-0.01047983824040389,3.5476265793752644,-3.6775690821672993
2.3711808255298203,31.131498255673783,-0.019242160047397386,3.4584764036576567,-3.42615117046355
2.3668298315722502,30.482482167695657,-0.02655777634807764,3.3732718908489123,-3.200763732571273
2.3612049664317616,29.84930611306052,-0.03265133039391117,3.2917392105735876,-2.9979166680400517
2.3545206479478784,29.23129601741266,-0.03770991680485845,3.2136302172986437,-2.8146717251505606
2.3469586612952855,28.627822809944664,-0.0418899426961195,3.1387193349960274,-2.6485435913598385
2.3386734677519945,28.03829838593053,-0.04532262091746869,3.0668009177843194,-2.497420662529931
2.329796571559328,27.46217203400486,-0.0481183916369177,2.997686997222796,-2.3595012007427565
2.3204401269403814,26.898927261316526,-0.050370499088832545,2.931205346864913,-2.2332416065110072
2.3106999291750023,26.348078961461006,-0.05215789844147665,2.8671978095089874,-2.1173142874537523
2.3006579041017563,25.80917087940017,-0.053547628645319915,2.8055188437629663,-2.0105731733618923
2.290384187425316,25.281773335010904,-0.05459675742247252,2.7460342550713923,-1.9120253574088133
2.2799388671964262,24.76548117289987,-0.055353981829003154,2.6886200829394715,-1.820807671042152
2.269373448642938,24.259911911003712,-0.055860950312974715,2.6331616212306135,-1.7361672517848086
2.2587320892943157,23.76470406450231,-0.056153358619892596,2.5795525524683915,-1.657445357690618
2.2480526434002224,23.279515624889115,-0.056261861317934266,2.527694180302072,-1.5840638334426747
2.2373675474947397,22.804022676806053,-0.05621283242398567,2.477494746888045,-1.5155137513493053
2.2267045732168094,22.3379181375679,-0.056029002080547334,2.4288688240398804,-1.4513458434727624
2.2160874688680066,21.88091060625628,-0.05572999106474273,2.3817367687140463,-1.3911624145992048
2.205536507440721,21.43272331092173,-0.055332760801422874,2.3360242348074975,-1.3346104840998536
2.1950689558037926,20.99309314384613,-0.05485199327150461,2.291661734409314,-1.2813759512732512
2.1846994772482304,20.561769776028424,-0.05430041257651769,2.2485842426192106,-1.23117861604854
2.17444047756212,20.13851484309806,-0.05368905780359196,2.2067308408582953,-1.183767916934424
2.164302403133884,19.723101195759803,-0.05302751512521113,2.1660443942812946,-1.1389192723391037
2.154293998207213,19.3153122086527,-0.05232411568185305,2.126471259477688,-1.0964309310465394
2.1444225272739783,18.914941142183977,-0.05158610466798623,2.087961019140398,-1.056121253639084
2.1346939676489733,18.521790552489676,-0.050819786121536356,2.050466240799655,-1.0178263597324513
2.1251131764869067,18.135671745191257,-0.050030647163375304,2.013942257078432,-0.9813980866091672
2.1156840358490094,17.756404269071552,-0.04922346481449399,1.9783469652342267,-0.946702213655001
2.1064095788808035,17.383815446192603,-0.04840239800872477,1.9436406440178826,-0.9136169142802584
2.097292099705189,17.017739935330432,-0.04757106699774425,1.909785786110227,-0.8820314030323486
2.0883332492507614,16.65801932591325,-0.046732621996229615,1.8767469445969642,-0.8518447506085179
2.0795341189117176,16.304501759925518,-0.045889802625281854,1.8444905921160135,-0.8229648436436684
2.070895313662578,15.957041579485502,-0.045044989470930365,1.8129849914631035,-0.7953074696274958
2.062417016019896,15.61549899802197,-0.04420024887308548,1.7822000765740744,-0.7687955102190072
2.05409904204724,15.279739793170158,-0.04335737189171656,1.7521073429186593,-0.7433582286732788
2.045940890433244,14.949635019680823,-0.04251790825560993,1.7226797464427548,-0.7189306391552884
2.0379417855308466,14.625060740791568,-0.04168319598015354,1.6938916102862542,-0.69545294745436
2.030100715124894,14.305897776648987,-0.040854387240396015,1.6657185385830184,-0.6728700540839107
2.0224164635919606,13.992031468495213,-0.040032471001010976,1.638137336719876,-0.6511311119989391
2.0148876410277117,13.683351457444907,-0.039218292833189394,1.611125937493863,-0.6301891322244502
2.0075127088412215,13.379751476780076,-0.03841257228775954,1.5846633326622381,-0.6100006315918273
2.0002900022503716,13.081129156781408,-0.03761591814223932,1.5587295094290174,-0.5905253175519858
1.9932177500562764,12.78738584119737,-0.03682884179560223,1.533305391455608,-0.5717258056946507
1.9862940920262222,12.498426414526975,-0.03605176904707504,1.5083727840222476,-0.5535673661695588
1.979517094172739,12.21415913935968,-0.03528505046327459,1.4839143230019158,-0.5360176956921666
1.9728903624574372,11.934496276561145,-0.034470020224111594,1.4599052854037324,-0.5174361594907495
1.9664167614097678,11.659353120447786,-0.033673148698723745,1.436338463157951,-0.49966618246010047
1.9600928605388062,11.388647092046604,-0.03289422889034582,1.4131986779071268,-0.48266300894357717
1.9539152717963986,11.122298433412627,-0.03213302102973543,1.3904714129768372,-0.4663848180415601
1.9478806552753274,10.860230085358499,-0.03138925813943269,1.3681427770666355,-0.4507925004932012
1.941985723918028,10.602367571858156,-0.03066265088477295,1.3461994703053886,-0.43584945478655845
1.9362272473629711,10.348638890692364,-0.029952891800035273,1.3246287524924172,-0.42152140064859833
1.9306020550401124,10.098974409936272,-0.029259658966899665,1.3034184133611701,-0.40777620826226313
1.9251070386130544,9.853306769918941,-0.028582619212657992,1.2825567447160016,-0.39458374173093363
1.9197391538535706,9.611570790311934,-0.027921430887172874,1.2620325143051443,-0.38191571546397063
1.9144954220236174,9.373703382029035,-0.027275746270228832,1.2418349413043297,-0.36974556229304856
1.909372930830766,9.139643463642024,-0.026645213654520928,1.221953673295802,-0.35804831224980777
1.9043688350149115,8.909331882038423,-0.026029479143949014,1.2023787646368311,-0.3468004810427934
1.8994803566170444,8.682711337066493,-0.02542818820202019,1.1831006561203343,-0.3359799673673191
1.8947047849746657,8.459726309930456,-0.024840986980913207,1.1641101558379605,-0.32556595826718615
1.8900394764829647,8.24032299511536,-0.024267523458044733,1.1453984211630415,-0.3155388418433195
1.8854818541560963,8.02444923563603,-0.023707448403728276,1.1269569417772531,-0.30588012667242287
1.8810294070186782,7.812054461418477,-0.023160416200671656,1.1087775236706985,-0.29657236735962567
1.8766796893539257,7.603089630634962,-0.022626085533565703,1.0908522740504925,-0.2875990957036201
1.8724303198315781,7.397507173825872,-0.022104119964830162,1.0731735870978383,-0.27894475700168153
1.8682789805359064,7.195260940652361,-0.021594188410663524,1.0557341305180765,-0.2705946510658558
1.8642234159115567,6.996306149134075,-0.0210959655298576,1.038526832832307,-0.26253487756103977
1.8602614316427664,6.800599337235525,-0.02060913203635574,1.0215448713629565,-0.2547522853111655
1.856390893479516,6.608098316673477,-0.020133374945230185,1.004781660869137,-0.2472344252516501
1.8526097260224614,6.418762128825783,-0.01966838776060675,0.9882308427908134,-0.23996950673507744
1.8489199015794062,6.2327532627228415,-0.0191718695347114,0.9697572214506782,-0.27522783529793887
1.8453204754867292,6.050244383285911,-0.01871682617767717,0.9513888778854485,-0.3118136571892902
1.8418036803340385,5.871215744837919,-0.01830207016643488,0.9331231057776105,-0.34962493615756596
1.8383619771647575,5.695648106044359,-0.01792638424705158,0.9149573025756306,-0.38856137993036566
1.8349880607513098,5.523522710491637,-0.017588525368187224,0.8968889664003823,-0.42852421818325187
1.8316748641603553,5.354821267819485,-0.017287228220805147,0.8789156933064798,-0.46941598279948815
1.8284155626805176,5.1895259353403205,-0.017021208409066468,0.8610351748952405,-0.5111402894748922
1.8252035771805781,5.027619300078804,-0.01678916527450887,0.8432451962786323,-0.5536016197065119
1.8220325769621768,4.869084361164685,-0.01658978439287204,0.8255436343963175,-0.5967051021806011
1.8188964821676292,4.713904512511405,-0.016421739760260585,0.8079284566908236,-0.6403562925439303
1.8157894658005476,4.562063525711622,-0.016283695682704828,0.790397720148995,-0.6844609505022708
1.812705955414537,4.413545533078949,-0.01617430838056478,0.7729495707212578,-0.7289248131403033
1.8096406345233067,4.2683350107627085,-0.016092227316594952,0.7555822431339156,-0.7736533632974558
1.8065884437841175,4.126416761859179,-0.0160360962538192,0.738294061113754,-0.8185515917634092
1.8035445820055753,3.987775899438745,-0.016004554046624393,0.7210834380487297,-0.8635237519742204
1.8005045070304107,3.85239782940333,-0.015996235165636398,0.7039488781135502,-0.9084731057940784
1.7974639365440495,3.7202682330825567,-0.016009769953955557,0.686888977894596,-0.9533016588573682
1.7944188488605533,3.591373049469844,-0.0160437846091619,0.6699024285550157,-0.9979098838195809
1.7913654837388824,3.4656984569912517,-0.016096900882109296,0.6529880185880641,-1.0421964297221589
1.788300343284495,3.34323085468996,-0.016167735479863866,0.6361446372149965,-1.0860578155139837
1.7852201929940734,3.2239568426976746,-0.016254899156151154,0.6193712784932542,-1.1293881055891954
1.782122063004751,3.1078632018507264,-0.016356995468297927,0.6026670462114792,-1.172078564995664
1.7790032496136547,2.9949368722929073,-0.016472619174819413,0.5860311596602965,-1.2140172917390664
1.7758613171390158,2.8851649308888803,-0.016600354242433703,0.5694629603820875,-1.2550888233526962
1.7726941002005816,2.7785345672507376,-0.016738771425293866,0.5529619200194215,-1.2951737146218267
1.76949970650479,2.675033058155819,-0.016886425372514537,0.5365276494007896,-1.3341480830433043
1.7662765202292117,2.5746477401054477,-0.01704185121251852,0.5201599090241629,-1.3718831182669318
1.7630232061113726,2.4773659797413607,-0.01720356055420779,0.5038586211241165,-1.4082445514077118
1.7597387143593677,2.383175141798528,-0.01737003683531922,0.48762388353729635,-1.4430920797426097
1.7564222865159613,2.2920625542291226,-0.01753972993737915,0.4714559856143405,-1.4762787419216765
1.7530734624243602,2.2040154700816323,-0.01771104997421107,0.45535542646451255,-1.5076502384468906
1.7496920884628713,2.1190210256605475,-0.017882360146722998,0.43932293586269894,-1.537044191827639
1.746278327237595,2.0370661944248383,-0.01805196854039533,0.42335949819740837,-1.5642893405474112
1.7428326689475617,1.9581377360062433,-0.018218118723115514,0.40746637989307416,-1.5892046608293304
1.739355944665836,1.8822221396404046,-0.018378978979260788,0.3916451607999517,-1.611598410254194
1.7358493418137044,1.8093055612040416,-0.018532629990543392,0.3758977701091163,-1.6312670876904605
1.7323144221439057,1.7393737529391409,-0.018677050744179153,0.36022652741614897,-1.6479943049278938
1.7287531425939644,1.6724119848206414,-0.01881010241309888,0.3446341896206789,-1.6615495671399665
1.7251678794233416,1.6084049563884442,-0.018929509909243646,0.3291240044024505,-1.6716869622378183
1.721561456110095,1.547336697720901,-0.019032840756512327,0.3136997710453652,-1.6781437639124788
1.7179371755565203,1.4891904580815876,-0.019117480860063613,0.2983659093684707,-1.6806389605617122
1.7142988572424829,1.4339485806353238,-0.01918060665611892,0.28312753743431174,-1.6788717336418437
1.7106508800752083,1.381592361522646,-0.019219152999403077,0.2679905584886067,-1.6725199261554895
1.7069982318236203,1.3321018915360412,-0.019229775964678963,0.25296175715985536,-1.6612385677561656
1.7033465662070641,1.2854558787080315,-0.01920880947275484,0.23804890418760127,-1.6446585614048663
1.699702268953683,1.2416314503824601,-0.019152214247048358,0.22326086766050068,-1.622385693658352
1.696072534487519,1.200603933924281,-0.019055516975730637,0.2086077266361251,-1.5940002152976287
1.692465455402819,1.1623466163278202,-0.018913736547426813,0.19410087964239633,-1.5590573638773104
1.6888901276344739,1.1268304849104105,-0.018721292593048007,0.17975313527769715,-1.517089383102868
1.685356775394999,1.0940239544777413,-0.018471888875108734,0.16557876401357546,-1.467609860947149
1.6818769017902764,1.0638925914737385,-0.018158359595655316,0.15159347813383253,-1.4101215921313472
1.6784634740021076,1.0363988535892084,-0.017772459227173642,0.13781428907175922,-1.3441297094990357
1.67513115679761,1.011501875259647,-0.017304563978064597,0.12425916702889751,-1.2691625553388373
1.6718966161647504,0.9891573466667296,-0.016743232157298556,0.11094639710708601,-1.1848036697595707
1.6687789281740297,0.9693175569273009,-0.016074536166077076,0.09789349488690109,-1.090739223177293
1.6658001501247828,0.9519316994394842,-0.015281022247048243,0.08511553130065638,-0.9868257561306579
1.6629861471069245,0.9369465608198162,-0.014340062151459484,0.07262276995900971,-0.8731820529634611
1.6603678263437094,0.9243077119841914,-0.013221209040278582,0.06041774410021344,-0.7503039294212214
1.6579830315597284,0.9139612400828945,-0.011881893948994849,0.04849248643973652,-0.6191875818152612
1.6558795364239818,0.9058558067710827,-0.010260160111495886,0.03682786421091225,-0.481421763976055
1.6541200186103546,0.8999442235910919,-0.00826108003194751,0.0253993271574154,-0.33917397542830474
1.6527913693341176,0.8961823867815326,-0.005724701823180214,0.01419895504848837,-0.1949715901251671
1.6520282170369012,0.894518676768655,-0.002308480252781695,0.003313781929176512,-0.05120903943002414
