x,y,v_x,v_y,omega
2.375,32.48,0.0,3.333333333333333,-7.142857142857143
2.3735718900433076,31.886955302414307,-0.015867888407692394,3.2560521953965362,-6.696143330184062
2.3694933337538684,31.307537106904732,-0.029449403697188247,3.181927754709892,-6.2912397491523615
2.363147396397381,30.741196527728707,-0.041061011374895116,3.110745347245933,-5.92304677239173
2.3548644899869973,30.18742141028854,-0.050971282073812345,3.0423115132003526,-5.587205819919973
2.344930266702537,29.645732774951046,-0.05940897664240942,2.976451101660679,-5.279975500789446
2.3335921946048708,29.115681736024726,-0.06656960222055298,2.9130048864095532,-4.998131170941298
2.321065061679444,28.596846813673437,-0.07262076361751894,2.851827584160337,-4.738882949159623
2.30753560279747,28.08883157374035,-0.07770655729330542,2.792786192873948,-4.499808399751121
2.293166404768721,27.591262543540154,-0.08195119858168222,2.7357585871282457,-4.278796954566875
2.27809921414609,27.103787361734298,-0.0854620305586632,2.68063232182573,-4.074003794090022
2.2624577485963826,26.626073128208947,-0.08833203110475203,2.6273036062337147,-3.8838113970358417
2.246350093858927,26.157804925988575,-0.09064191042253204,2.5756764184370873,-3.7067973420657525
2.2298707533893607,25.69868449204923,-0.09246187257264761,2.5256617364444964,-3.5417072335789856
2.213102405851836,25.248429017746123,-0.0938531000665207,2.477176866923387,-3.38743184757541
2.196117416019654,24.806770062664263,-0.09486900917994438,2.430144856208391,-3.242987768922113
2.178979136872372,24.373452568207057,-0.09555631467874161,2.3844939710939146,-3.107500929526389
2.161743034354373,23.948233959282536,-0.09595593552124737,2.3401572391785157,-2.980192566487866
2.144457661090785,23.530883324127764,-0.09610376740751188,2.297072040318927,-2.860367206703789
2.127165501111948,23.12118066370267,-0.096031343468453,2.255179742182123,-2.7474023545014075
2.109903704137602,22.718916203243126,-0.09576640069094772,2.214425374035049,-2.6407396153825915
2.0927047250747886,22.32388975953398,-0.09533336667364502,2.174757333844339,-2.539877034740937
2.0755968819766553,21.93591015828128,-0.09475377886117133,2.1361271245189983,-2.4443624676574514
2.0586048437030806,21.554794696656778,-0.0940466464007695,2.098489115753256,-2.3537878263153797
2.0417500568463454,21.180368646679185,-0.09322876311850724,2.0618003284421764,-2.2677840765433017
2.02505112007786,20.812464795603034,-0.09231497875355613,2.026020239070606,-2.186016875557792
2.0085241128882463,20.450923019921674,-0.09131843446437035,1.9911106018334088,-2.1081827599714726
1.9921828846946612,20.09558988996762,-0.09025076768657578,1.9570352865449483,-2.034005807226464
1.9760393094448814,19.74631830242018,-0.08912229064431348,1.9237601306488796,-1.9632347053403814
1.9601035101318867,19.402967138314928,-0.08794214616673819,1.8912528038539054,-1.895640175640236
1.9443840570243702,19.065400944398725,-0.08671844391677763,1.8594826841038803,-1.8310127013539996
1.9288881429004983,18.73348963589215,-0.08545837968179892,1.8284207437469688,-1.7691605218094744
1.9136217381299836,18.40710821891367,-0.08416833999058622,1.7980394449028043,-1.709907857782321
1.898589728071207,18.086136530989606,-0.08285399399582018,1.7683126431423615,-1.6530933384246416
1.883796034925837,17.770458998224203,-0.08152037428607026,1.7392154986954327,-1.5985686043436245
1.8692437259148758,17.45996440783773,-0.080171948057943,1.7107243944876096,-1.546197064910655
1.8549351094003983,17.15454569489924,-0.07881267988069321,1.6828168603844895,-1.495852790867165
1.840871820370634,16.854099742186797,-0.07744608711668763,1.6554715030871006,-1.4474195258387674
1.8270548965276059,16.5585271922027,-0.07607528891695958,1.6286679411806548,-1.4007898025437722
1.8134848460621744,16.267732270456357,-0.07470304958783483,1.602386744889828,-1.355864151344083
1.8001617080675576,15.98162261920378,-0.07333181701901764,1.5766093801388101,-1.3125503903840372
1.787085106426285,15.70010914090141,-0.07196375677290198,1.5513181565541925,-1.2707629879363294
1.7742542979045977,15.423105850693972,-0.07060078235695673,1.5264961790840266,-1.2304224887575252
1.7616682151004182,15.150529737312013,-0.06924458213392773,1.5021273029377271,-1.1914549972771413
1.749325504814361,14.882300631805474,-0.0678966432667062,1.478196091579373,-1.153791711327661
1.7372312190234633,14.6183440755628,-0.06648430996549115,1.454654533339243,-1.1152184421752913
1.7253890471612823,14.358588043757823,-0.06509537739207572,1.4315235978271414,-1.0782597296480416
1.713794751093742,14.102959852968649,-0.06373013446948113,1.408789633163672,-1.0428299532214254
1.7024440499194158,13.85138922534503,-0.06238876746747723,1.386439562654317,-1.0088488905942241
1.6913326373005106,13.603808187841722,-0.0610713727425783,1.3644608540491159,-0.976241322691712
1.6804561966290914,13.360150976808676,-0.059777968050970146,1.3428414907625135,-0.9449366714543679
1.6698104142709118,13.120353947598396,-0.05850850259546999,1.3215699449072424,-0.9148686673738103
1.6593909911019362,12.884355488875972,-0.0572628659487015,1.3006351520085933,-0.8859750440481082
1.6491936525285258,12.652095941340296,-0.05604089597808305,1.2800264872766878,-0.8581972573044218
1.6392141571609673,12.42351752058618,-0.05484238588367529,1.2597337433245734,-0.831480226682294
1.6294483042911931,12.198564243856342,-0.05366709044715102,1.2397471092291927,-0.8057720972894772
1.6198919403088476,11.977181860450056,-0.052514731578909936,1.2200571508406584,-0.7810240202371065
1.6105409641751036,11.759317785571639,-0.051385003240467284,1.2006547922528805,-0.7571899500351065
1.601391332060514,11.544921037416884,-0.0502775758105285,1.1815312983555037,-0.7342264574843326
1.5924390612415738,11.333942177309481,-0.049192099955475,1.1626782583934163,-0.7120925567412443
1.5836802333403428,11.12633325271215,-0.04812821005820081,1.1440875704658282,-0.6907495453557254
1.5751109969823127,10.922047742949033,-0.04708552725324543,1.1257514269021547,-0.670160856194639
1.5667275699395424,10.721040507486734,-0.04606366211086753,1.107662300456721,-0.6502919202642647
1.5585262408188432,10.523267736631446,-0.0450622170080134,1.0898129312686775,-0.631110039535172
1.550503370348324,10.328686904508888,-0.04408078821997923,1.0721963145375142,-0.6125842689544484
1.5426553923098663,10.137256724202373,-0.04311896776288383,1.0548056888682258,-0.5946853069034983
1.5349788141599645,9.948937104932313,-0.04217634501380127,1.0376345252435424,-0.577385393425733
1.5274702173767971,9.76368911116786,-0.04125250813250309,1.0206765165837213,-0.5606582156081419
1.5201262575673153,9.581474923568173,-0.040347045306183035,1.0039255678572256,-0.5444788195546514
1.5129436643644967,9.402257801657282,-0.039459545836246945,0.9873757867082251,-0.5288235284379427
1.5059270411279977,9.226229775756508,-0.03850293456929901,0.9684911677448106,-0.5641886871576823
1.499077755145867,9.053591668718653,-0.03760024300993141,0.9497100215646774,-0.6007753876117211
1.492386269951612,8.884325086256975,-0.03674959248178778,0.931029783565076,-0.6384778295944621
1.4858433870441918,8.718412086371085,-0.03594910648954733,0.9124479929448286,-0.6771917136732571
1.4794402453183695,8.555835160890176,-0.03519691268625754,0.8939622901763734,-0.7168140059089155
1.4731683201661911,8.396577217437265,-0.03449114456016885,0.8755704148559492,-0.7572427038958078
1.4670194222986286,8.240621561746245,-0.03382994285719289,0.8572702039331458,-0.7983766030753819
1.4609856963337338,8.087951880263091,-0.03321145675274996,0.8390595903241228,-0.8401150622542146
1.4550596191953855,7.9385522229614764,-0.032633844784453026,0.8209366019160591,-0.8823577672263478
1.4492339983648552,7.79240698630138,-0.03209527555477276,0.8028993609738938,-0.925004491359107
1.443501970025979,7.649500896256949,-0.03159392821051732,0.78494608396421,-0.9679548519513113
1.4378569971437072,7.509818991336797,-0.03112799270361718,0.7670750818152505,-1.0111080611120962
1.4322928675152042,7.373346605516129,-0.030695669835303575,0.7492847606366144,-1.054362669836719
1.4268036918325318,7.240069350995384,-0.030295171083280895,0.7315736229272346,-1.0976163038718567
1.4213839017962364,7.109973100694404,-0.02992471820888877,0.7139402693058763,-1.1407653898661143
1.4160282483199718,6.9830439703844505,-0.029582542638495947,0.6963834008047189,-1.183704870190708
1.4107317998675684,6.85926830035239,-0.029266884610429332,0.6789018217737098,-1.226327904689541
1.4054899409658277,6.7386326364821265,-0.028975992075578386,0.6614944434514349,-1.2685255574760521
1.400298370938751,6.62112371062743,-0.028708119336383408,0.6441602882674006,-1.3101864667352523
1.3951531029120117,6.506728420137772,-0.028461525405167228,0.626898494951022,-1.3511964953123496
1.3900504631402684,6.3954338063840765,-0.028234472058648603,0.6097083245344794,-1.3914383596735769
1.3849870907145072,6.287227032114462,-0.028025221560920275,0.5925891673501412,-1.430791234610001
1.3799599377120337,6.182095357450464,-0.027832034022115364,0.575540551138731,-1.4691303308215318
1.3749662698581526,6.080026114311789,-0.02765316435434279,0.5585621504020928,-1.5063264422674207
1.3700036677760479,5.981006679031687,-0.027486858780154194,0.5416537971546016,-1.542245459904081
1.3650700289100806,5.885024442895247,-0.02733135084170581,0.5248154932502941,-1.5767478481561517
1.3601635702177572,5.792066780298711,-0.027184856850774763,0.5080474244889791,-1.6096880801906917
1.3552828317372214,5.70212101418862,-0.02704557071073398,0.4913499767342615,-1.6409140278002476
1.350426681150438,5.615174378394652,-0.026911658031305352,0.4747237543098337,-1.670266301468119
1.3455943194775544,5.531213976418773,-0.026781249445178974,0.4581696009777292,-1.6975775360179803
1.3407852880554965,5.450226736184863,-0.026652433022130228,0.4416886238434701,-1.7226716171836185
1.3359994769740393,5.372199360186947,-0.026523245660727356,0.42528222057781223,-1.7453628445363598
1.3312371351658083,5.297118270399647,-0.02639166331961798,0.40895211039220336,-1.7654550265698576
1.3264988823734283,5.224969547231549,-0.026255589929049694,0.3927003692533402,-1.7827405044972908
1.3217857232480144,5.15573886171061,-0.026112844797771505,0.37652946986819574,-1.7969991026565006
1.317099063869269,5.089411399991636,-0.025961148299400175,0.36044232700930173,-1.807997005620455
1.312440731019794,5.025971779171286,-0.02579810558365523,0.3444423487723526,-1.8154855655716793
1.307812994596507,4.965403953290206,-0.025621188008424358,0.328533494350767,-1.8192000487935025
1.3032185936026297,4.907691108301822,-0.02542771192354368,0.3127203388535023,-1.8188583380854941
1.2986607662381178,4.852815544705468,-0.025214814348810184,0.29700814555043226,-1.8141596197197598
1.2941432846998813,4.800758546497079,-0.02497942496492948,0.28140294565388585,-1.8047831009443993
1.2896704954238754,4.751500235114882,-0.024718233657358948,0.265911625259421,-1.790386829503006
1.2852473656618038,4.7050194071982325,-0.024427652587881363,0.25054201825891387,-1.770606723770394
1.2808795375059407,4.661293355308935,-0.024103771366152316,0.23530300273326282,-1.745055976073939
1.276573390788683,4.620297671397971,-0.02374230327004533,0.22020459627743605,-1.7133250699569178
1.2723361167409182,4.58200603390442,-0.023338519482897214,0.20525804253978078,-1.6749827649505484
1.2681758049796015,4.546389981195301,-0.02288716675395469,0.19047587645045905,-1.6295785642093186
1.2641015474476578,4.51341867695286,-0.022382361378753598,0.1758719484655631,-1.5766474101763515
1.2601235645729543,4.483058677590769,-0.021817448340174777,0.16146137777988803,-1.515717674762826
1.2562533615132463,4.455273718497157,-0.021184807878803443,0.1472603899268944,-1.4463239479504517
1.2525039265030693,4.430024545658874,-0.020475581123163764,0.13328597494290584,-1.3680266969014958
1.2488899899668262,4.4072688327737275,-0.019679269279537934,0.11955527933651347,-1.280441542307764
1.2454283737114349,4.3869612414945856,-0.018783133558143986,0.10608462376506651,-1.1832815498872127
1.2421384764918135,4.369053702308246,-0.01777127999320438,0.09288803386094265,-1.0764161886621897
1.2390429691304632,4.353496009461921,-0.016623246244020402,0.0799752199871202,-0.9599495958038075
1.236168814853565,4.340236819242168,-0.01531180127707017,0.0673491157879154,-0.8343168013715991
1.2335487991762957,4.329225082733846,-0.013799484025922099,0.055003512082323056,-0.7003868980089611
1.2312238755169016,4.320411770017358,-0.01203300107845625,0.04292218476752188,-0.5595441324834907
1.2292469002417576,4.313751350875869,-0.009933390867588897,0.03108247236012794,-0.41369306627264646
1.227689127221566,4.309201676572815,-0.007375198245652175,0.019469464340474564,-0.26511494421350634
1.2266541771399502,4.30671864354975,-0.004124247105633691,0.008119791471371577,-0.11611342119191301
