x,y,v_x,v_y,omega
2.375,32.48,0.0,2.717948717948718,-3.1020408163265305
2.3743734047732454,31.94226921559775,-0.006265952267547771,2.659359126073744,-2.924320972905473
2.3725779859855356,31.41604633977471,-0.011688235609548767,2.6028696321566844,-2.7616484586608614
2.3697717004127288,30.900923503934756,-0.01637462011851851,2.548358726242817,-2.6123570865104337
2.3660924421641805,30.39651618437847,-0.02041796236696738,2.495714469320047,-2.474999646629938
2.361660798385049,29.902461386832492,-0.023898475424346324,2.4448335061397475,-2.3483151127628092
2.356582388887875,29.41841601543968,-0.02688561954739254,2.3956202077883817,-2.2312013297111495
2.350949858646648,28.944055402370275,-0.029439682864877675,2.3479859229056355,-2.1226921723329153
2.3448445796035244,28.479071978026226,-0.031613107566358295,2.301848320534846,-2.021938369663073
2.3383381082182044,28.0231740648954,-0.033451606286841976,2.2571308107734223,-1.9281913465908134
2.331493437104462,27.576084780629223,-0.03499510485058022,2.2137620318883426,-1.840789560386629
2.324366072542153,27.13754103798653,-0.03627854077251221,2.171675394538586,-1.7591469081250428
2.3170049643128525,26.707292631000286,-0.037332541520492285,2.1308086753238555,-1.6827428595842624
2.3094533099392023,26.285101398153138,-0.03818400221600877,2.0911036531476452,-1.611114032986218
2.3017492518209153,25.870740454547306,-0.03885657896686258,2.0525057829106546,-1.5438469813740388
2.293926482803619,25.463993486067302,-0.03937111120609855,2.014963901889399,-1.480571998124041
2.2860147732709213,25.064654099393962,-0.03974598412087996,1.978429964843992,-1.4209577830768962
2.2780404308201794,24.672525222462674,-0.039997440386540205,1.9428588044688588,-1.3647068376192646
2.2700267018923976,24.287418550588377,-0.040139848891273706,1.9082079142741168,-1.3115514789814102
2.261994123315266,23.909154034022777,-0.04018593688004393,1.8744372513818903,-1.2612503820037109
2.2539608305362457,23.537559403179053,-0.04014699091015982,1.8415090570553836,-1.2135855714281356
2.2459428283298184,23.172469728167457,-0.040033031154110825,1.809387693060548,-1.1683597999947597
2.237954228926959,22.813727009641426,-0.0398529628744857,1.77803949219977,-1.1253942577504552
2.23000746180906,22.461179798265302,-0.03961470830450643,1.7474326215614737,-1.0845265663929775
2.2221134588111657,22.114682840388678,-0.039325321674431986,1.7175369572047765,-1.0456090194888334
2.214281817672575,21.774096747753283,-0.038991089711475385,1.6883239691491427,-1.0085070352677192
2.2065209467419424,21.439287689271445,-0.03861761959485057,1.6597666156692394,-0.9730977936123683
2.198838193176792,21.11012710310371,-0.03820991605665515,1.631839246008122,-0.939269032994844
2.191239956663713,20.78649142743089,-0.0377724490741354,1.604517510720089,-0.9069179865926726
2.18373179041712,20.468261848464856,-0.037309213391795853,1.577778278940253,-0.8759504397603256
2.1763184909842903,20.15532406437554,-0.0368237809365013,1.5515995619528615,-0.8462798935233227
2.1690041781866425,19.84756806393063,-0.036319347039976996,1.5259604424962352,-0.8178268208775539
2.1617923663569796,19.544887918750998,-0.03579877125664984,1.5008410093001032,-0.7905180044763195
2.1546860278856115,19.247181588180766,-0.03526461345703205,1.4762222964022151,-0.7642859458225032
2.147694647938412,18.95435191532018,-0.03464918601496235,1.4520744322036312,-0.736975064356332
2.140826373403376,18.666305205962544,-0.034033559335397257,1.4283926613727194,-0.7109042198714313
2.1340811118483956,18.38294989118711,-0.033419056214408,1.4051604863816405,-0.6860025054014824
2.127458523018683,18.104197626946732,-0.03280683208271952,1.3823621560221298,-0.6622038351007329
2.120958050471498,17.829963149049973,-0.03219789338912613,1.3599826229454337,-0.6394465644608949
2.114578949738128,17.560164136347744,-0.03159311394457674,1.338007504076893,-0.6176731444271182
2.1083203133972863,17.29472108157217,-0.03099324946384005,1.3164230436788276,-0.5968298060387093
2.1021810933996496,17.03355716931872,-0.03039895051252377,1.2952160788556812,-0.5768662725901578
2.0961601209442087,16.776598160701784,-0.02981077404188818,1.2743740073136605,-0.5577354966337075
2.090256124172836,16.523772284250065,-0.029229193671836472,1.2538847572035297,-0.539393419431899
2.084467743919329,16.275010132640706,-0.02865460886323396,1.2337367588900638,-0.5217987507221191
2.0787935477226136,16.030244564901196,-0.028087353103920618,1.2139189185050354,-0.504912766879485
2.0732320422904107,15.78941061373542,-0.02752770121810842,1.194420593152715,-0.48869912576301466
2.0677816845789985,15.552445397655369,-0.02697587589601424,1.1752315676478156,-0.47312369670618004
2.0624408916364643,15.319288037623014,-0.026432053529328328,1.1563420326757345,-0.45815440426935117
2.0572080493407063,15.089879577928045,-0.025896369428249553,1.1377425642739498,-0.4437610845107113
2.0520815201491662,14.864162911046488,-0.02536892248715181,1.1194241045416033,-0.4299153526560361
2.0470596499646185,14.642082706243155,-0.02484977935832668,1.101377943491746,-0.41659048115809166
2.0421407742101314,14.423585341697233,-0.024338978186541432,1.0835957019674813,-0.40376128723490173
2.037323223196353,14.208618839945544,-0.02383653195124346,1.0660693155494179,-0.3914040290641412
2.0326053268554256,13.997132806451855,-0.02334243145803154,1.048791019387464,-0.37949630988964284
2.027985418907981,13.789078371123594,-0.022856648016414377,1.0317533338951403,-0.3680169893665111
2.0234618405226583,13.584408132609152,-0.022379135836811757,1.0149490512492774,-0.3569461015345552
2.019032943521361,13.383076105219999,-0.021909834176158098,0.9983712226422641,-0.34626477886649365
2.0147006970401145,13.185209077073093,-0.021412630636311224,0.9802990588268033,-0.37002390534696555
2.0104645027359678,12.990945181344177,-0.02094931240515395,0.9623398984623426,-0.39550147419622556
2.006317635501987,12.800262123482344,-0.020519359934653588,0.944490680155992,-0.42258763723049453
2.0022534814259627,12.613138209329186,-0.02012218082558974,0.9267484613755954,-0.4511750905473604
1.9982655516728882,12.429552321789373,-0.01975711670515533,0.909110414022552,-0.4811588382643305
1.9943474950498823,12.249483898347354,-0.019423449524904806,0.8915738203976411,-0.5124359617005357
1.9904931093654696,12.072912909352784,-0.01912040731922244,0.8741360695480659,-0.5449053930633991
1.9866963516874612,11.899819836999335,-0.018847169460862553,0.8567946539864384,-0.5784676927103342
1.9829513475967055,11.730185654923197,-0.018602871446691985,0.8395471667749458,-0.6130248290570497
1.9792523995276847,11.56399180834865,-0.01838660924351614,0.8223912989705083,-0.6484799601986458
1.9755939942812566,11.40122019470866,-0.018197443220766503,0.8053248374293848,-0.6847372162971721
1.9719708097897954,11.241853144668479,-0.0180344016938436,0.788345662972442,-0.7217014817693708
1.9683777212105094,11.085873403479713,-0.017896484099019037,0.7714517489152157,-0.7592781762805676
1.9648098064188098,10.933264112591193,-0.017782663817977416,0.7546411599699928,-0.7973730335146139
1.9612623509702822,10.784008791441146,-0.01769189066729726,0.7379120515304893,-0.8358918766448765
1.9577308525970123,10.638091319352764,-0.01762309306540213,0.7212626693533304,-0.8747403893768447
1.954211025301799,10.49549591745198,-0.017575179886730775,0.7046913496545277,-0.9138238813682195
1.950698803112121,10.356207130522172,-0.017547042010048197,0.6881965196435537,-0.9530470467565106
1.9471903435546247,10.220209808705565,-0.01753755356491635,0.671776698522517,-0.9923137144362177
1.9436820309104,10.087489088954971,-0.0175455728773292,0.655430498983437,-1.031526588626537
1.9401704793114316,9.95803037613235,-0.017569943112354987,0.6391566292427944,-1.0705869781550716
1.9366525357393685,9.831819323642115,-0.017609492608277807,0.622953895659533,-1.10939451275195
1.933125282989226,9.7088418134771,-0.01766303489314608,0.6068212059906232,-1.1478468445008063
1.9295860426628346,9.589083935543304,-0.017729368370766975,0.5907575733473474,-1.1858393324269167
1.92603237825986,9.47253196611599,-0.01780727565897806,0.5747621209257974,-1.2232647080171826
1.9224620984381207,9.359172345263719,-0.017895522558417122,0.5588340875969039,-1.2600127192605066
1.918873260519786,9.248991653058539,-0.01799285662492851,0.5429728344548805,-1.2959697505696801
1.9152641743259824,9.141976584369196,-0.018098005313109067,0.5271778524385292,-1.3310184156969607
1.9116334064294496,9.038113922009572,-0.018209673652218223,0.5114487711577259,-1.3650371204857807
1.9079797849233628,8.937390507986006,-0.018326541408650886,0.495785369077919,-1.397899592012538
1.9043024048143697,8.839793212554316,-0.018447259681278676,0.48018758523898997,-1.4294743703693573
1.9006006341595354,8.745308900759245,-0.018570446867064896,0.46465553271173493,-1.4596242590283313
1.8968741210804003,8.653924396085479,-0.018694683924287577,0.44918951402590407,-1.4882057294218822
1.8931228018030448,8.565626440799033,-0.018818508849266415,0.4337900388385466,-1.5150682750910258
1.8893469098911737,8.480401652500117,-0.018940410269445093,0.4184578441506149,-1.540053710521617
1.885546986860156,8.398236476342706,-0.01905882004073292,0.4031939174234871,-1.5629954096502905
1.8817238943841046,8.31911713230085,-0.019172104719778954,0.3879995229950662,-1.5837174790391633
1.877878828335943,8.243029556776676,-0.019278555761836683,0.372876232246668,-1.602033860983141
1.87401333493262,8.169959337749464,-0.019376378271395503,0.3578259580254356,-1.6177473624598504
1.8701293292949956,8.099891642558969,-0.019463678104846338,0.34285099387953166,-1.6306486070551256
1.8662291167754392,8.032811137300044,-0.01953844709072029,0.3279540587097174,-1.6405149090808553
1.8623154174572258,7.968701896681814,-0.019598546091413007,0.31313834747256647,-1.6471090724603725
1.8583913942903236,7.907547303077191,-0.0196416855776093,0.2984075885736549,-1.6501781221913159
1.8544606854007724,7.849329933365659,-0.019665403317903955,0.2837661085416632,-1.6494519841836837
1.8505274411996284,7.7940314320672925,-0.01966703869353515,0.26921890444202057,-1.6446421412900014
1.8465963670283632,7.741632369201277,-0.019643703019115975,0.25477172421813904,-1.6354403112606521
1.8426727722200187,7.692112081313738,-0.019592245064329765,0.2404311546572663,-1.6215172188935116
1.838762626644058,7.645448494263903,-0.01950921069527829,0.22620471584109025,-1.6025215737737215
1.8348726260612964,7.601617926722934,-0.019390795132336863,0.21210095956859518,-1.5780794224887176
1.831010267981821,7.560594874061444,-0.01923278566241625,0.19812956704630283,-1.547794128391736
1.8271839402560839,7.522351773585701,-0.01903049159495541,0.18430143771114246,-1.5112473547685918
1.823403025440772,7.486858754236081,-0.01877865655816033,0.1706287557850545,-1.468001605246037
1.8196780252379763,7.454083377333912,-0.018471345469799706,0.1571250132366517,-1.417605130767726
1.8160207112932656,7.423990380389839,-0.018101793977307525,0.14380495620409933,-1.3596003732426927
1.8124443118281108,7.3965414442181086,-0.017662200674239067,0.13068440551318558,-1.2935376113014476
1.8089637487555186,7.371695015656499,-0.017143430051683037,0.1177798801028954,-1.218996120226779
1.8055959483636133,7.349406235009511,-0.016534573867371727,0.10510792636698067,-1.1356159228210643
1.8023602624159867,7.329627039004375,-0.01582228560889315,0.09268403368436405,-1.0431439194729641
1.7992790588966323,7.312306533925497,-0.014989749584651586,0.08052101710440071,-0.9414983500692582
1.7963785778381798,7.297391750185046,-0.014015060999871015,0.06862682030009483,-0.8308540087188908
1.7936902064671307,7.284828874864708,-0.012868652710619039,0.057001932903291204,-0.7117451653532026
1.7912524270942995,7.274564962214946,-0.011509141017692584,0.045637193594339785,-0.5851703622515209
1.7891138809380123,7.266549852334496,-0.009876320545180648,0.034513905210172266,-0.45266051665980744
1.787338458442765,7.2607374268477365,-0.007877904407293218,0.023610349657405737,-0.31624341033572445
1.7860149329735204,7.257083961666531,-0.005357350285152146,0.012924302154636328,-0.17822293505001954
1.7852821222322492,7.2555361404032475,-0.001970757127561149,0.0025539104781986868,-0.04072984450208089
