x,y,v_x,v_y,omega
2.375,32.48,0.0,2.3076923076923075,-8.0
2.373572241898164,32.00035406868715,-0.013597696207963339,2.260364181001445,-7.582645098823358
2.3694636386643735,31.530472338732103,-0.025531858399563397,2.2146999138085603,-7.197323779963021
2.3630030973084093,31.070016606908514,-0.03599710689533309,2.1705927702256202,-6.840744348558059
2.354481333286108,30.618669986131074,-0.045162550459919834,2.1279464752737987,-6.510028271413741
2.344155822107006,30.17613485821825,-0.05317565124581231,2.0866737905626107,-6.202648954422134
2.332255010831998,29.742131100262455,-0.06016540851616846,2.046695332825914,-5.916381057168607
2.318981917938099,29.316394538671183,-0.0662449999971574,2.0079385870909663,-5.649258266325354
2.304517224249935,28.898675593946102,-0.07151398750916271,1.9703370769574255,-5.399537912437294
2.2890219377486747,28.48873808629598,-0.0760601696456977,1.9338296625675404,-5.165671163039553
2.272639699567996,28.086358177707456,-0.07996114636076848,1.8983599430374702,-4.946277789805365
2.2554987862909583,27.69132343047591,-0.08328564675387368,1.8638757448820091,-4.740124710593377
2.237713853981658,27.303431965689395,-0.08609466095374697,1.8303286816562458,-4.546107664571158
2.219387461639105,26.922491707959068,-0.08844240897533108,1.7976737729182874,-4.363235501413041
2.2006114055141537,26.548319704950284,-0.09037717316706234,1.7658691128796609,-4.190616662219737
2.181467890657256,26.180741512103637,-0.09194201594624883,1.7348755808979173,-4.027447506421794
2.1620305619175606,25.81959063443371,-0.09317540062228012,1.7046565873871116,-3.8730022000810926
2.1423654132026906,25.464708018522998,-0.09411172999552914,1.675177849857776,-3.726623930130857
2.122531590986758,25.115941588843288,-0.09478181491811198,1.6464071947108685,-3.5877172487996503
2.102582105707637,24.773145823378155,-0.09521328297828155,1.6183143811475607,-3.4557413847382445
2.0825644627336093,24.436181364221348,-0.09543093582198083,1.5908709441553481,-3.330204383741481
2.0625212229333907,24.104914659413012,-0.09545706227534023,1.5640500540192788,-3.2106579636174404
2.0424905014958123,23.779217632769225,-0.0953117133206427,1.5378263902072924,-3.0966929856298586
2.0225064124709764,23.458967378877603,-0.09501294405874824,1.5121760278081504,-2.9879354597545054
2.002599465507026,23.14404588078559,-0.0945770270264956,1.4870763349728886,-2.884043013321246
1.9828278074872339,22.834352241984266,-0.09372447792390486,1.4623868917064053,-2.777003170717677
1.9632429418046544,22.529789265033767,-0.09279805238637598,1.4382128887745405,-2.6750648060234865
1.9438593685345151,22.23025077151171,-0.091807407329235,1.4145346685783784,-2.5779219315203092
1.9246896631341235,21.935634606936873,-0.09076121553163885,1.3913335654676868,-2.485290454087714
1.9057446725923661,21.645842439268577,-0.08966726581843029,1.3685918408970175,-2.3969063534798885
1.8870336916723418,21.360779570472946,-0.0885325524675146,1.3462926238232946,-2.312524033356612
1.8685646213788654,21.080354760108914,-0.08736335508940425,1.3244198558341522,-2.231914826648974
1.8503441115372259,20.804480059988084,-0.08616531006906826,1.3029582405547102,-2.154865639026629
1.8323776891548331,20.533070659052058,-0.08494347452514829,1.2818931969312553,-2.081177716132977
1.8146698740490939,20.26604473769065,-0.08370238362475008,1.2612108160345263,-2.010665521908815
1.7972242830594714,20.00332333079531,-0.08244610199070035,1.2408978210639614,-1.943155716768517
1.7800437240161848,19.74483019890544,-0.0811782698501241,1.2209415302681093,-1.8784862256550983
1.7631302805097842,19.490491706862045,-0.07990214449654925,1.2013298225261386,-1.816505387106507
1.7464853883927036,19.240236709433837,-0.07862063757088421,1.1820511053615335,-1.7570711754364006
1.7301099048439017,18.993996443426752,-0.07733634860818375,1.1630942851821426,-1.7000504889865342
1.7140041707392157,18.751704425828706,-0.0760515952459685,1.1444487395611573,-1.6453184981601747
1.6981680669916628,18.51329635757866,-0.07476844044501164,1.1261042913916701,-1.5927580476098457
1.6826010654563541,18.278710032582364,-0.07348871703411763,1.1080511847635204,-1.5422591075395897
1.6673022749329158,18.047885251627527,-0.07221404985577208,1.0902800624254183,-1.4937182696015305
1.6522704827433619,17.82076374087851,-0.07094587575902733,1.0727819447080726,-1.4470382833272812
1.637504192314461,17.59728907465564,-0.06968546165907305,1.0555482097954205,-1.4021276294439229
1.6230016571500456,17.37740660222679,-0.06843392085917029,1.0385705752412389,-1.3589001267881853
1.6087609115398238,17.161063378359522,-0.06719222780960744,1.0218410806375382,-1.3172745698565584
1.594779798316544,16.9482080974009,-0.06596123145972543,1.0053520713493374,-1.2771743943180882
1.5810559939423037,16.73879103066925,-0.06474166734256266,0.9890961832377848,-1.2385273680747153
1.5675987868778,16.532930568205554,-0.06342220946223243,0.9714796497497984,-1.2325168960996082
1.5544145845177937,16.330756106668318,-0.06214162253783072,0.9539914125096061,-1.2290576418001449
1.5414952455230528,16.132241101366397,-0.06089970122160344,0.9366276856039327,-1.2280081239953142
1.5288326836061585,15.937359785423084,-0.05969612655834363,0.9193848471895373,-1.229231258087012
1.5164188903368323,15.746087136097863,-0.05853047600666803,0.9022594320982744,-1.2325940283766073
1.5042459559263504,15.55839884259942,-0.0574022326645886,0.8852481250297689,-1.237967173702331
1.4923060881520815,15.374271275269582,-0.056310793757018945,0.8683477543020276,-1.2452248850294863
1.4805916295715822,15.193681456023807,-0.05525547843821279,0.8515552861339292,-1.2542445136903921
1.469095073164999,15.01660702993886,-0.0542355349578182,0.8348678194369922,-1.2649062890264569
1.4578090765347307,14.843026237882775,-0.05325014723521365,0.8182825810971525,-1.2770930442313337
1.4467264747823143,14.67291789008587,-0.05229844088303741,0.8017969217305297,-1.2906899492321464
1.4358402921742788,14.506261340554627,-0.0513794887173023,0.785408311900351,-1.3055842494755718
1.4251437527012034,14.343036462232625,-0.050492315788175396,0.7691143387853706,-1.3216650095073974
1.4146302896273961,14.183223622814364,-0.04963590396237166,0.752912703293312,-1.3388228602481649
1.4042935541224075,14.026803661118876,-0.0488091960851375,0.7368012176160902,-1.3569497488737836
1.3941274230600373,13.873757863930361,-0.04801109974696151,0.7207778032269034,-1.3759386902085724
1.384126006065477,13.72406794321265,-0.04724049067742225,0.7048404893227315,-1.3956835185290482
1.3742836518868233,13.577716013603226,-0.046496215785945746,0.6889874117194092,-1.4160786386598603
1.3645949541632982,13.434684570090607,-0.045777095866674916,0.6732168122102876,-1.4370187752184618
1.3550547566591737,13.29495646577615,-0.045081927982129184,0.6575270384036086,-1.4583987188322942
1.3456581580295779,13.158514889617663,-0.04440948753783099,0.6419165440581641,-1.4801130681113006
1.3364005161820602,13.025343344047684,-0.04375853005757518,0.626383889941633,-1.5020559661093635
1.3272774522960331,12.895425622353478,-0.04312779266649228,0.6109277452412732,-1.5241208299507223
1.3182848545609707,12.768745785699089,-0.042515995286483255,0.5955468895624534,-1.5462000722315887
1.3094188816935648,12.645288139661556,-0.04192184154595321,0.580240215556923,-1.568184812733241
1.300675966293923,12.525037210143946,-0.04134401940301745,0.5650067322298371,-1.5899645789012475
1.2920528181013677,12.407977718516655,-0.040781201478461336,0.5498455689824504,-1.611426993456956
1.2835464272115038,12.294094555825598,-0.04023204509167237,0.5347559804561942,-1.6324574474132416
1.275154067317982,12.183372755891067,-0.03969519198948766,0.5197373522536397,-1.652938756668782
1.266873299044877,12.075797467104046,-0.03916926775436845,0.5047892076227457,-1.6727508002568452
1.2587019734388487,11.971353922707355,-0.038652880874472426,0.48991121520287756,-1.6917701382301753
1.2506382356943608,11.870027409326884,-0.038144621453982876,0.4751031979444638,-1.7098696070795047
1.242680529190266,11.771803233493184,-0.03764305953739631,0.46036514332886774,-1.7269178905186138
1.2348275999221305,11.676666685865388,-0.03714674301627524,0.44569721503110576,-1.7427790634366294
1.2270785014219037,11.58460300283766,-0.036654195081124115,0.43109976618535945,-1.7573121068364677
1.2194326002650742,11.49559732517288,-0.036163911174394,0.41657335443158905,-1.7703703916721765
1.2118895822755011,11.409634653268807,-0.035674355392967774,0.4021187589405561,-1.7818011297024448
1.2044494595498865,11.326699798618534,-0.035183956279553556,0.38773699963348063,-1.7914447898412678
1.197112578437689,11.246777330979846,-0.03469110193185106,0.3734293588302338,-1.7991344790769321
1.1898796286285533,11.16985152071734,-0.03419413434563275,0.35919740557457014,-1.8046952879401952
1.182751653518575,11.09590627572818,-0.03369134289225677,0.34504302289363115,-1.8079436018606005
1.175730062049678,11.02492507230835,-0.033180956811523825,0.3309684382475942,-1.8086863817346897
1.1688166422440271,10.956890879264552,-0.03266113657562637,0.3169762574076144,-1.8067204198885904
1.1620135766891648,10.891786074531282,-0.032129963946872155,0.30306950195687715,-1.8018315816926864
1.1553234602714668,10.829592353520464,-0.0315854305073953,0.2892516505271128,-1.79379404885296
1.1487493205085084,10.770290628422241,-0.031025424377922044,0.27552668374166445,-1.7823695885210935
1.1422946408993582,10.713860917705556,-0.030447714756843217,0.26189913260773084,-1.767306883746637
1.13596338780213,10.660282225158632,-0.029849933788187486,0.24837412974394885,-1.7483409767023321
1.1297600414700293,10.609532407995388,-0.02922955508896335,0.23495746228692638,-1.7251928982877351
1.1236896320452514,10.561588033881733,-0.02858386800415992,0.221655624509778,-1.697569588537212
1.1177577815467266,10.516424227273912,-0.027909946267504294,0.2084758669932724,-1.6651642549477328
1.1119707532268173,10.474014506306222,-0.02720460916020304,0.1954262374609132,-1.62765737468045
1.1063355101656933,10.434330612751321,-0.026464372374310898,0.18251560591908264,-1.584718627096807
1.1008597856999127,10.397342339485625,-0.025685384442647206,0.16975366327803218,-1.5360101520156924
1.095552169365622,10.363017362663655,-0.024863342550596957,0.15715087788358326,-1.4811916738829285
1.0904222136625483,10.331321089733933,-0.023993378431058445,0.14471838811376725,-1.419928219158217
1.0854805693936609,10.302216539840273,-0.023069900320251167,0.13246780134964573,-1.3519013846855783
1.0807391610274955,10.275664280317372,-0.022086369833706095,0.12041086077322051,-1.2768253746204197
1.0762114190846783,10.25162245191557,-0.02103498200264744,0.1085589335296468,-1.1944692640144525
1.0719125948615573,10.230046925369688,-0.01990620107469648,0.09692227166921837,-1.104687048611673
1.0678601951461681,10.210891640658271,-0.018688081929010055,0.08550901129666649,-1.0074567509001504
1.0640745928001716,10.194109182332507,-0.017365273747147886,0.07432392513917956,-0.9029287056582092
1.0605798961437005,10.17965162864267,-0.015917551552576875,0.06336706238309224,-0.7914804051690392
1.0574052020786313,10.167471659356188,-0.014317630019511252,0.05263264510722731,-0.6737700574806363
1.0545864313909974,10.157523786368206,-0.012527805100810797,0.04210900239737373,-0.5507729105446831
1.0521691035988516,10.14976533582394,-0.010494364348196323,0.0317810027861148,-0.4237750280867433
1.0502128490067453,10.144156362878583,-0.008136631767101464,0.021637787169677927,-0.2942938140264275
1.0488000271803075,10.140656599443872,-0.005318814198972982,0.011693293160888017,-0.16390080864395232
1.048059130221205,10.139212580752002,-0.001737347316289523,0.0020592658093145713,-0.03396270736333451
