x,y,v_x,v_y,omega
2.375,32.48,0.0,3.846153846153846,-8.0
2.373125302590157,31.796631874891073,-0.02082997122047795,3.746825321723092,-7.4301008160102135
2.3678056568386188,31.13072280380177,-0.03827720379661441,3.6521643570469298,-6.921547282422187
2.3596021571223367,30.481464959720032,-0.05287279305096355,3.561811688305725,-6.465814221039598
2.348988486748234,29.848111579956537,-0.06505687777240156,3.475448086844217,-6.055779976400521
2.336365732747326,29.22997031249742,-0.07519594445990592,3.3927882182570728,-5.68546184577826
2.3220744162361933,28.62639755843591,-0.08359646121934948,3.3135757157596744,-5.349807671392886
2.3064043208379608,28.036793617887888,-0.09051570987212135,3.237579179218406,-5.044530302229039
2.2896025659166854,27.46059849172539,-0.09617045591982873,3.1645888892538023,-4.765975113972859
2.271880270830377,26.897288224429055,-0.10074393392803861,3.0944140807054312,-4.51101325557437
2.253418080946307,26.346371697868996,-0.10439150922829891,3.02688065885079,-4.2769550833487875
2.234370768870058,25.807387804273493,-0.1072452916189082,2.961829269988153,-4.061479555917536
2.2148710803940412,25.279902940700403,-0.10941791367017079,2.8991136586017214,-3.862576335552918
2.19503296065356,24.763508778156506,-0.11100563900184067,2.838599258552705,-3.6784980694785996
2.174954269430099,24.257820266946574,-0.1120909301477268,2.780161977113185,-3.507720875059781
2.154719073669341,23.76247384647423,-0.11274457830513862,2.723687139246191,-3.3489114726093576
2.134399588762428,23.277125832994443,-0.11302747621612083,2.6690685660847877,-3.200899732321703
2.114057826985751,22.801450963052098,-0.11299209908029129,2.616207766607933,-3.062655651891016
2.0937470009631287,22.335141073768327,-0.11268374561550819,2.5650132254339217,-2.9332699764011405
2.0735127215387745,21.877903903933507,-0.1121415813217578,2.515399772730767,-2.8119378251627665
2.0533940225962866,21.42946200216656,-0.11139951803922407,2.467288024679765,-2.6979448110539583
2.033424239793024,20.98955173030675,-0.11048695755258077,2.420603884873644,-2.5906552338962268
2.0136317656402087,20.55792235179451,-0.10942942192314396,2.3752780985956874,-2.4895020059971777
1.9940406996430933,20.134335196133357,-0.10824908915591822,2.3312458531948943,-2.3939780294228763
1.974671409162264,19.718562891653086,-0.10696524951996164,2.288446418808116,-2.3036287940585654
1.9555410141396783,19.31038865975251,-0.10559469517543404,2.246822824531649,-2.2180460055685134
1.9366638067505508,18.909605664618226,-0.10415205359264923,2.2063215658492914,-2.1368620849104842
1.918051615314163,18.51601641311786,-0.10265007347832687,2.1668923397103064,-2.0597454076089936
1.899714120358452,18.12943220017118,-0.10109987047401633,2.1284878041416646,-1.9863961727302892
1.8816591295328235,17.74967259542614,-0.09951113869963343,2.0910633596921278,-1.9165428093662578
1.8638928170589604,17.376564967521876,-0.09789233323217889,2.0545769503552633,-1.8499388431653359
1.8464199325663462,17.0099440426175,-0.09625082779686862,2.0189888819155626,-1.7863601576357215
1.8292439834499898,16.649651494212712,-0.09459305127375903,1.9842616559154491,-1.7256025950610288
1.8123673942897454,16.295535561591063,-0.09292460606229042,1.9503598176584185,-1.6674798502890729
1.7957916463650596,15.94745069448524,-0.0912503708786604,1.9172498168506942,-1.6118216176852251
1.7795173998706708,15.605257221800585,-0.08957459017010534,1.8848998796454708,-1.558471957428833
1.7635446010751243,15.268821042443033,-0.08790095200263254,1.8532798909939763,-1.5072878522741897
1.747872576354563,14.93801333648392,-0.08623265600360465,1.822361286329498,-1.4581379300589248
1.732500114770436,14.612710295059745,-0.08457247270891886,1.7921169517168694,-1.4109013307550935
1.7174255406344194,14.292792867552858,-0.08292279546904105,1.7625211316929859,-1.3654666998303215
1.70264677731095,13.978146524730988,-0.08128568590284527,1.7335493441055658,-1.3217312922073297
1.6881614033423626,13.668661036641858,-0.07966291374812255,1.705178301329208,-1.2796001732535482
1.6739667018395514,13.364230264165126,-0.07805599183867093,1.6773858373011388,-1.2389855050590652
1.6600597039587703,13.064751963219269,-0.07646620683667438,1.650150839875039,-1.1998059078211443
1.6464372271798167,12.770127600706832,-0.07489464626280987,1.6234531880409382,-1.1619858874887936
1.6330959090098074,12.48026218135886,-0.07334222229284748,1.5972736936032041,-1.1254553219661556
1.6200322366580682,12.195064084709266,-0.07180969272647826,1.5715940469478287,-1.0901489991578743
1.6072425731594775,11.9144449114931,-0.07029767948008413,1.5463967665651193,-1.0560062009873794
1.594723180364479,11.63831933881998,-0.06880668490878872,1.521665152025086,-1.022970328250597
1.5824702391625958,11.36660498352596,-0.0673371062232479,1.497383240130692,-0.990988561800094
1.5704880455174701,11.099224792776244,-0.0657983787225925,1.4735077681995006,-0.9576391000617288
1.5587797136821693,10.836104256108204,-0.0642941972251942,1.450053750334284,-0.9256960034932193
1.5473390720434297,10.577168780050016,-0.06282404320524519,1.4270070947566795,-0.8950841905985469
1.5361600460643197,10.322346253877178,-0.06138735656264294,1.4043543071637223,-0.8657333467515628
1.5252366650675233,10.071566944952085,-0.05998354340176128,1.3820824586706362,-0.8375775729958942
1.5145630677076827,9.824763399649573,-0.05861198281869135,1.3601791558017386,-0.8105550641942382
1.5041335063004846,9.58187034951349,-0.057272032816841095,1.3386325123769471,-0.7846078137891865
1.4939423501559248,9.342824622315675,-0.05596303545604688,1.3174311231543283,-0.7596813427192093
1.4839840880454056,9.107565057712709,-0.05468432132749808,1.296564039100852,-0.7357244502833383
1.4742533299167313,8.876032427217961,-0.05343521343555185,1.2760207441741214,-0.7126889849702638
1.464744807957338,8.648169358226617,-0.05221503055770647,1.2557911335074772,-0.6905296334653201
1.4554533770940568,8.423920261849979,-0.05102309014541954,1.2358654928996002,-0.6692037262250952
1.446374015007084,8.203231264332423,-0.049858710820942766,1.2162344795176776,-0.6486710581666751
1.437501821726511,7.986050141840096,-0.04872121451875898,1.1968891037304188,-0.6288937231590579
1.4288320188715238,7.772326258424918,-0.04760992831442981,1.1778207119937798,-0.6098359611299482
1.4203599485851521,7.562010506980837,-0.046524185978590774,1.1590209707182535,-0.5914640167137013
1.412081072211035,7.355055253021508,-0.045463329289374285,1.1404818510520565,-0.5737460084670784
1.4039909687530554,7.151414281120065,-0.04442670913262345,1.122195614519538,-0.5566518077700313
1.3960853331536962,6.951042743862022,-0.043413686415811656,1.1041547994587158,-0.5401529266100937
1.3883599744226038,6.753897113172197,-0.04242363281854778,1.0863522082060215,-0.5242224135221261
1.3808108136429462,6.559935133885439,-0.041455931399871915,1.0687808949801791,-0.5088347570210427
1.3734338818797407,6.369115779439365,-0.04050997708018854,1.0514341544206518,-0.49396579592452206
1.3662253180112993,6.181399209574966,-0.03958517701360355,1.0343055107393249,-0.4795926360162618
1.3591813665022614,5.996746729938192,-0.03868095086459529,1.0173887074470536,-0.4656935725487121
1.3522983751343283,5.8151207534822085,-0.03779673100132777,1.0006776976194354,-0.4522480181279369
1.3455727927087255,5.636484763576281,-0.03693196261648101,0.9841666346686703,-0.43923643556281006
1.3390090636331788,5.461030753907039,-0.03599836044515016,0.9653223616562552,-0.4771928458356196
1.33260839133649,5.288959554292873,-0.035120220629171875,0.9465798562789379,-0.5163015347510963
1.3263609715684928,5.120253072058702,-0.03429555457079538,0.9279366129896264,-0.5564591947861901
1.3202573571389167,4.954893656484998,-0.03352238353560535,0.9093902267181866,-0.5975639044613142
1.3142884560077102,4.7928640809340095,-0.0327987401444665,0.8909383905150141,-0.6395148974634229
1.3084455291295018,4.6341475253670055,-0.03212266961340337,0.8725788935628009,-0.6822123326828303
1.3027201880963064,4.478727559186076,-0.031492230755433635,0.8543096195586265,-0.7255570641231455
1.2971043926202674,4.326588124333359,-0.030905496756109353,0.8361285454715652,-0.7694504096177376
1.2915904478963123,4.177713518579335,-0.030360555732280643,0.8180337406842627,-0.8137939172513109
1.2861710018830848,4.032088378930013,-0.029855511081358813,0.8000233665304446,-0.8584891283409404
1.2808390425394138,3.8896976650802983,-0.029388481626096617,0.7820956762441418,-0.9034373357766573
1.2755878950528814,3.7505266428376736,-0.028957601557597114,0.7642490153405974,-0.9485393364566428
1.2704112190967782,3.614560867436211,-0.028561020176883112,0.7464818224534449,-0.9936951764754619
1.2653030061518997,3.4817861666561924,-0.028196901432877054,0.728792630657886,-1.0388038876346035
1.2602575769302584,3.352188623658602,-0.027863423252025763,0.7111800693153514,-1.0837632137418438
1.2552695789388941,3.2257545594368757,-0.027558776652021017,0.6936428664815906,-1.128469325048509
1.2503339842235952,3.1024705147800624,-0.027281164629078005,0.6761798519274524,-1.1728165190403637
1.2454460873345283,2.982323231631902,-0.027028800804997633,0.6587899608298966,-1.2166969056473784
1.2406015035585747,2.865299633719193,-0.02679990781670862,0.6414722382002087,-1.2600000747687876
1.2357961674666311,2.751386806309732,-0.026592715427109722,0.6242258441271413,-1.3026127438215231
1.2310263318283334,2.64057197494504,-0.026405458331752434,0.6070500599249886,-1.3444183828113403
1.2262885669516719,2.5328424829756315,-0.02623637363115431,0.5899442952906664,-1.3852968141961877
1.2215797605108765,2.428185767706374,-0.026083697933237913,0.5729080965899751,-1.425123784560658
1.2168971179328831,2.3265893349362265,-0.02594566404446471,0.555941156411678,-1.4637705048497023
1.212238163420739,2.2280407316497524,-0.025820497201579508,0.5390433245491588,-1.5011031556217131
1.207600741701642,2.1325275165869044,-0.02570641078838596,0.522214620593596,-1.5369823534802889
1.2029830205980718,2.0400372283819657,-0.025601601473505275,0.505455248350166,-1.571262574538484
1.1983834945328637,1.9505573509216383,-0.02550424369547228,0.48876561232014415,-1.6037915304718804
1.1938009890933166,1.8640752755253729,-0.02541248341060782,0.47214633652723254,-1.6344094924470547
1.1892346667957638,1.7805782594973607,-0.025324431006643573,0.4555982860062357,-1.6629485579996481
1.184684034210796,1.7000533805383249,-0.02523815327077524,0.43912259131639086,-1.689231855825286
1.1801489506308385,1.6224874864357552,-0.025151664284308626,0.4227206764899435,-1.71307268350182
1.175629638486535,1.5478671393726309,-0.025062915096841113,0.4063942908781215,-1.7342735734772796
1.171126695746892,1.4761785541067205,-0.024969782010302997,0.3901455454097819,-1.7526252833719087
1.166641110571107,1.407407529175181,-0.024870053276195955,0.3739769538295444,-1.7679057079539424
1.1621742785183562,1.3415393701731055,-0.02476141397659008,0.35789147952683725,-1.7798787123457591
1.1577280226667752,1.278558804042035,-0.024641428818753162,0.34189258859617494,-1.7882928895173178
1.1533046170461578,1.2184498831892512,-0.02450752252144025,0.3259843097680806,-1.7928802505321542
1.1489068138529746,1.1611958781483764,-0.024356957402818864,0.3101713017971936,-1.793354864204348
1.144537874994821,1.1067791573987016,-0.024186807687775626,0.2944589287547491,-1.7894114750748926
1.1402016086098319,1.0551810529053505,-0.023993929923215005,0.2788533433936033,-1.7807241467699355
1.135902411333437,1.006381709957072,-0.023774928703394854,0.2633615782539469,-1.7669450045438617
1.1316453172534326,0.9603599200142163,-0.02352611662998747,0.24799164333335127,-1.747703190028247
1.1274360547259377,0.9170929356149067,-0.023243467008845223,0.2327526277701033,-1.722604198529486
1.1232811125536495,0.8765562670429041,-0.022922557127690497,0.21765480080770913,-1.6912298527252698
1.1191878175095222,0.8387234616176862,-0.02255849891816876,0.20270970391695278,-1.6531392877729207
1.1151644259145264,0.8035658683955091,-0.02214585213733993,0.18793022077388594,-1.607871497595006
1.111220233096832,0.7710523941622327,-0.02167851250370837,0.17333060404029516,-1.5549502417551304
1.1073657063171463,0.7411492614071484,-0.02114956282613203,0.15892642657174194,-1.493892463371719
1.1036126495442649,0.7138197862306725,-0.020551067983662238,0.14473440872244514,-1.4242218489941738
1.0999744129648623,0.689024204748339,-0.01987378289858792,0.13077205219236376,-1.3454897883515293
1.0964661673776073,0.6667195913545569,-0.019106723626468532,0.11705698551632923,-1.2573067380681835
1.093105275351214,0.646859931393962,-0.018236521111233236,0.1036059029347097,-1.159387709172218
1.089911809874405,0.6293964323960566,-0.01724642863109121,0.09043297481977838,-1.051615848274945
1.0869093013081659,0.6142781747036921,-0.016114777660453845,0.07754766620647625,-0.9341268496197754
1.0841258414057602,0.6014531951897197,-0.014812554588497145,0.06495210617097635,-0.8074122152207204
1.081595751730218,0.590870026798239,-0.013299552917528478,0.05263865373437045,-0.6724280367315433
1.0793621667734954,0.5824795092445285,-0.01151805771272092,0.040589319084630114,-0.53067514068539
1.0774812099047935,0.5762362216301469,-0.009381463050634625,0.02878054329739961,-0.38418870823831025
1.0760294739586977,0.5720978911351473,-0.006748936350428086,0.01720090664704919,-0.23535682433632463
1.075121243729369,0.5700180664012073,-0.0033425106421155456,0.0059082570633931086,-0.0865070244106354
