x,y,v_x,v_y,omega
2.375,32.48,0.0,2.4615384615384617,-7.63265306122449
2.3738132770069034,32.01697776388082,-0.012491820979965023,2.4123798134002388,-7.246649864079856
2.370394632811324,31.563140468017387,-0.023493907394556472,2.3648548798990396,-6.889164091137015
2.365011123938805,31.118186995488834,-0.03317460705301191,2.3188658835594325,-6.557377272535201
2.35789982899095,30.681833968215642,-0.04168112924019988,2.27432387721099,-6.248809922868892
2.3492715762910152,30.253814175020285,-0.049142583390687375,2.2311476301085698,-5.961273674215269
2.3393141420495893,29.833875194393876,-0.05567251388748359,2.1892626922746716,-5.692831217893841
2.3281950056490945,29.421778181294254,-0.06137102717035618,2.148600603510847,-5.441762600452584
2.31606373235645,29.017296793001574,-0.06632658643642947,2.1090982206226303,-5.206536724993096
2.303054040972436,28.620216233566182,-0.07061753339529422,2.0706971418551468,-4.985787143101366
2.289285603777535,28.230332399973094,-0.07431338444576543,2.0333432117563457,-4.778291403679541
2.274865618021089,27.8474511160238,-0.07747593930630088,1.9969860929730194,-4.582953366118293
2.259890181665166,27.471387442255303,-0.08016023286130947,1.9615788940638184,-4.398787996170336
2.244445500792106,27.1019650520966,-0.08241535527616656,1.9270778444488614,-4.224908250703031
2.2286089517540404,26.739015665996973,-0.0842851609139938,1.8934420092313922,-4.060513727518255
2.2124500175838824,26.38237853651788,-0.08580888298240999,1.860633037916978,-3.9048808126059673
2.1960311152459626,26.031899978417094,-0.087021667943057,1.8286149420913012,-3.757354102552929
2.179408327860675,25.687432938612865,-0.0879550413757623,1.7973538979532004,-3.617338916655291
2.1626320539969193,25.348836601630968,-0.08863731508482668,1.7668180702773049,-3.484294743348043
2.1457475844145706,25.015976026736,-0.08909394367673391,1.7369774549329005,-3.3577294902318946
2.1287956151973915,24.68872181345127,-0.08934783755673063,1.7078037375379114,-3.2371944273143054
2.111812704997474,24.366949792596273,-0.08941963823187317,1.6792701661988971,-3.122279729921909
2.094831683077316,24.05054074033082,-0.08932796092768419,1.651351436595369,-3.012610541746323
2.0778820139540506,23.739380113001687,-0.08908960879090398,1.6240235879218388,-2.907843490178329
2.0609901236970636,23.433357800849816,-0.08871976233527519,1.5972639084136262,-2.8076635958850464
2.0441796922846045,23.132367898861283,-0.08823214726955454,1.571050849360383,-2.7117815268268584
2.0274719158700583,22.836308493239272,-0.08763918340987856,1.5453639466607971,-2.6199311538664904
2.0108857423303226,22.545081462142182,-0.08695211700839191,1.520183749098055,-2.531867371011338
1.994438083055558,22.258592289478734,-0.08618113851544877,1.4954917526224294,-2.4473641483307795
1.9781556384225882,21.97675843021007,-0.08521301551581138,1.4711804502056756,-2.3618076018571026
1.9620612313932224,21.69950017051511,-0.08420179531961705,1.4473275465833875,-2.280043615677599
1.946162470018175,21.426731958880296,-0.0831535875756203,1.423916786414613,-2.2018597766771766
1.930465859213854,21.158371261207947,-0.08207389457512697,1.4009326627680345,-2.1270578409002323
1.9149769105498538,20.894338422838242,-0.0809676703090863,1.3783603727025122,-2.05545263515458
1.8997002413868118,20.634556538704338,-0.07983937351240733,1.3561857760754268,-1.9868710554870996
1.8846396644449632,20.37895133103391,-0.07869301534915703,1.334395357297504,-1.9211511529489793
1.869798268766789,20.1274510340614,-0.07753220231583545,1.3129761897815586,-1.8581412981201488
1.8551784929338377,19.879986285260642,-0.07636017487312308,1.2919159028579785,-1.797699416787185
1.8407821913063778,19.636490022648676,-0.07517984225803531,1.2712026509522192,-1.7396922899833378
1.826610693973533,19.396897387748467,-0.07399381387717244,1.2508250848394715,-1.6839949123178186
1.8126648610297096,19.16114563383183,-0.07280442763675884,1.2307723248093436,-1.6304899031564082
1.7989451317292855,18.929174039093972,-0.07161377552560004,1.2110339355891224,-1.5790669657774332
1.7854515690147903,18.700923824438625,-0.07042372673224462,1.1915999028882132,-1.5296223901253372
1.7721838998632702,18.47633807557755,-0.06923594854691363,1.1724606114388856,-1.4820585952263734
1.7591415518505087,18.255361669170988,-0.06805192527162969,1.1536068244196775,-1.4362837077241921
1.7463236862925946,18.037941202756123,-0.06687297533799073,1.1350296641578692,-1.392211173343217
1.7337292282884598,17.82402492822956,-0.06570026681079863,1.1167205940164786,-1.3497593983998715
1.7213568939549253,17.613562688666953,-0.06453483143693227,1.0986714013793626,-1.3088514187603932
1.709205215117112,17.406505858278656,-0.0633775773821551,1.0808741816553389,-1.2694145938930907
1.6972725616913547,17.20280728531466,-0.062229300783712325,1.0633213232288605,-1.2313803238858576
1.6855571619747307,17.002421237745295,-0.061090696233380745,1.0460054932907572,-1.1946837874995593
1.67405712103464,16.805303351556315,-0.059962366293891345,1.0289196244879746,-1.159263699507163
1.662770437373308,16.611410581508025,-0.058844830141179714,1.0120569023361523,-1.125062085729492
1.6516950180254155,16.42070115421847,-0.057738531415585964,0.9954107533433416,-1.092024074323272
1.6408380864010685,16.233352495761125,-0.05654495936701167,0.9766803883129463,-1.1053431792060007
1.6302036185828839,16.049551374675833,-0.05539680714019726,0.9580682546901126,-1.120556476108708
1.6197830862807623,15.869275629658247,-0.0542930065663447,0.9395711665476194,-1.1375363309634865
1.6095681696089301,15.692503691807076,-0.053232432084520394,0.9211860739910221,-1.1561579473314758
1.5995507674202818,15.519214559221915,-0.052213906743355375,0.9029100584843749,-1.1762990814461403
1.5897230065511168,15.349387772443169,-0.05123620766890985,0.8847403286603289,-1.197839763767511
1.5800772500742548,15.183003390643133,-0.050298071034899056,0.8666742166031977,-1.220662025860341
1.57060610465197,15.020041968479124,-0.04939819656810122,0.8487091745968941,-1.2446496314242095
1.5613024270742368,14.860484533520783,-0.048535251618562335,0.830842772333003,-1.2696878103102263
1.552159330062464,14.704312564164265,-0.0477078748211508,0.8130726945776962,-1.2956629943571443
1.5431701874141077,14.551507967945906,-0.046914679372073116,0.7953967392997656,-1.3224625538692816
1.5343286385593549,14.402053060167177,-0.04615425594111601,0.7778128162657929,-1.3499745335395203
1.5256285925973763,14.255930542741243,-0.04542517523760597,0.7603189461124354,-1.3780873865925907
1.5170642318764953,14.113123483169108,-0.04472599024535061,0.7429132599100513,-1.4066897058865637
1.5086300151799705,13.97361529355019,-0.04405523813912201,0.725593999236459,-1.4356699506636674
1.500320680576963,13.837389709528189,-0.04341144189253559,0.7083595167846076,-1.4649161675848463
1.4921312479966502,13.70443076906798,-0.04279311158444197,0.6912082775333902,-1.494315704615548
1.4840570215823534,13.574722790953206,-0.04219874540815595,0.674138860516845,-1.523754916252709
1.4760935918820068,13.448250352886909,-0.04162683038496631,0.6571499612336617,-1.5531188584945508
1.4682368379312998,13.32499826906881,-0.04107584278037065,0.6402403947463274,-1.5822909718554181
1.4604829292864236,13.204951567112793,-0.04054424821832565,0.6234090995275412,-1.6111527506175816
1.4528283280645642,13.0880954641562,-0.04003050148545743,0.6066551421208071,-1.6395833963910085
1.4452697910521541,12.974415341998935,-0.039533046013595814,0.5899777226925367,-1.6674594539214838
1.437804371943475,12.863896721094498,-0.039050313025133114,0.573376181564681,-1.6946544269486514
1.4304294237755442,12.756525233197,-0.03858072032150859,0.556850006830041,-1.7210383717711435
1.4231426016294013,12.652286592447268,-0.03812267069052156,0.5403988431671262,-1.7464774660299571
1.4159418656730065,12.551166564657542,-0.03767454990310683,0.5240225019878864,-1.7708335500796875
1.4088254846270765,12.453150934527045,-0.03723472426457957,0.5077209730699859,-1.7939636381889976
1.4017920397424297,12.358225470490066,-0.036801537679068484,0.4914944378455892,-1.8157193967096967
1.3948404293859347,12.266375886863347,-0.036373308178776285,0.4753432845409272,-1.8359465862964233
1.387969874342092,12.177587802920375,-0.035948323861671835,0.45926812538509204,-1.8544844652723764
1.3811799239488918,12.091846698476225,-0.035524838172014024,0.44326981613228245,-1.8711651513577763
1.3744704632000426,12.009137865517651,-0.03510106444744985,0.4273494781684797,-1.8858129392587535
1.3678417209613618,11.929446355359126,-0.03467516964392816,0.41150852350020944,-1.8982435721281685
1.3612942794673843,11.852756920746558,-0.03424526713478277,0.395748682947866,-1.908263465758691
1.3548290852856626,11.779053952267322,-0.03380940846228826,0.38007203788620847,-1.9156688856955608
1.3484474619614681,11.70832140835899,-0.03336557389765273,0.364481055885694,-1.9202450794624155
1.3421511245856643,11.64054273814251,-0.03291166163712475,0.34897863060358386,-1.921765369059455
1.3359421965647456,11.57570079624207,-0.03244547542517887,0.3335681262431333,-1.9199902132131346
1.3298232289164014,11.513777748700353,-0.03196471034686609,0.3182534268275775,-1.9146662550834248
1.3237972224693046,11.454754969063668,-0.031466936464677575,0.30303899040069365,-1.9055253800445358
1.3178676534163767,11.398612923712317,-0.030949579881931862,0.28792990803457574,-1.8922838208370607
1.3120385027628736,11.3453310455698,-0.030409900681259486,0.27293196714981327,-1.8746413653708092
1.3063142903338887,11.294887595474513,-0.02984496699226535,0.25805171806372634,-1.8522807478735868
1.3007001141749728,11.247259510789522,-0.029251624154218718,0.24329654177827226,-1.8248673399034299
1.295201696417201,11.202422241333075,-0.028626457506537237,0.228674715658022,-1.7920493080700775
1.2898254370193092,11.160349573540618,-0.027965746681798354,0.21419547163100122,-1.753458475721329
1.2845784772991262,11.12101344506862,-0.027265408267496696,0.19986903860055874,-1.7087122237437111
1.2794687759097096,11.084383754030927,-0.026520922147414555,0.18570665653304358,-1.6574169004335961
1.2745052010352702,11.050428170002899,-0.025727234425633006,0.17172054376200335,-1.5991733932377188
1.2696976442849328,11.019111958200632,-0.024878626104235115,0.15792379099869414,-1.5335857571330087
1.2650571643684003,10.990397834268819,-0.02396853091189665,0.14433014512567238,-1.4602741016385976
1.2605961726362775,10.964245875299024,-0.022989276794659938,0.13095363350373845,-1.3788933003021369
1.2563286786979941,10.940613523216612,-0.021931712029375716,0.11780796736374768,-1.2891594502448611
1.2522706236863048,10.919455728925833,-0.020784656514721556,0.10490565674973278,-1.1908862301685446
1.2484403429139201,10.90072529717295,-0.019534088457748476,0.09225678275429974,-1.084033057808321
1.2448592210063962,10.88437349676536,-0.01816193162145005,0.07986743206246472,-0.968765596365685
1.2415526348483785,10.870350985372419,-0.016644238462947932,0.06773795102112794,-0.8455256412493241
1.2385513304283025,10.858609038233983,-0.014948439643115093,0.055861492541370586,-0.7151003686748085
1.2358934696088237,10.849100925960936,-0.013029042667188115,0.04422389980648331,-0.578669588644042
1.2336277814381316,10.841782996632727,-0.010820306497992736,0.032806935227286366,-0.4377961772592571
1.2318188249300293,10.836614448338743,-0.008221340955716926,0.021598836288342926,-0.29431704225848654
1.2305575556992752,10.833553308214363,-0.005055177262747072,0.010623691336728459,-0.1501014869038478
1.2299937585328813,10.832538161312378,-0.0008795297519244225,6.206552624836784e-05,-0.006728694743814795
