x,y,v_x,v_y,omega
2.375,32.48,0.0,2.717948717948718,-7.020408163265306
2.373762426608038,31.969034695252006,-0.013027088336440798,2.660633437293293,-6.634812143158562
2.3702083424351645,31.468764279534746,-0.024384324009595972,2.60537093867785,-6.280465109982567
2.3646356527978116,30.978810826185708,-0.03427556690990888,2.552033833417311,-5.954019693308784
2.3573061331339114,30.498819499323563,-0.04287727165746233,2.500506449342088,-5.652560299415835
2.348450240879074,30.02845647052775,-0.0503426468145068,2.450683327455965,-5.373538399399938
2.338271205245138,29.567407097617792,-0.05680509670061175,2.4024679663330417,-5.114718905025502
2.3269485178338547,29.115374323082122,-0.062381086576056545,2.3557717656213732,-4.874135482626781
2.3146409232427243,28.672077257920332,-0.0671725406989977,2.310513130818547,-4.650053122608149
2.301488990245703,28.23724992307565,-0.07126885926964914,2.266616709651765,-4.440936636654742
2.2876173294848834,27.810640125679527,-0.07474862242319003,2.224012736623252,-4.245424026457228
2.2731365119606046,27.39200845132885,-0.0776810357271115,2.1826364670680993,-4.062303877830257
2.2581447332702016,26.981127356808567,-0.08012716101397095,2.142427685776952,-3.8904960979027132
2.242729261007172,26.577780350237923,-0.0821409680705505,2.1033302781245813,-3.7290354417701095
2.2269676966061303,26.18176124769439,-0.08377023615094288,2.065291853912605,-3.5770573768742593
2.210929077909845,25.79287349705975,-0.08505732907311317,2.028263415925669,-3.4337859145522427
2.194674844616317,25.410929561217515,-0.08603986349034036,1.9921990666241922,-3.29852310328703
2.178259685360482,25.035750353872345,-0.08675128657108114,1.9570557475354942,-3.170639930689254
2.1617322823593,24.667164722208458,-0.08722137659925468,1.9227930068212196,-3.049568423811462
2.1451359671924415,24.305008971392624,-0.08747667778872845,1.8893727912401723,-2.9347947720957146
2.128509299317616,23.949126426588585,-0.08754087878838526,1.8567592593287001,-2.8258533256738114
2.111886577261214,23.599367028706524,-0.08743514285795094,1.8249186131140465,-2.722321345118309
2.0952982910262494,23.255586960582928,-0.08717839645746582,1.7938189460816762,-2.6238143980567843
2.0787715230760373,22.917648300687155,-0.08678758196581804,1.763430105452797,-2.5299823140817175
2.062330304247499,22.585418701794,-0.08627787938721666,1.733723567106705,-2.4405056227257127
2.045995930092869,22.258771092355946,-0.08566290118783584,1.7046723217149333,-2.355092410415258
2.029787242418719,21.937583398562374,-0.0849548638032179,1.676250770848982,-2.273475541658045
2.0137208801666335,21.62173828529291,-0.08416473885031228,1.6484346319874872,-2.1954101975753755
1.9978115032441053,21.31112291436279,-0.08330238664998572,1.6212008514874718,-2.1206716915186425
1.9820719924535501,21.00562871862477,-0.08237667430322608,1.5945275247022233,-2.0490535271157335
1.9665136282703997,20.70515119063781,-0.08139558025625203,1.5683938225289127,-1.9803656688498141
1.9511462508784485,20.409589684740823,-0.0803662870274457,1.5427799237551847,-1.9144329993188889
1.9359784035740548,20.11884723148252,-0.07929526354511934,1.5176669526479776,-1.851093940774735
1.921017461393681,19.83283036345825,-0.07818833835355245,1.4930369212917012,-1.7901992214891427
1.906280961795842,19.55145463267749,-0.07693271004475116,1.4688128764005353,-1.727757554605076
1.8917837074564163,19.274638462072822,-0.07566996721236123,1.4450415510169963,-1.6680724453890179
1.877526750950016,19.00229733886867,-0.07440325917080193,1.4217071142899094,-1.6109902132162475
1.8635105808868542,18.734349690561956,-0.07313537307300627,1.3987944468334064,-1.5563673719412259
1.8497351871687315,18.470716753615086,-0.07186877132828356,1.3762890999757362,-1.5040698451866548
1.8362001195098427,18.211322449623893,-0.07060562508107303,1.35417725782629,-1.4539722501923726
1.822904539929404,17.956093268447034,-0.06934784418670424,1.3324457019301357,-1.4059572435282583
1.8098472698451147,17.704958157825047,-0.06809710406897039,1.3110817783012962,-1.3599149226977199
1.797026832327615,17.457848419055097,-0.06685486979944705,1.2900733666455515,-1.3157422782954389
1.7844414900152445,17.21469760832168,-0.06562241769919047,1.2694088516009936,-1.2733426919457527
1.7720892791345677,16.975441443314764,-0.06440085472898727,1.2490770958401811,-1.2326254757458386
1.7599680400244277,16.740017714795233,-0.06319113590406608,1.2290674148917253,-1.1935054493788517
1.7480754445189965,16.508366202793106,-0.061994079942577995,1.2093695535516966,-1.1559025514533983
1.736409020507747,16.280428597147875,-0.06081038333373395,1.189973663766537,-1.1197414819732987
1.7249661739569113,16.056148422121517,-0.059640632990849984,1.1708702838793268,-1.0849513731508031
1.713744208647328,15.835470964834641,-0.05848531763634288,1.1520503191404288,-1.0514654860518506
1.70274034385716,15.618343207294078,-0.05734483804963701,1.1335050233918218,-1.0192209308076363
1.6919517301944458,15.404713761796874,-0.05621951629472329,1.115225981841925,-0.9881584083461425
1.6813754637634521,15.194532809510712,-0.05510960403152546,1.0972050948545105,-0.9582219717934544
1.6710085988300698,14.987752042044793,-0.05401529000407765,1.0794345626814572,-0.9293588058702912
1.6608481591347628,14.78432460583796,-0.05293670678862756,1.0619068710747,-0.9015190227665758
1.650891147986623,14.58420504920267,-0.051873936876000296,1.0446147777178079,-0.8746554731180796
1.6411345572587013,14.387349271874363,-0.05082701815475691,1.0275512994222693,-0.8487235708360359
1.6315753753927988,14.19371447692566,-0.04979594885474405,1.0107097000377774,-0.823681130654685
1.6222105945111749,14.003259124914251,-0.04878069200445546,0.9940834790296699,-0.7994882173643969
1.613045859539737,13.81615490106299,-0.047690202431731867,0.975434666773091,-0.8204925129212527
1.604083669136106,13.632583147489637,-0.04664864392227878,0.9568995813674598,-0.8431980794127548
1.5953148528188508,13.452522542728623,-0.04565468573303789,0.9384752055905907,-0.8674857155962041
1.5867304965612021,13.275952326715313,-0.04470695908431844,0.920158647181113,-0.8932387078857928
1.5783219495619785,13.102852277436472,-0.04380406196013967,0.9019471347014264,-0.9203425648687439
1.5700808301482032,12.93320268832477,-0.042944563448021146,0.8838380138428297,-0.9486847570485779
1.561999030893956,12.766984346314114,-0.04212700764931839,0.8658287441640627,-0.9781544606995026
1.5540687230344012,12.604178510474057,-0.0413499171880992,0.8479168962576106,-1.0086423047218716
1.5462823602488904,12.444766891142162,-0.04061179634359372,0.8301001493412858,-1.0400401193863487
1.5386326818825506,12.288731629473531,-0.039911133828404666,0.8123762892758902,-1.0722406858436946
1.5311127156718207,12.136055277326069,-0.039246405231908935,0.794743207013188,-1.1051374852577405
1.523715780035958,11.986720777399022,-0.038616075145594536,0.7771988974820581,-1.1386244463908242
1.5164354859936053,11.840711443540393,-0.038018598984432696,0.7597414589245745,-1.1725956904333608
1.509265738761087,11.698010941136253,-0.037452424515759766,0.7423690926979536,-1.2069452718218454
1.5022007390871615,11.558603267491474,-0.03691599310451111,0.7250801035628693,-1.2415669137319192
1.4952349843775394,11.422472732107057,-0.03640774068098303,0.7078729004836383,-1.2763537368645954
1.4883632696615618,11.289603936753839,-0.03592609843457018,0.6907459979713065,-1.3111979800637132
1.4815806884530378,11.159981755235918,-0.03546949323410489,0.6736980180068087,-1.3459907112104992
1.4748826335574123,11.033591312729389,-0.03503634777247846,0.6567276925882296,-1.3806215267361541
1.4682647978781656,10.910417964572886,-0.03462508043011756,0.6398338669538928,-1.4149782379750295
1.461723175276689,10.790447274375808,-0.034234104848582296,0.6230155035416604,-1.4489465424487677
1.4552540615418834,10.673664991297663,-0.03386182920200321,0.6062716867546014,-1.4824096780254963
1.4488540555284208,10.560057026337624,-0.03350665515023564,0.5896016286142399,-1.515248057737908
1.4425200605260728,10.449609427456735,-0.03316697645342666,0.5730046753951102,-1.5473388828704977
1.4362492859268026,10.34230835333609,-0.032841177223102966,0.5564803153485225,-1.5785557317408654
1.4300392492615241,10.238140045552228,-0.03252762977982786,0.5400281876394977,-1.6087681214055687
1.4238877786846635,10.137090798925772,-0.032224692081862585,0.5236480926389816,-1.6378410393220397
1.4177930159920007,10.039146929770347,-0.031930704683008446,0.5073400037339226,-1.6656344418016067
1.41175342026589,9.94429474173575,-0.031643987170790526,0.4911040808407985,-1.6920027159054054
1.4057677722519824,9.852520488901657,-0.03136283402823807,0.474940685833862,-1.716794101280741
1.399835179583212,9.763810335735297,-0.031085509853553867,0.4588504001278226,-1.7398500683334266
1.3939550829802596,9.678150313478003,-0.03081024386173613,0.44283404468580323,-1.7610046491151845
1.388127263573252,9.595526272470948,-0.03053522358044688,0.4268927027568866,-1.7800837174223174
1.382351851507429,9.515923829869195,-0.030258587638744526,0.4110277456826427,-1.7969042149210084
1.3766293360162831,9.439328312125344,-0.029978417531211783,0.3952408621473524,-1.811273320733278
1.3709605771698417,9.365724691549758,-0.029692728220801785,0.3795340912798537,-1.82298756297435
1.3653468195339302,9.295097516174163,-0.029399457420370582,0.3639098600422148,-1.8318318724236604
1.3597897080094292,9.227430832061362,-0.029096453363850815,0.3483710253557036,-1.8375785811173828
1.3542913061599602,9.162708097118777,-0.02878146084108531,0.33292092140833845,-1.8399863725669672
1.3488541173839637,9.100912085393098,-0.0284521052220365,0.31756341254619,-1.838799196100136
1.343481109345414,9.042024780756403,-0.02810587413111802,0.30230295205059216,-1.8337451662908897
1.3381757421504183,8.986027258854914,-0.02774009634252089,0.2871446469124509,-1.824535480736386
1.3329420008506059,8.9328995562018,-0.02735191733971641,0.2720943283834987,-1.8108634071780618
1.3277844329776713,8.882620525389132,-0.026938270796435994,0.2571586275393065,-1.7924034164652716
1.3227081919808084,8.83516767562179,-0.0264958449600173,0.24234505422218944,-1.7688105744009124
1.3177190876721525,8.790516998213963,-0.026021042499518258,0.22766207638651878,-1.7397203577106224
1.3128236451195883,8.748642777449493,-0.02550993173799911,0.2131191948184133,-1.7047491336843172
1.3080291739165422,8.709517388454529,-0.024958186188802644,0.1987270051285923,-1.6634956482799155
1.3033438504925432,8.673111085700302,-0.0243610077480284,0.18449723438958104,-1.6155440153857172
1.2987768172463987,8.63939178877424,-0.023713026421913145,0.17044273325319517,-1.5604689052644471
1.2943383040088416,8.608324876570329,-0.023008165552371167,0.15657739520903624,-1.4978439095701983
1.2900397800274048,8.579873007607745,-0.02223945530485822,0.1429159622918557,-1.4272544278016437
1.2858941488703384,8.55399599339026,-0.021398767401104028,0.12947366105009492,-1.3483168751812842
1.2819160052351792,8.530650764000086,-0.02047642875846481,0.11626559568858419,-1.2607065118241447
1.2781219829456272,8.509791480188145,-0.019460647973662096,0.1033058128581744,-1.1641965931394653
1.2745312394160953,8.491369861835924,-0.01833665233720012,0.09060595927046107,-1.0587114825673565
1.2711661465346542,8.475335812189368,-0.017085377993757228,0.07817351069328934,-0.9443950922479902
1.2680532960047521,8.461638405443804,-0.01568146968942226,0.06600971820738298,-0.8216921592598369
1.2652249879438817,8.450227242129774,-0.014090194109213049,0.05410779036134464,-0.69143148851882
1.2627214796978596,8.44105401106933,-0.012262524269966988,0.04245253659070848,-0.5548859441621652
1.2605945121341378,8.434073746890622,-0.010126607979736605,0.031023928448335014,-0.4137658444573413
1.2589133421073002,8.429244562329202,-0.007569918618553063,0.01980959325080848,-0.2700906690916749
1.2577773925069333,8.426522707306045,-0.0043874455958341505,0.008841512256100716,-0.12589540829445342
