x,y,v_x,v_y,omega
2.375,32.48,0.0,3.5384615384615383,-7.26530612244898
2.3730640811462527,31.78163092677967,-0.019359188537472025,3.4452291937417208,-6.736590364547196
2.36757728722292,31.101461075207496,-0.03550875069585728,3.3564693219800352,-6.266017075335067
2.3591301080047367,30.438631011093616,-0.048963041485975065,3.2718313191587636,-5.84533930035597
2.348219146656058,29.792347450409274,-0.06014657200081528,3.1910042876846667,-5.467694652605053
2.3352633470993465,29.1618759360264,-0.06941142356629632,3.1137108561440483,-5.1273394063039275
2.320617114366141,28.546534626528793,-0.07705090376575835,3.0397022388320227,-4.819440037407811
2.3045809892049167,27.94568897905026,-0.08331034784648612,2.9687542359533223,-4.539908388662702
2.2874103816763043,27.35874715970335,-0.08839572743963524,2.900663957515786,-4.28527031286182
2.269322753090377,26.78515605282137,-0.09248055841963647,2.8352471113040107,-4.052560251328493
2.2505035494580166,26.224397768095763,-0.09571147790397205,2.772335735952066,-3.839236076068807
2.231111124485884,25.675986565571243,-0.09821277181735075,2.7117762892931245,-3.6431098873838086
2.211280840387336,25.139466134306588,-0.10009006916812961,2.65342802335342,-3.4622914639823663
2.1911284964206694,24.614407172677048,-0.10143337049853485,2.597161592941982,-3.2951418119708578
2.1707532052442398,24.100405227744673,-0.10231954126576336,2.5428578563817554,-3.140234823218392
2.1502398138204213,23.597078758541553,-0.10281437297242284,2.490406835649471,-2.996325482130222
2.1296609471817796,23.10406739399432,-0.10297429341399446,2.439706809822845,-2.8623233880919146
2.1090787387591283,22.62103036092931,-0.10284779081251776,2.3906635208272533,-2.7372706141620484
2.0885462993108095,22.14764506140407,-0.10247660367066931,2.3431894744251274,-2.6203231194614167
2.068108967140242,21.683605781713048,-0.10189671803500205,2.2972033224851334,-2.5107350867034404
2.047805374751494,21.228622517963267,-0.10113920585247922,2.252629315012656,-2.4078456774985852
2.0276683609908153,20.78241990522489,-0.1002309317543109,2.209396812371087,-2.311067793973096
2.0077257527615857,20.344736239018932,-0.0991951505379845,2.167439849688513,-2.2198785115445965
1.9880010363515481,19.91532257937892,-0.09805201356239114,2.126696746711607,-2.1338109087039294
1.9685139350945664,19.49394192896755,-0.09681899900742638,2.087109757402096,-2.0524470686592675
1.949280907362556,19.080368477785335,-0.09551127831267646,2.0486247544200498,-1.9754120672406308
1.9303155766341782,18.674386907909334,-0.09414202897110271,2.011190944339966,-1.9023687935031324
1.9116291035258164,18.275791752472408,-0.0927227021125145,1.9747606100292943,-1.833013475533204
1.8932305081256455,17.884386803758744,-0.09126325188919394,1.9392888771073353,-1.7670718052490866
1.8751269496857172,17.499984565866697,-0.08977233251008936,1.9047335018131464,-1.7042955734349647
1.857323969653585,17.12240574788955,-0.08825746781123357,1.871054677958307,-1.6444597405999044
1.8398257031265368,16.751478794000185,-0.08672519745924848,1.838214860935333,-1.5873598810975544
1.8226350630575485,16.387039447206234,-0.08518120323063294,1.8061786070041854,-1.532809947750064
1.805753900907798,16.028930343876322,-0.08363041826687184,1.7749124262949536,-1.4806403123656557
1.7891831469057085,15.6770006364318,-0.0820771217540259,1.7443846481502823,-1.4306960443256846
1.7729229326204026,15.331105641857643,-0.08052502109903277,1.7145652975912604,-1.3828353950871815
1.7569726981744755,14.991106513915593,-0.07897732336023633,1.6854259818292523,-1.3369284611977714
1.7413312860958614,14.656869937145991,-0.07743679742590615,1.6569397858667614,-1.2928560024113713
1.7259970235319764,14.328267840925758,-0.07590582821294303,1.6290811763355841,-1.2505083948554125
1.7109677943135402,14.005177132010953,-0.07438646397141849,1.6018259128124719,-1.2097847020399748
1.6962411021540797,13.68747944413639,-0.07288045762318583,1.5751509659331573,-1.1705918489033247
1.6818141260987916,13.375060903373424,-0.07138930292969484,1.5490344416964903,-1.1328438861286882
1.6676837691886868,13.067811908062485,-0.06991426617135389,1.5234555114129045,-1.0964613337027134
1.6538467011790492,12.765626922240532,-0.0684564139250221,1.4983943468066203,-1.0613705941659066
1.6403148510154533,12.468407416976643,-0.066862087710936,1.473800705832271,-1.0231317020826103
1.6270983788762623,12.176058351888308,-0.0653026336809749,1.449689945051068,-0.9866438157531376
1.614190330176771,11.888484882736027,-0.06377785331393601,1.4260447464717592,-0.9518059631122094
1.6015837995218312,11.605595549176442,-0.062287453235465425,1.4028485891240863,-0.9185241008561733
1.5892719481846078,11.327302119977922,-0.06083106013676536,1.3800857028611155,-0.8867105633666826
1.5772480187931355,11.05351944715619,-0.059408233777959646,1.3577410253561852,-0.8562835613169779
1.5655053475835818,10.784165328416872,-0.05801847831757534,1.3358001620370004,-0.8271667249644642
1.5540373745339964,10.51916037734086,-0.056661252178281864,1.3142493487231024,-0.7992886876866797
1.5428376516529725,10.25842790079313,-0.05533597663195542,1.2930754167541874,-0.7725827058043184
1.5318998496634066,10.001893783076131,-0.05404204326370308,1.2722657604158147,-0.7469863111634343
1.5212177632916188,9.749486376385931,-0.0527788204541736,1.2518083064861925,-0.722440993326818
1.5107853153460153,9.501136397162995,-0.05154565900186354,1.2316914857431582,-0.6988919085582611
1.5005965597466464,9.256776827960241,-0.05034189699182439,1.2119042062843899,-0.6762876130785901
1.490645683647077,9.016342824479157,-0.04916686400387068,1.1924358285264403,-0.6545798183337753
1.4809270087725093,8.779771627450558,-0.04801988474180733,1.1732761417595445,-0.6337231662472744
1.471434992082818,8.547002479060062,-0.046900282155103695,1.1544153421454235,-0.6136750226346754
1.4621642258557435,8.317976543640057,-0.04580738011564091,1.1358440120546194,-0.5943952871417995
1.4531094372737319,8.09263683236976,-0.04474050570447642,1.1175531006483477,-0.5758462182304432
1.4442654875875984,7.870928131743174,-0.0436989911568568,1.0995339056175217,-0.5579922718812709
1.435627370921129,7.652796935581563,-0.042682175507839294,1.081778055998584,-0.5407999528130746
1.4271902127727705,7.4381913803824915,-0.04168940597574456,1.0642774959921286,-0.5242376771335389
1.4189492682635798,7.227061183811671,-0.040720039116161864,1.0470244697160924,-0.5082756454403421
1.4108999201744354,7.019357586157007,-0.03977344177528258,1.0300115068305609,-0.49288572548431464
1.4030376768101194,6.815033294576345,-0.03884899186787625,1.0132314089760714,-0.47804134358965894
1.3953581697231134,6.61404242998157,-0.03794607900218449,0.9966772369716896,-0.4637173841009993
1.3878650916653668,6.416515976915967,-0.036984701575282754,0.9785872936843217,-0.48508815433705993
1.3805594430344428,6.222596100986575,-0.03607178473395598,0.96061146560961,-0.5082516360547937
1.373431648242513,6.0322602903903935,-0.03520616318534114,0.9427466403522214,-0.533092969979524
1.3664723692610679,5.84548664340495,-0.034386626629110253,0.9249898295022205,-0.559500090873379
1.3596725140721488,5.662253844063766,-0.0336119252600807,0.9073381639096086,-0.5873634719294166
1.3530232440698566,5.482541138734387,-0.032880774762840834,0.8897888893841989,-0.6165758759128143
1.346515980510087,5.306328313515277,-0.03219186083485622,0.8723393628068933,-0.6470321120000957
1.3401424100994859,5.133595672370468,-0.031543843271155225,0.8549870486411932,-0.6786287972854157
1.3338944898083192,4.964324015922696,-0.03093535964051232,0.8377295158365365,-0.7112641219334016
1.3277644509862652,4.798494620827256,-0.030365028580028427,0.8205644351178445,-0.7448376169609228
1.3217448028550498,4.6360892196496195,-0.029831452732124487,0.8034895766585193,-0.7792499236252897
1.315828335447318,4.47708998117006,-0.029333221345193616,0.7865028081370868,-0.8144025633835846
1.3100081220571511,4.321479491038275,-0.028868912556474266,0.7696020931807747,-0.8501977073667922
1.3042775212641948,4.169240732699937,-0.028437095373087924,0.7527854902025927,-0.8865379442827663
1.2986301785904255,4.020357068515477,-0.028036331364605437,0.7360511516419916,-0.923326045623379
1.2930600278461708,3.874812220988982,-0.02766517607794091,0.7193973236229664,-0.9604647270028863
1.2875612922200972,3.7325902540219253,-0.027322180182795287,0.7028223460476041,-0.9978564043959891
1.282128485166492,3.5936755541024006,-0.02700589035325549,0.6863246531476286,-1.0354029439745203
1.2767564111423195,3.4580528113354845,-0.026714849888470418,0.6699027745215248,-1.0730054041603445
1.2714401662462185,3.325707000214287,-0.0264475990725407,0.6535553366904465,-1.1105637684180176
1.2661751388118803,3.1966233600240024,-0.026202675270841053,0.6372810652124015,-1.1479766672030554
1.2609570100091056,3.070787374762631,-0.025978612756905495,0.621078787401299,-1.1851410873593247
1.2557817545073444,2.9481847524519544,-0.025773942260705854,0.6049474357054618,-1.2219520671210704
1.2506456412587141,2.828801403700478,-0.025587190225597904,0.588886051809298,-1.25830237472052
1.2455452344604196,2.712623419366331,-0.025416877757347498,0.5728937915321753,-1.2940821684300468
1.2404773947602423,2.599637047152079,-0.025261519244424664,0.5569699306103358,-1.329178635678015
1.2354392807733894,2.4898286669449305,-0.025119620624104402,0.5411138714611441,-1.363475608669621
1.2304283509846021,2.3831847646943807,-0.02498967726376706,0.5253251510443425,-1.3968531537189584
1.2254423661161187,2.279691904594692,-0.02487017142106749,0.5096034499525423,-1.4291871312579871
1.2204793920499872,2.179336699311115,-0.024759569240247133,0.4939486028832177,-1.4603487232355328
1.2155378034024937,2.0821057779560626,-0.02465631723468797,0.47836061066729574,-1.4902039243608682
1.2106162878592526,1.987985751483798,-0.024558838197724375,0.4628396540553492,-1.518612993391349
1.2057138513920216,1.8969631751290947,-0.024465526474585483,0.4473861094916979,-1.545429860426751
1.200829824492768,1.8090245074659634,-0.024374742517951437,0.43200056713961327,-1.5705014859766122
1.1959638695771988,1.7241560656062624,-0.02428480663774039,0.4166838514574024,-1.5936671674439744
1.1911159897292143,1.6423439759939953,-0.024193991842104315,0.4014370446652681,-1.6147577886677957
1.1862865389799226,1.5635741201788704,-0.024100515650811387,0.38626151348597976,-1.633595008357348
1.181476234340471,1.487832074871534,-0.024002530743704415,0.37115893958736834,-1.6499903837370886
1.1766861698375994,1.4151030454928666,-0.023898114285011072,0.35613135419930847,-1.6637444266470645
1.17191783283531,1.3453717923310933,-0.023785255737883683,0.34118117741841664,-1.674645590924273
1.1671731229664115,1.2786225483148534,-0.023661842951101443,0.32631126274398287,-1.6824691924306643
1.1624543740453994,1.2148389273005833,-0.023525646259020563,0.31152494739873315,-1.6869762670349502
1.1577643793911985,1.1540038216644852,-0.023374300282989775,0.29682610896224476,-1.6879123778347593
1.1531064210577078,1.0960992878923719,-0.023205283051917297,0.282219228758897,-1.6850063918422937
1.148484303556259,1.0411064187906085,-0.023015891962569153,0.2677094622587424,-1.6779692595791569
1.1439023927637741,0.9890052009235788,-0.022803215962279164,0.25330271641155255,-1.666492850455286
1.1393656608540284,0.9397743559569136,-0.022564103135179068,0.2390057332550936,-1.6502489252183716
1.134879738283436,0.8933911648125488,-0.022295122570744997,0.2248261781885458,-1.6288883681551427
1.1304509741333602,0.8498312740149281,-0.021992518930012073,0.2107727297876761,-1.6020408618451694
1.126086506500216,0.8090684844685256,-0.021652157401431088,0.1968551656763619,-1.5693152742723782
1.1217943452007764,0.7710745243657264,-0.02126945559296342,0.18308443535164232,-1.5303011534037512
1.1175834699341196,0.7358188102886345,-0.020839297073603057,0.1694727054192811,-1.4845719034637037
1.113463948394739,0.7032682042779541,-0.020355918320202122,0.15603335468751756,-1.4316904700869255
1.1094470809593275,0.6733867802983475,-0.01981275603391318,0.14278088510855463,-1.3712187115987486
1.105545581954061,0.6461356219009069,-0.019202234018752956,0.12973069886583963,-1.3027321015772706
1.1017738129277965,0.6214726848176326,-0.01851545624389091,0.11689867196689013,-1.2258419949421075
1.098148092051284,0.5993527743261069,-0.017741752521233264,0.10430043294837092,-1.140228336817838
1.0946871176826705,0.5797277069989271,-0.01686799116490252,0.09195024032340973,-1.0456861898909044
1.0914125662960428,0.562546746330689,-0.01587752270137541,0.07985936635895846,-0.9421892629619302
1.0883499600360549,0.5477574110764749,-0.014748539898503422,0.06803398618318957,-0.829971583179496
1.085529955034763,0.5353067292579503,-0.013451510114415305,0.056472832002066306,-0.7096224859880429
1.0829902953037664,0.5251429011553661,-0.011945087195551474,0.04516544902377569,-0.5821774184408078
1.080778859382569,0.5172170581004529,-0.010169272016424315,0.034092981525367085,-0.4491663572637672
1.0789586912968236,0.5114842174104908,-0.00803240884102776,0.023235425374248362,-0.3125587218874255
1.0776175407049113,0.507901202128032,-0.0053790970780950315,0.012594727450345431,-0.17453647310268564
1.0768931790272895,0.5064139762959918,-0.0018645196981231164,0.0022775308700595555,-0.03707052313196327
