x,y,v_x,v_y,omega
2.375,32.48,0.0,3.7948717948717947,-5.183673469387755
2.373491961633223,31.731534513147142,-0.015080383667773662,3.689783073656752,-4.781622219337742
2.3692348672173886,31.003559017811305,-0.027490560490567396,3.589971879701632,-4.4268006097600265
2.3627171138100995,30.295059706936616,-0.03768697358232281,3.495021229045253,-4.1121025030177805
2.35434424812457,29.605101619752737,-0.04604168327297395,3.4045596427935068,-3.831677362047525
2.344454133168506,28.93282019918687,-0.05285946628766746,3.318254562865173,-3.580678988538822
2.3333290744687787,28.27741404404705,-0.05839112070960234,3.235806988533043,-3.3550701378144625
2.3212055727875858,27.638138639600434,-0.06284389610232605,3.156947055933115,-3.151469358813776
2.3082822106312104,27.014300898337474,-0.06638972546142653,3.081430356696485,-2.9670300437689257
2.294726061822708,26.405254378295457,-0.06917176262359917,3.0090348437236645,-2.7993442585569803
2.2806779251906035,25.81039507301572,-0.07130960369744743,2.939558209073714,-2.6463657881731493
2.2662566168606433,25.2291576875406,-0.07290347960215299,2.872815645677495,-2.5063481899573254
2.251562504983199,24.66101233055125,-0.07403763917228859,2.8086379242159545,-2.3777946475093032
2.236680431884645,24.10546156501752,-0.07478309181325275,2.746869731121355,-2.259417161982647
2.221682138633674,23.56203776943664,-0.0751998406964608,2.68736822468748,-2.1501031752821897
2.206628283698236,23.030300769497934,-0.07533870865791821,2.63000177469956,-2.0488881414466045
2.1915701291385736,22.509835706277336,-0.07524283693870212,2.5746488575064395,-1.9549328837455544
2.1765509534481002,22.00025111217207,-0.07494891996603324,2.5211970835462036,-1.8675048214087708
2.1616072388249563,21.501177169982046,-0.07448822626540616,2.469542338354017,-1.7859623401011904
2.1467696716590883,21.012264134018334,-0.07388744539327205,2.4195880212831096,-1.7097417279722997
2.1320639878398686,20.53318089501554,-0.07316939279892463,2.371244368744829,-1.638346214485922
2.117511688735075,20.063613673054927,-0.07235359824901237,2.324427850861303,-1.5713367398462241
2.103130649061116,19.603264824755833,-0.07145679849057882,2.2790606321296396,-1.5083241543599344
2.088935634122617,19.15185175273292,-0.07049335089441162,2.235070088099477,-1.4489626038098908
2.0749387408646616,18.709105906800247,-0.06947558168514396,2.1923883712272807,-1.3929439021290637
2.0611497747105845,18.274771867673692,-0.06841407985562535,2.150952020038258,-1.3399927288573505
2.0475765721402635,17.848606505016157,-0.06731794584758581,2.1107016065371,-1.289862517959239
2.034225277309958,17.430378202613355,-0.06619500245546955,2.0715814174909304,-1.2423319280664569
2.021100579654889,17.019866144285775,-0.06505197409521964,2.033539165784859,-1.1972018032421665
2.008205918294173,16.61685965485321,-0.06389463951193827,1.996525728540766,-1.1542925488450215
1.9955436581299417,16.221157591088318,-0.06272796213037618,1.9604949091081605,-1.113441859710868
1.983115241762785,15.832567778138092,-0.061556201541188155,1.9254032203940945,-1.0745027482251366
1.9709213207053664,15.450906487367991,-0.06038300903300072,1.8912096873069235,-1.0373418283716815
1.9589618688419597,15.075997952001885,-0.059211509601064236,1.8578756663541263,-1.0018378188648052
1.9472362806350476,14.70767391730007,-0.05804437246805715,1.825364680664015,-0.9678802342802713
1.9357434562056595,14.345773222343631,-0.05688387182582455,1.7936422689003806,-0.9353682379222295
1.9244818750994872,13.990141410782346,-0.055731939235896824,1.7626758467124581,-0.9042096341761
1.9134496602857556,13.64063036815972,-0.05459020890142041,1.7324345795138052,-0.8743199814476798
1.9026446337120682,13.297097983656744,-0.05346005683545381,1.7028892655159398,-0.8456218095933682
1.8920643645491424,12.959407834299299,-0.05234263479380262,1.6740122280585232,-0.8180439281007295
1.8817062110988332,12.627428889855473,-0.0512388997092908,1.6457772163797433,-0.7915208132601319
1.871567357202485,12.301035236811472,-0.05014963925419169,1.6181593140602646,-0.7659920642402641
1.8616448438705784,11.98010581996012,-0.04907549406487419,1.5911348544532684,-0.7414019193947807
1.8519355967556301,11.664524200266484,-0.048016977084607594,1.564681342483096,-0.7176988253267833
1.8424364500057204,11.354178327792475,-0.046974490414489145,1.53877738225701,-0.6948350522573836
1.8331441669636102,11.048960328567812,-0.04594834000661324,1.5134026099896116,-0.6727663501132191
1.8240554581143247,10.748766304390013,-0.04493874848624187,1.4885376317883703,-0.6514516404894982
1.8151768668751538,10.453497416166154,-0.04384716390546685,1.4641512504502363,-0.6280954020930867
1.8065138935875744,10.16305835355281,-0.042782568970328144,1.4402393756832004,-0.605801635048215
1.7980611869502565,9.877355902712463,-0.04174449740284951,1.4167851327202725,-0.5845094715256935
1.7898134922520783,9.596300148027417,-0.040732449578932614,1.393772414130186,-0.5641621920222882
1.7817656573300598,9.319804323015092,-0.03974589964125162,1.3711858359930567,-0.5447068977249871
1.773912637203615,9.047784669710765,-0.03878430162319929,1.3490106970501958,-0.5260942122019235
1.7662494975699494,8.780160305946357,-0.037847094713453586,1.3272329405939,-0.5082780094925466
1.758771417321252,8.516853099998567,-0.036933707773519925,1.305839118883995,-0.4912151659913733
1.7514736902233237,8.257787552120494,-0.03604356320576381,1.2848163598967457,-0.47486533380286017
1.7443517258770835,8.002890682507946,-0.035176080256638834,1.2641523362287304,-0.45919073349458905
1.737401050068545,7.752091925285715,-0.03433067782874598,1.2438352359935991,-0.4441559643963618
1.730617304599092,7.505323028130007,-0.03350677686578439,1.2238537355634733,-0.4297278307876517
1.7239962466758976,7.262517957171735,-0.032703802366161216,1.2041969740192635,-0.41587518248836713
1.7175337479318973,7.023612806851258,-0.03192118507383943,1.1848545291855184,-0.40256876852081186
1.711225793135637,6.788545714419136,-0.031158362888764946,1.1658163951356946,-0.3897811026464848
1.7050684786433807,6.55725677879926,-0.030414782033796384,1.1470729610630603,-0.3774863397020294
1.699058010638966,6.329687983550862,-0.0296898980103513,1.1286149914209245,-0.3656601617660372
1.6931907032008424,6.105783123684411,-0.028983176370884763,1.1104336072435856,-0.35427967328410953
1.6874629762304791,5.885487736103411,-0.028294093332747988,1.0925202685664177,-0.34332330436496034
1.681871353271718,5.668749033459779,-0.027622136254865107,1.0748667578698983,-0.33277072153661374
1.676412459246636,5.455515841224965,-0.026966803995954282,1.0574651644782278,-0.32260274531995153
1.6710830181299754,5.245738537792292,-0.026327607170652724,1.0403078698485093,-0.3128012740379348
1.6658798505811263,5.039368997438306,-0.025704068317838367,1.023387533691335,-0.3033492133335566
1.660799871549979,4.836360535982365,-0.02509572199363492,1.0066970808680769,-0.29423041091869967
1.6558400878706148,4.63666785899413,-0.02450211480000805,0.9902296890142622,-0.2854295961201891
1.6510027299600525,4.440422019590546,-0.023871464305613127,0.9722287050215693,-0.31184533288740546
1.6462874090703659,4.2477653228834775,-0.023281744591253498,0.9543382620491191,-0.3398922732903687
1.6416860305285468,4.058675957537645,-0.0227320408269389,0.9365553914092107,-0.369462809531047
1.6371906877123052,3.873132694463557,-0.022221387335475382,0.9188772393316704,-0.4004517549038606
1.6327936716605262,3.6911148642524445,-0.021748773182316286,0.9013010627794404,-0.4327561095584819
1.6284874796159772,3.512602335409621,-0.021313147263173484,0.8838242256488015,-0.46627483140447273
1.624264822597218,3.337575493310389,-0.020913422924417134,0.8664441953435219,-0.5009086112083851
1.6201186320899772,3.1660152198045637,-0.020548482147992268,0.8491585397147492,-0.5365596509405377
1.6160420659422328,2.9979028733969884,-0.02021717932945117,0.831964924361006,-0.5731314444282557
1.6120285135418162,2.8332202699323616,-0.01991834467471632,0.8148611102852626,-0.6105285593647696
1.608071600350512,2.671949663712958,-0.019650787238324106,0.7978449519087596,-0.6486564197079348
1.6041651918643667,2.5140737289776744,-0.01941329762313027,0.7809143954440808,-0.6874210874801377
1.6003033970661775,2.359575541669969,-0.01920465035875855,0.7640674776329793,-0.7267290429497613
1.5964805714329597,2.2084385614209054,-0.019023605973419483,0.7473023248576669,-0.7664869621348764
1.5926913195585088,2.060646613671363,-0.018868912771090263,0.7306171526377517,-0.8066014905208009
1.5889304974490597,1.916183871854706,-0.01873930832340229,0.7140102655288023,-0.8469790118240901
1.585193214548429,1.7750348395575557,-0.018633520682901826,0.6974800574426889,-0.8875254105655924
1.5814748355479789,1.637184332571838,-0.018550269321600657,0.6810250124144858,-0.9281458271334617
1.5777709820362302,1.5026174607457996,-0.018488265795885535,0.6646437058458875,-0.9687444039224412
1.5740775340430546,1.3713196095351208,-0.018446214135871684,0.6483348062609025,-1.0092240210271515
1.5703906315340546,1.2432764211474172,-0.018422810954128482,0.6320970776161396,-1.0494860198432847
1.5667066759121084,1.118473775164258,-0.018416745265331814,0.6159293822154407,-1.0894299127901814
1.563022331585099,0.9968977685140068,-0.01842669800476025,0.5998306842870667,-1.1289530772098673
1.5593345276616632,0.878534694656171,-0.01845134122959879,0.5838000542913061,-1.1679504313198514
1.555640459840435,0.7633710218232999,-0.018489336982684963,0.5678366740374207,-1.206314089898541
1.55193759256281,0.6513933701494068,-0.01853933579356176,0.5519398427015175,-1.2439329971618749
1.5482236615048124,0.5425884874941076,-0.018599974786414616,0.5361089838514876,-1.2806925340470139
1.544496676490313,0.43694322374877004,-0.018669875358580612,0.5203436536018725,-1.316474096853538
1.540754924915782,0.3344445033845105,-0.018747640386729533,0.5046435500407469,-1.351154643905555
1.5369969757860673,0.23507929597115407,-0.01883185091041716,0.48900852409278867,-1.3846062065919555
1.5332216844715885,0.13883458436107077,-0.018921062234371334,0.47343859200805294,-1.4166953608217152
1.5294281983100073,0.04569733019076949,-0.01901379938144049,0.4579339496949714,-1.4472826546051862
1.5256159631901198,-0.044345563693646284,-0.01910855181743377,0.44249498914917923,-1.4762219871545452
1.5217847312726867,-0.13130729433529353,-0.019203767356897345,0.42712231726728417,-1.5033599346084945
1.5179345700225029,-0.2152012037997153,-0.019297845144940692,0.4118167773769017,-1.5285350172606678
1.514065872748587,-0.29604082892353034,-0.01938912759421956,0.3965794738612284,-1.5515769030569548
1.5101793708753974,-0.3738399563404329,-0.01947589113767392,0.38141180030779337,-1.5723055421966943
1.506276148198026,-0.44861268353779593,-0.019556335636041918,0.3663154716658531,-1.5905302280330902
1.5023576574090476,-0.5203734867996985,-0.01962857225374338,0.35129256095318534,-1.6060485802755622
1.4984257392250395,-0.5891372970057347,-0.01969060958633644,0.33634554110714515,-1.6186454479792585
1.4944826444878292,-0.6549195843784972,-0.019740337785766424,0.3214773326204965,-1.6280917322976152
1.4905310596708938,-0.7177364534034822,-0.01977551038358675,0.30669135762936794,-1.6341431329583187
1.486574136287191,-0.7776047492776215,-0.019793723453441815,0.29199160111199124,-1.6365388286101847
1.4826155247742072,-0.8345421773674389,-0.01979239167639443,0.2773826797861626,-1.6350001106138772
1.4786594135299054,-0.8885674372579615,-0.019768720766626217,0.2628699191190881,-1.6292290040275006
1.4747105738967194,-0.9397003730219637,-0.01971967556523049,0.24845943852094676,-1.6189069306851906
1.4707744120510882,-0.9879621412924422,-0.01964194289108297,0.2341582441838145,-1.6036935006261885
1.466857028971114,-1.0333753985107066,-0.019531887908657262,0.21997432799881078,-1.5832255644423312
1.4629652899538081,-1.0759645082412774,-0.019385502264402475,0.2059167693069182,-1.5571167272698498
1.4591069055832346,-1.1157557685289774,-0.019198341441332863,0.1919958335700832,-1.5249576251128212
1.45529052668969,-1.152777657674676,-0.018965447494113417,0.17822305788688111,-1.4863174101126162
1.4515258568169809,-1.1870610941541955,-0.018681251232978795,0.16461130690833922,-1.4407471028889938
1.4478237872450266,-1.2186397021625197,-0.01833944448656285,0.15117477317493297,-1.387785773062621
1.4441965620569044,-1.2475500676831146,-0.01793280739466053,0.13792888203103468,-1.326970934519219
1.4406579846893637,-1.2738319600848484,-0.01745296628074804,0.12489004198628947,-1.2578551189813543
1.4372236838493597,-1.2975284799379025,-0.01689004211929004,0.1120751565442778,-1.1800313253919261
1.4339114672271418,-1.3186860742114845,-0.016232124102889035,0.0995007861915113,-1.0931708593568468
1.4307418086812247,-1.3373543359257454,-0.015464461356281656,0.08718183095106469,-0.9970776961978041
1.4277385426263054,-1.3535854815476895,-0.014568199192910112,0.07512962526838596,-0.8917631823788126
1.4249298848266372,-1.3674333907193983,-0.013518378803772936,0.06334946644871081,-0.7775420114277589
1.4223499734151908,-1.3789521340148099,-0.012280735310691793,0.05183796650541832,-0.6551420499298872
1.4200412548528394,-1.3881940741331604,-0.010806450312822053,0.04058143467806332,-0.5258030120375163
1.4180583144224577,-1.395208023706104,-0.009022953990994753,0.029558061051398143,-0.39131131515930206
1.4164745308543827,-1.400038808303485,-0.006814881689756172,0.018749784922440275,-0.2538912086862358
1.4153961130274526,-1.4027318574904513,-0.003969296579542817,0.008180706947200963,-0.11587254117997528
