x,y,v_x,v_y,omega
2.375,32.48,0.0,3.6923076923076925,-3.224489795918368
2.374260815215644,31.823619324368238,-0.008213164270624412,3.600810925822951,-3.003663335752755
2.372160482368755,31.183349593824836,-0.015123867361469659,3.5132971913259845,-2.8055991639806797
2.3689155806380353,30.55849825014582,-0.020930596313198477,3.429495516218607,-2.6272731564483403
2.3647099042498008,29.948419282888715,-0.025799141333851028,3.349159675527005,-2.4661339429653415
2.3596998174657697,29.35250903538569,-0.029868489599825222,3.2720652967288557,-2.3200192568628233
2.354018652967467,28.770202493826616,-0.03325556038131779,3.198007387260847,-2.187088691992046
2.347780339960942,28.200969990137683,-0.03605902858007112,3.1267982092828466,-2.0657693463073445
2.3410824089691067,27.644314261494955,-0.038362426884767487,3.058265442303021,-1.9547116503764526
2.3340084898938107,27.09976781891487,-0.040236673951851785,2.992250586364613,-1.8527532930324835
2.326630396317239,26.566890585045513,-0.041742143565614204,2.9286075677393435,-1.7588896200931057
2.3190098705514117,26.045267767489115,-0.042930364943574176,2.86720151622062,-1.6722492349654705
2.3112000494299587,25.53450793904641,-0.043845425294796764,2.807907688698342,-1.592073800376324
2.30324669936387,25.034241300433532,-0.04452513099507392,2.7506105181113956,-1.5177012490329853
2.2951892600698827,24.544118104468037,-0.04500197227145473,2.695202770394125,-1.4485517728598547
2.2870617291071014,24.0638072235947,-0.045303927315005106,2.6415847948651408,-1.3841160867558042
2.278893413527068,23.592994845034475,-0.04545513468536248,2.5896638558040346,-1.3239455619185492
2.270709570248664,23.131383279876598,-0.045476457296907705,2.5393535348390595,-1.2676439019404893
2.2625319529751704,22.67868987416282,-0.045385956853020784,2.490573195314036,-1.2148600968236
2.2543792803921643,22.23464601148711,-0.04519929406926667,2.4432475010827086,-1.1652824393817391
2.2462676378775117,21.798996197897587,-0.044930067204651876,2.3973059832453556,-1.1186334279441663
2.238210822905338,21.371497220974252,-0.04459009915282993,2.3526826492361295,-1.0746654109559652
2.2302206426451017,20.951917375895,-0.04418968151646811,2.3093156294222457,-1.0331568546214158
2.2223071708739255,20.540035752115827,-0.04373778260771069,2.2671468570129827,-0.9939091354227492
2.2144789701788614,20.135641574999067,-0.04324222511522377,2.2261217776177156,-0.9567437761583246
2.2067432844806483,19.738533597340606,-0.04270983819825353,2.186189085254089,-0.9215000578565675
2.199106206125798,19.348519536287455,-0.04214658796675042,2.147300482003103,-0.8880329511455881
2.191572821140355,18.965415551610853,-0.04155768964928305,2.109410458848038,-0.8562113198760568
2.1841473356930496,18.589045761717053,-0.04094770420966525,2.0724760955275356,-0.8259163573899067
2.1768331863587504,18.219241794145738,-0.04032062172699145,2.0364568774870424,-0.7970402221052011
2.1696331363897126,17.855842367630924,-0.03967993348454157,2.0013145282331166,-0.7694848442924067
2.1625493598795047,17.498692903087125,-0.03902869440665722,1.9670128555868602,-0.743160880245471
2.1555835154324012,17.147645161139305,-0.038369577227826565,1.9335176105000231,-0.7179867936605768
2.1487368107209885,16.802556904042373,-0.037704919565646866,1.9007963572436781,-0.6938880470539475
2.142010059119836,16.46329158003875,-0.037036764891600786,1.868818353907686,-0.6707963885812109
2.1354037294375767,16.129718028383483,-0.03636689824461814,1.837554442261943,-0.6486492217488666
2.1289179896289085,15.801710203428232,-0.0356968774072498,1.806976946129725,-0.6273890473020997
2.1225527452479542,15.47914691630056,-0.03502806015890742,1.7770595775110891,-0.6069629680888506
2.1163076733017996,15.161911592845097,-0.03436162813170161,1.7477773497718216,-0.5873222489838548
2.110182252075217,14.849892046610247,-0.03369860771921272,1.719106497282076,-0.5684219250463509
2.104175787422256,14.542980265769376,-0.03303988842480225,1.691024400949817,-0.5502204520127063
2.098287435955647,14.241072212960539,-0.032386238981959026,1.6635095191483698,-0.5326793940162791
2.0925162255092893,13.944067637114475,-0.03173832153313271,1.6365413235856523,-0.5157631441029955
2.0868610732010238,13.651869896418251,-0.031096704114258314,1.6101002397057271,-0.4994386736902704
2.0813208013814615,13.364385791632074,-0.03046187165865454,1.5841675912517852,-0.48367530761399796
2.075894151718706,13.081525409040545,-0.029834235705298508,1.5587255486541074,-0.46844452183586455
2.0705797976377585,12.803201972377309,-0.02921414297189654,1.5337570809374024,-0.45371976125165336
2.0653763553064017,12.529331703114678,-0.0286018829320644,1.5092459108696148,-0.43947627535930556
2.060282393335916,12.259833688557485,-0.027997694517778025,1.485176473099182,-0.4256909698206613
2.0552995513105126,11.994630211371888,-0.02736721687559603,1.4615288289630033,-0.41143650770416745
2.050428970931989,11.733646151512005,-0.026750342885771106,1.4382940583690305,-0.39777924423646777
2.045668218195457,11.476808422296703,-0.02614690974236531,1.415458488467657,-0.3846875032805071
2.041014890318329,11.224046346725345,-0.02555673333683288,1.3930090178807468,-0.37213160556079433
2.036466619252852,10.975291557325193,-0.02497961183513701,1.3709330865653941,-0.36008372263308286
2.03202107459483,10.730477901253789,-0.02441532880954937,1.3492186475613095,-0.34851774296280513
2.0276759659639008,10.489541350329596,-0.023863655978554034,1.3278541404852882,-0.3374091489918617
2.023429044921676,10.25241991568765,-0.023324355601722992,1.3068284666474472,-0.32673490418757706
2.0192781064861567,10.019053566778709,-0.022797182570714093,1.2861309656741076,-0.3164733491691522
2.0152209902938627,9.789384154450207,-0.02228188623255205,1.2657513935314628,-0.30660410609728816
2.0112555814550035,9.56335533786564,-0.021778211976991948,1.2456799018526108,-0.29710799059316384
2.007379811141639,9.340912515035868,-0.021285902615949693,1.2259070184782064,-0.28796693052477423
2.0035916569440357,9.12200275675131,-0.020804699579643333,1.2064236291279962,-0.27916389106279377
1.999889143026263,8.90657474371837,-0.020334343951161366,1.1872209601268933,-0.270682805465501
1.9962703401083841,8.694578706716591,-0.019874577358605764,1.1682905621150914,-0.26250851110366885
1.9927333652993564,8.485966369605297,-0.019425142741702484,1.1496242946770574,-0.2546266902823639
1.989276381801902,8.280690895019738,-0.018985785007790607,1.1312143118291353,-0.24702381545790847
1.9858975985080685,8.078706832607217,-0.018556251590358532,1.1130530483099708,-0.23968709848536826
1.9825952695019777,7.879970069663333,-0.018136292921761867,1.0951332066220747,-0.23260444356529433
1.9793676934842825,7.684437784037453,-0.01772566283040654,1.077447744776613,-0.22576440358848351
1.9762132131311119,7.492068399184831,-0.017324118871489935,1.0599898646969728,-0.21915613960458466
1.973130214398737,7.30282154125052,-0.01693142259934235,1.0427530012398345,-0.21276938316478677
1.9701171257838328,7.116657998077347,-0.016547339788483974,1.0257308117954138,-0.20659440131086268
1.9671724175479968,6.933539680036951,-0.016171640609693734,1.0089171664312224,-0.20062196400275678
1.9642946009141247,6.753429582588982,-0.015804099766662767,0.9923061385461895,-0.1948433137949201
1.9614853271221375,6.576509876157058,-0.01541005347763824,0.9734683773640744,-0.23723335248319918
1.9587432050522477,6.402971933077673,-0.015057969521137431,0.9547309901846456,-0.28069843327702354
1.956060806408262,6.232797908382619,-0.014746459856480603,0.9360915064270535,-0.3251417299737369
1.95343095391098,6.065970393339278,-0.01447412344665518,0.9175475496100574,-0.37046760967583175
1.9508467234042766,5.902472398711559,-0.01423954885004764,0.899096835142358,-0.41658142215775323
1.948301445522224,5.742287338388831,-0.014041316506091396,0.8807371684435062,-0.46338928927750783
1.9457887069708577,5.585399013323098,-0.013878000731312559,0.8624664433979872,-0.5107978934905186
1.9433023514754568,5.431791595713975,-0.013748171439807576,0.8442826411478319,-0.5587142644905226
1.9408364804418954,5.281449613379785,-0.01365039559976433,0.8261838292320445,-0.6070455629612207
1.9383854533787472,5.134357934251312,-0.01358323843521656,0.808168161084327,-0.6556988603722078
1.935943888125398,4.9905017509223555,-0.013545264379774744,0.7902338759040722,-0.7045809136926741
1.9335066609304263,4.84986656518824,-0.01353503778657718,0.7723792989194386,-0.7535979338255743
1.9310689064239832,4.7124381724995885,-0.013551123396123594,0.7546028420655948,-0.802655346482416
1.9286260175278458,4.5782026462541445,-0.013592086560958028,0.7369030051059977,-0.8516575441233543
1.9261736453472604,4.44714632184391,-0.01365649322332311,0.7192783772299385,-0.900507627477616
1.9237076990896627,4.319255780368305,-0.013742909638875608,0.7017276391656652,-0.9491071350339743
1.9212243460568976,4.194517831916418,-0.013849901836290555,0.6842495658552875,-0.9973557587484562
1.9187200117597178,4.072919498312345,-0.013976034799040743,0.6668430297455304,-1.0451510440549963
1.9161913802061452,3.954447995207083,-0.014119871351766435,0.6495070047573969,-1.0923880720824732
1.9136353944188413,3.839090713388188,-0.014279970729386858,0.6322405710081186,-1.138959121776602
1.911049257240982,3.7268351991640998,-0.014454886802382454,0.6150429203706363,-1.1847533093955318
1.9084304324953902,3.6176691336634867,-0.014643165926418128,0.5979133629695194,-1.2296562025918996
1.9057766465679389,3.511580310870709,-0.01484334437859556,0.5808513347280074,-1.2735494060098729
1.9030858904936236,3.4085566141962715,-0.015053945336017461,0.5638564060990748,-1.316310115012295
1.9003564226323406,3.308585991355251,-0.015273475344904568,0.5469282921344701,-1.357810633810103
1.8975867720314907,3.211656427296848,-0.015500420220096641,0.5300668640700109,-1.3979178538948418
1.8947757425842102,3.1177559148935323,-0.015733240305240915,0.5132721626335063,-1.4364926882785445
1.891922418105555,3.0268724230582507,-0.015970365013150484,0.4965444133140613,-1.4733894566300096
1.8890261684645568,2.938993861911797,-0.016210186553496164,0.4798840438687515,-1.5084552159739701
1.8860866569280579,2.8541080445689317,-0.016451052740935612,0.46329170438528955,-1.5415290312085175
1.8831038488929115,2.7722026450501502,-0.01669125876069129,0.44676829026783377,-1.572441179325902
1.8800780222069398,2.6932651517549395,-0.016929037750105458,0.43031496856785445,-1.6010122809377143
1.8770097793064264,2.6172828158509596,-0.017162550033375107,0.41393320814301693,-1.6270523525759082
1.8739000614294503,2.5442425938406394,-0.01738987082191731,0.3976248141938599,-1.6503597733684285
1.870750165200731,2.4741310834612626,-0.01760897616385125,0.3813919677992064,-1.6707201602242028
1.867561761925721,2.4069344519563955,-0.017817726891816585,0.36523727114377746,-1.6879051468314035
1.8643369199805087,2.342638355625464,-0.018013850277208483,0.34916379919992024,-1.7016710639061159
1.8610781307411894,2.2812278494162435,-0.018194919048561332,0.3331751586802945,-1.7117575217133645
1.8577883385636378,2.222687285175649,-0.018358327368678595,0.3172755551040921,-1.7178859016370314
1.854470975404935,2.1670001970251462,-0.018501263283572815,0.3014698687903928,-1.7197577725583344
1.8511300007751506,2.1141491721919117,-0.018620677047364906,0.285763740467788,-1.7170532615769036
1.847769947829013,2.064115705528369,-0.018713244576387563,0.27016366690491866,-1.7094294294830128
1.8443959765609477,2.016880035929038,-0.018775325068782312,0.25467710642100194,-1.6965187327778304
1.8410139352695027,1.9724209629656926,-0.018802911502828312,0.23931259317174144,-1.6779277009856075
1.8376304317334677,1.9307156424068204,-0.018791572230894477,0.22407985748241038,-1.6532360279462044
1.8342529159334395,1.8917393600170698,-0.018736381102751037,0.20898994684816014,-1.6219963796267733
1.8308897767281547,1.8554652843816442,-0.018631832289305837,0.19405533798988692,-1.5837353745732792
1.8275504557704467,1.8218642018263687,-0.01847173390744894,0.17929002373540137,-1.5379564189444368
1.8242455833189566,1.7909042403379516,-0.0182490711091072,0.16470954835813625,-1.484145407005556
1.8209871428004507,1.762550595496787,-0.0179558235409596,0.15033094987702397,-1.4217807694928088
1.8177886745661276,1.7367652808607303,-0.017582712395963495,0.1361725460791539,-1.3503500096158503
1.814665535212879,1.713506939263663,-0.017118835973463614,0.12225347166603028,-1.269375737537716
1.811635238696014,1.692730771325973,-0.016551125325037313,0.10859283875273396,-1.1784552575275589
1.8087179218673022,1.6743886632586467,-0.015863506105091654,0.09520836199535176,-1.0773187351535305
1.8059370043005298,1.658429624310486,-0.01503557797015736,0.0821142929842056,-0.9659111466860788
1.8033201572638948,1.6448006622319262,-0.01404050021467642,0.06931861899978603,-0.8445008533900392
1.800900771546549,1.6334482001528094,-0.012841563311388181,0.05681984854596968,-0.7138093333136883
1.7987202446917807,1.6243200008528156,-0.011386512852704462,0.0446045881206433,-0.5751373042589853
1.7968316748887538,1.6173671880031755,-0.009597596069817284,0.032648887986465175,-0.43042909575470667
1.7953062757418046,1.612545103438979,-0.007351283340728919,0.020929829393489453,-0.2821791278053611
1.7942467045084562,1.6098095712938552,-0.004421730363139897,0.009464972219005833,-0.13307416888001994
1.7938316565504144,1.6090931284192855,-0.0001899136151038783,-0.0015044958349155636,0.014584211710176126
