x,y,v_x,v_y,omega
2.375,32.48,0.0,2.4615384615384617,-8.0
2.37375876977141,32.01698752097406,-0.01306558135357797,2.4122771071556066,-7.595216413366874
2.3701831230926538,31.563177935885868,-0.024572804738595005,2.3646658937727536,-7.220379003247673
2.3645523845074616,31.118267243831717,-0.034698127737112755,2.318604548902499,-6.872519860862949
2.357114467359548,30.681969617886914,-0.04359573697776212,2.274002039990175,-6.549029761047371
2.3480897983661237,30.254015762335825,-0.0514007787424975,2.2307753868633893,-6.247607141300871
2.3376746799231776,29.834151477230513,-0.05823204697272591,2.188848666876714,-5.966215485903174
2.326044183247093,29.422136397147373,-0.064194233828163,2.1481521761037174,-5.7030475312049935
2.313354647682564,29.01774287723184,-0.06937982474582552,2.1086217177440263,-5.456495045201835
2.2997458475977264,28.620755004530306,-0.07387070246299249,2.0701979949036704,-5.225123191698068
2.2853428773035023,28.230967716508808,-0.07773951116041705,2.032826089533156,-5.007648687500682
2.2702577956860672,27.84818601177714,-0.081050821654691,1.9964550129054492,-4.8029211150397995
2.254591065218421,27.47222424054703,-0.08386213063632428,1.9610373158325725,-4.6099068734213
2.2384328143372505,27.102905464384293,-0.08622472074441662,1.9265287490383347,-4.427675346121558
2.2218639475459834,26.74006087646865,-0.08818440337418308,1.892887965863166,-4.255386939224389
2.2049571238142236,26.383529274928186,-0.08978216222328803,1.8600762608785744,-4.092282704679961
2.18777762071851,26.033156582929085,-0.09105471246843624,1.8280573391119617,-3.937675311856795
2.1703840991784493,25.68879541012214,-0.09203498795325443,1.7967971114874388,-3.7909411701874505
2.152829281483345,25.35030465081284,-0.09275256673205251,1.7662635128209838,-3.651513537912187
2.1351605534968425,25.01754911486092,-0.09323404365218621,1.7364263393044823,-3.5188764782975324
2.1174205004069613,24.690399187851437,-0.09350335729392897,1.7072571029006063,-3.392559546410166
2.0996473841051806,24.368730517531155,-0.09358207746165907,1.678728900470795,-3.2721331074701743
2.0818755691900175,24.052423723886488,-0.0934896584874242,1.650816295788854,-3.157204202707554
2.064135903664757,23.741364130564246,-0.09324366283110987,1.6234952128663158,-3.0474128910690186
2.046456059608694,23.435441515613824,-0.0928599588116596,1.5967428392433822,-2.94242900552064
2.028860838424567,23.134549879767203,-0.0923528957580976,1.570537538089486,-2.841949271427538
2.0113724446836847,22.83858723067758,-0.09173545940908243,1.5448587681170827,-2.745694741856129
1.9940107320897702,22.547455381714023,-0.09101941000054525,1.5196870104466542,-2.6534085108731316
1.9767934246504084,22.261059764062516,-0.09021540515063155,1.4950037016745021,-2.564853671200135
1.959748563494374,21.979318617420695,-0.0892041859655178,1.4706925787657215,-2.4751883846745315
1.9429001233779197,21.70215297998636,-0.08814781526031816,1.4468404468588396,-2.3894982910956917
1.926256076683926,21.429477193818236,-0.08705267625540475,1.4234309864898342,-2.3075606788756255
1.9098232431638806,21.161208629967923,-0.08592451869244247,1.4004486329871526,-2.2291677005706276
1.8936074044552815,20.89726754935301,-0.0847685203454416,1.3778785313803317,-2.154125219630854
1.8776134075063338,20.63757697188361,-0.0835893422750606,1.3557064946133401,-2.0822517589893548
1.8618452580321105,20.38206255324203,-0.08239117850623674,1.3339189647717287,-2.0133775413984187
1.8463062050047077,20.130652468767757,-0.081177800729584,1.3125029770627292,-1.9473436125316597
1.8309988170724394,19.883277303946976,-0.07995259855745013,1.291446126313934,-1.884001038846192
1.8159250517080368,19.63986995104809,-0.07871861580468273,1.2707365357795837,-1.8232101730583956
1.8010863178015626,19.40036551148293,-0.07747858321083338,1.2503628280641996,-1.7648399808444413
1.7864835323390296,19.164701203507626,-0.07623494797372551,1.230314097991675,-1.708767423046058
1.772117171741325,18.932816274908312,-0.07498990042316384,1.2105798872642641,-1.65487688825422
1.7579873183790278,18.70465192034501,-0.07374539812733381,1.1911501607704662,-1.6030596711682341
1.744093702726144,18.480151203052507,-0.07250318769249509,1.172015284413774,-1.5532134925935057
1.7304357415689622,18.25925898062034,-0.07126482448836796,1.1531660043458756,-1.5052420573552552
1.7170125726444327,18.041921834595144,-0.07003169050667615,1.1345934274982918,-1.4590546467739907
1.7038230860451664,17.82808800366781,-0.0688050105382354,1.1162890033157644,-1.4145657426770084
1.6908659526947645,17.61770732022552,-0.06758586683441384,1.0982445066031006,-1.3716946802133771
1.6781396501673593,17.410731150064777,-0.06637521240143084,1.0804520214047288,-1.3303653270018754
1.6656424860984722,17.20711233507624,-0.06517388306053994,1.0629039258430348,-1.2905057863758167
1.6533726194103453,17.006805138725618,-0.06398260839342779,1.0455928778476964,-1.2520481226987619
1.6413280795533742,16.809765194167277,-0.06280202167995222,1.0285118017138022,-1.2149281069135487
1.6295067839459547,16.615949454838464,-0.06163266892446311,1.011653875431577,-1.1790849806563004
1.6179065537776924,16.42531614739263,-0.06047501705724455,0.9950125187351138,-1.1444612374192185
1.606535120475499,16.23804409558471,-0.05922428086058134,0.9762722371377368,-1.1564835252759995
1.5953969380522741,16.0543213993984,-0.05801974464704823,0.9576508806128676,-1.1704325918377714
1.5844833319294298,15.874125768250128,-0.05686031980394556,0.9391452367373783,-1.1861791361767373
1.5737858398400282,15.697435508799327,-0.05574486008449234,0.9207522311657957,-1.2035967659692473
1.5632962222046158,15.524229499167209,-0.054672167656690356,0.9024689228564882,-1.2225617078795907
1.5530064714088336,15.354487164015655,-0.05364099861470158,0.8842924997914586,-1.2429525247575905
1.5429088200814525,15.188188450393579,-0.05265006798930974,0.8662202751777797,-1.2646498384416407
1.5329957484648564,15.025313804260094,-0.05169805429064823,0.8482496841220719,-1.2875360569761738
1.5232599909639948,14.865844147595077,-0.050783603613159596,0.8303782807728415,-1.311495105061321
1.5136945419544245,14.709760856008405,-0.04990533332968308,0.8126037359289812,-1.336412156552748
1.5042926609252358,14.557045736759097,-0.049061835398620315,0.794923835116351,-1.362173367821265
1.495047877028365,14.407681007094922,-0.04825167930528218,0.7773364771381334,-1.3886656107646842
1.485953993102067,14.261649272821476,-0.04747341465574755,0.7598396731086531,-1.4157762042383517
1.477005089233081,14.118933507007615,-0.04672557343884366,0.7424315459846205,-1.4433926426355785
1.4681955259193205,13.979517028730903,-0.046006671969163145,0.7251103306123516,-1.4714023203045492
1.4595199468927227,13.84338348176285,-0.04531521252133985,0.7078743743145144,-1.4996922504339152
1.4509732816602021,13.710516813088656,-0.044649684663087955,0.690722138045412,-1.528148776974855
1.4425507478194934,13.58090125115011,-0.04400856629173895,0.6736521981498317,-1.5566572780926502
1.4342478532060432,13.454521283692998,-0.043390324376160014,0.6566632487671401,-1.585101859555584
1.4260603979270254,13.331361635091799,-0.04279341540297319,0.6397541049297071,-1.6133650363731398
1.417984476339069,13.211407243014243,-0.04221628552288396,0.622923706412989,-1.6413274008892504
1.41001647902738,13.094643234276646,-0.041657370389632124,0.6061711224038286,-1.668867275420194
1.402153094845712,12.981054899727216,-0.041115094680556755,0.5894955570638601,-1.6958603474016956
1.3943913130790817,12.870627667978884,-0.04058787128397236,0.572896356076485,-1.7221792848775959
1.386728425794333,12.763347077795125,-0.04007410013443376,0.5563730142788579,-1.7476933300259343
1.3791620304476782,12.659198748911624,-0.0395721666724598,0.5399251844948314,-1.7722678682817186
1.371690032823264,12.55816835105302,-0.0390804399003203,0.5235526877010013,-1.7957639704854718
1.3643106503827354,12.460241570877209,-0.03859726999998009,0.5072555246759751,-1.8180379053721616
1.3570224161127895,12.365404076549222,-0.03812098547313519,0.4910338893028377,-1.838940619629763
1.3498241829659896,12.273641479612387,-0.037649889756337845,0.4748881837164859,-1.858317182719612
1.3427151289997867,12.184939293785781,-0.03718225725632467,0.45881903551092446,-1.8760061936888883
1.3356947633299823,12.099282890273837,-0.03671632874161733,0.4428273172463965,-1.8918391473570393
1.3287629330280117,12.016657449125866,-0.03625030601596779,0.4269141685217131,-1.905639757576014
1.3219198311067422,11.937047906130594,-0.035782345786870194,0.4110810209021877,-1.9172232358233745
1.3151660057573675,11.860438894673337,-0.03531055262759937,0.39532962601630567,-1.926395524291871
1.3085023710209858,11.786814681922376,-0.034832970913261874,0.37966208715170574,-1.9329524840344376
1.3019302191032713,11.716159098647541,-0.03434757558899611,0.3640808946886646,-1.9366790408130887
1.2954512345703146,11.648455461910604,-0.03385226160002081,0.3485889657001597,-1.9373482943680504
1.2890675106995786,11.58368648980801,-0.03334483177614916,0.3331896880113817,-1.9347206012670808
1.2827815683040327,11.5218342073983,-0.032822982913806885,0.3178869689329171,-1.9285426478705634
1.2765963774028082,11.462879842919559,-0.032284289730662594,0.3026852887380522,-1.918546539034292
1.2705153821824857,11.406803713411751,-0.03172618627273267,0.28758975871256054,-1.9044489410587297
1.2645425297859176,11.353585098928484,-0.031145944217458442,0.27260618321658375,-1.8859503356042515
1.2586823035901058,11.303202104686576,-0.030540647317402636,0.2577411245929525,-1.8627344669494197
1.2529397618061584,11.255631510810968,-0.029907160934675617,0.24300196883451677,-1.8344681010163588
1.247320582475811,11.210848609860061,-0.029242095174244795,0.22839698854343476,-1.8008012650647454
1.2418311162861115,11.168827033168657,-0.028541759454168678,0.21393539768186545,-1.761368207327417
1.2364784491319418,11.129538568370993,-0.02780210532656541,0.19962738966197108,-1.7157894133242253
1.23127047711099,11.092952972472254,-0.027018652788717627,0.18548414611423628,-1.6636751492141972
1.226215997770977,11.059037787799703,-0.026186392895627665,0.17151779780736692,-1.6046311828303106
1.2213248231507672,11.027758172436101,-0.02529965573815896,0.15774131128318403,-1.5382675700385973
1.2166079227829063,10.999076762722936,-0.024351927081429678,0.1441682646448556,-1.4642116922269963
1.2120776088381573,10.972953593489915,-0.023335588126454133,0.1308124641237931,-1.38212707690832
1.20774778171659,10.949346111926577,-0.022241539468991055,0.11768734180609099,-1.291739871466323
1.2036342636891326,10.92820933278286,-0.02105865029371804,0.1048050702330208,-1.192875021609103
1.1997552622087728,10.909496193348534,-0.019772944236386054,0.09217534486513067,-1.0855039051082127
1.1961320254968153,10.89315817013474,-0.018366389573692313,0.07980384685902686,-0.969803762503353
1.19278978460474,10.879146202267943,-0.016815093500784892,0.06769055173883207,-0.8462257259355236
1.1897591258331048,10.867411905472007,-0.01508657777958434,0.05582836190261264,-0.7155613038392348
1.1870780258384186,10.857908916821184,-0.013135527427638263,0.04420309757971726,-0.5789862301757305
1.1847949784422238,10.850593924979677,-0.010896550427044127,0.032796816541416474,-0.4380479112963579
1.1829742110464672,10.84542638256869,-0.008269422159867352,0.021598366732118256,-0.29455586374870035
1.1817061594394722,10.842364446757447,-0.0050784894927102964,0.010632536544104053,-0.1503444561658312
1.1811396205749551,10.841346785818615,-0.0008850775022068939,7.968386463427617e-05,-0.006961163731883158
