x,y,v_x,v_y,omega
2.375,32.48,0.0,2.1025641025641026,-4.326530612244898
2.3745024154353658,32.10487423888607,-0.005528717384823138,2.0654999098129028,-4.14274531197658
2.3730615182487154,31.736334585054077,-0.01048125135573843,2.0293851327647485,-3.969936692976101
2.3707761057560006,31.374214029370165,-0.014912220785535727,1.9941765970565228,-3.8072190910775427
2.3677356506399936,31.018353083736763,-0.018870613836765707,1.9598339099812672,-3.653793617423431
2.364021256047237,30.668599302624543,-0.02240043719386247,1.9263192134878189,-3.5089382985838933
2.359706501386968,30.324806846489725,-0.025541281253568644,1.8935969657879672,-3.3719994910874056
2.354858192859104,29.986836082293497,-0.028328813500481404,1.8616337475034466,-3.2423843850515914
2.349537030717339,29.654553217012044,-0.03079521029690226,1.830398088957131,-3.119554441687154
2.343798203579093,29.327829960587437,-0.03296953568360948,1.7998603157607518,-3.0030196341174307
2.33769191866737,29.006543215241937,-0.03487807444664741,1.7699924103003364,-2.892333381282771
2.331263875663425,28.690574788476816,-0.03654462559718181,1.7407678870899141,-2.7870880815237427
2.324555690825413,28.379811127414484,-0.03799076149184709,1.712161680269293,-2.6869111664232315
2.317605277156259,28.074143072430495,-0.03923605705430513,1.6841500417750543,-2.591461607160967
2.3104471856588598,27.773465628267484,-0.040298292916796645,1.6567104489250588,-2.500426815414681
2.303112912077873,27.47767775103422,-0.04119363576083989,1.6298215203334252,-2.4135198890666225
2.2956311729781156,27.18668214967429,-0.0419367986809058,1.6034629392213704,-2.330477159913924
2.288028154535993,26.900385100646066,-0.04254118400934505,1.577615383314445,-2.2510560064561353
2.2803277370109565,26.61869627469173,-0.04301901071328248,1.552260460622647,-2.1750328998219293
2.272551697509208,26.3415285746916,-0.04338142819503152,1.5273806504898848,-2.1022016551457288
2.2647198933436488,26.06879798370367,-0.04363861808896052,1.502959249375991,-2.032371864333667
2.256850428025754,25.80042342237882,-0.043799885443205976,1.4789803209001322,-1.9653674892656987
2.248957792694325,25.53632990860652,-0.04389606268378169,1.4553920543476582,-1.899520417196202
2.241053999916319,25.276445018127347,-0.04392385707183989,1.4322178398653411,-1.8364508521284713
2.2331507943097684,25.02069547463845,-0.04388953855650135,1.4094437544557417,-1.776010359047295
2.2252588400604703,24.76901045400791,-0.043798841991255714,1.38705647477253,-1.7180599390520526
2.2173878129700784,24.52132147932879,-0.04365701456865572,1.3650432438843498,-1.6624693320760024
2.209546484371312,24.277562321753805,-0.04346885875096867,1.3433918402821123,-1.6091163782156104
2.201742797679453,24.03766890672306,-0.043238771158578215,1.3220905489484132,-1.5578864321447357
2.1939839382707795,23.80157922522846,-0.04297077782668195,1.301128134324949,-1.5086718256663658
2.1862763973087613,23.569233249786592,-0.04266856619574304,1.280493815029131,-1.4613713739659486
2.1786260300766163,23.34057285481734,-0.04233551416142528,1.2601772401847569,-1.4158899215835863
2.1710381093193667,23.115541741148768,-0.04197471647468014,1.2401684672438222,-1.372137924524661
2.163517374048995,22.894085364389948,-0.04158900875166989,1.2204579411874978,-1.3300310652860918
2.1560680742220235,22.6761508669327,-0.04118098932578971,1.2010364750041242,-1.2894898978938107
2.148694011659225,22.46168701336075,-0.04075303914975222,1.1818952313509037,-1.2504395203308774
2.141398577541675,22.250644129060916,-0.04030733993413684,1.163025705313925,-1.212809271989035
2.134184786785534,22.04297404184571,-0.039845890689651366,1.1444197081883247,-1.1765324540029922
2.127055309569367,21.838630026410144,-0.03937052282331533,1.126069352206872,-1.1415460705294211
2.1200125002621446,21.637566751457925,-0.03888291392360222,1.107967036151124,-1.1077905892143125
2.1130584239769754,21.43974022934371,-0.03838460035605134,1.0901054317846113,-1.0752097192552978
2.10619488095484,21.24510776808838,-0.03787698877878809,1.0724774710523344,-1.0437502056119403
2.0994234289638545,21.053627925634103,-0.03736136667660595,1.0550763339952294,-1.0133616380486408
2.0927454038827245,20.86526046621463,-0.03683891200261749,1.0378954373322462,-0.983996273813322
2.0861619386217827,20.67996631872476,-0.036310702007846425,1.0209284236663154,-0.9556088728618679
2.079673980521251,20.49770753698015,-0.03577772133139455,1.0041691512737876,-0.9281565446346649
2.0732823073539066,20.318447261765915,-0.035240869416876555,0.9876116844399578,-0.9015986054786264
2.0669898478904165,20.14238512824668,-0.03467534684412418,0.9686342435515156,-0.9271014153738275
2.0607963636929263,19.969729141754854,-0.03414114423910035,0.9497656063576536,-0.9540257246274295
2.054696284875679,19.800459964290074,-0.03363750928586882,0.9310030321399221,-0.9822587138657681
2.0486841821355233,19.634558740912464,-0.03316363227141902,0.912343894277958,-1.0116892571856326
2.0427547766198013,19.472007079465293,-0.032718651236602066,0.893785677357294,-1.042207680559472
2.0369029489085473,19.312787030781887,-0.03230165666622075,0.8753259746805251,-1.0737055217917257
2.0311237471915393,19.156881069304234,-0.03191169574497839,0.856962486182268,-1.1060752910038278
2.0254123947162195,19.004272074040202,-0.03154777620302017,0.8386930167514453,-1.139210230604489
2.0197642965784754,18.854943309785476,-0.031208869771915636,0.8205154749677132,-1.1730040736729763
2.0141750459247834,18.708878408534773,-0.030893915269107536,0.8024278722623582,-1.2073507996458945
2.0086404296312175,18.566061351004556,-0.030601821326065346,0.7844283225177725,-1.2421443861519579
2.0031564335223373,18.426476448186822,-0.030331468772605324,0.7665150421237328,-1.2772785557839106
1.9977192471909686,18.2901083228495,-0.030081712687046562,0.7486863505132229,-1.312646516531507
1.9923252684784212,18.15694189089481,-0.02985138411903573,0.730940671205515,-1.3481406945236607
1.9869711076737013,18.026962342481234,-0.029639291488962553,0.7132765333897575,-1.3836524576408398
1.9816535914898563,17.900155122808194,-0.02944422166487137,0.6956925740884804,-1.4190718284598303
1.9763697668757023,17.77650591245497,-0.029264940714617268,0.6781875409473478,-1.4542871848814192
1.9711169047218955,17.656000607156233,-0.02910019432768034,0.6607602957052587,-1.4891849466667753
1.9658925035216295,17.538625296886067,-0.02894870789749784,0.6434098184076703,-1.5236492459698237
1.9606942930482327,17.424366244110146,-0.028809186251355454,0.6261352124359352,-1.5575615798005171
1.9555202381146435,17.31320986105161,-0.028680313010745216,0.6089357104366745,-1.5908004421877175
1.9503685424832233,17.205142685799995,-0.028560749560591642,0.5918106812479348,-1.623240933631183
1.9452376529986974,17.100151357073685,-0.02844913360080531,0.5747596379333048,-1.6547543452414972
1.9401262640222896,16.998222587425047,-0.028344077248170868,0.5577822470515095,-1.6852077147676072
1.9350333222514067,16.89934313465274,-0.028244164650529917,0.5408783393074799,-1.7144633515086893
1.9299580320166958,16.803499771157412,-0.028147949068479502,0.5240479217517382,-1.7423783269077684
1.9248998611570294,16.710679250945105,-0.028053949372257244,0.507291191718342,-1.7688039274400584
1.9198585475831578,16.620868273945856,-0.027960645892983308,0.4906085527177525,-1.7935850662559079
1.914834106652587,16.534053447273568,-0.02786647555780356,0.47400063252989094,-1.8165596499406136
1.909826839491909,16.450221243006197,-0.027769826227508055,0.45746830377422965,-1.8375578967459536
1.9048373424185991,16.36935795201243,-0.02766903014260012,0.4410127072676616,-1.8564016027808488
1.8998665176325384,16.29144963329187,-0.027562356369185085,0.42463527851632765,-1.8729033529920522
1.8949155853686093,16.21648205823032,-0.027448002118916202,0.40833777772310836,-1.8868656744210595
1.8899860977261904,16.14444064909993,-0.027324082796850165,0.39212232372566064,-1.8980801303337067
1.8850799544198997,16.075310411057018,-0.027188620606378347,0.3759914323067131,-1.9063263555872534
1.8801994207294372,16.009075856809485,-0.027039531509872868,0.3599480593325326,-1.9113710363141676
1.8753471479660972,15.945720923044501,-0.026874610305014965,0.3439956491672702,-1.9129668410710943
1.870526196821265,15.885228877630563,-0.026691513526457603,0.32813818876534984,-1.9108513166060999
1.865740064020522,15.827582216545213,-0.026487739815131355,0.3123802677385419,-1.9047457701622645
1.8609927127797312,15.772762549444206,-0.02626060730476491,0.2967271444948699,-1.8943541729341928
1.8562886076523477,15.720750472801463,-0.026007227443940184,0.28118481820229535,-1.8793621375939038
1.851632754479056,15.671525429644312,-0.025724474481521542,0.2657601057660582,-1.8594360490720887
1.8470307463152573,15.625065555135091,-0.025408949560686882,0.25046072211415904,-1.8342224653720869
1.8424888164402367,15.581347507681809,-0.02505693793954221,0.23529536070008306,-1.8033479588237293
1.8380138998776459,15.540346286006539,-0.02466435720035727,0.22027376902515183,-1.7664196444187448
1.833613705333517,15.502035033819418,-0.024226693289961188,0.20540681083176124,-1.7230267496858578
1.8292968001703223,15.466384835665863,-0.023738919634426658,0.19070650198552785,-1.6727437318585545
1.8250727121191246,15.433364510452016,-0.02319539204554867,0.1761860003905673,-1.6151356577668734
1.8209520531030008,15.402940413532772,-0.022589708133601682,0.1618595209343512,-1.5497668466297785
1.816946673147712,15.37507626459686,-0.0219145135918303,0.14774213390911078,-1.4762141496118113
1.813069856433673,15.349733027474194,-0.02116122767527325,0.13384938967607196,-1.3940867014404037
1.809336577945749,15.32686887982154,-0.020319644412769677,0.12019669535342808,-1.3030544837931681
1.8057638492107915,15.306439325103657,-0.01937734153120262,0.10679835706750002,-1.202888439174105
1.8023711972580827,15.288397514170946,-0.018318791276672988,0.09366620885153193,-1.0935148015552203
1.7991813452048242,15.272694852585612,-0.017124009315087087,0.0808078087632751,-0.9750849977215258
1.7962212006330902,15.259281957887914,-0.015766485926402313,0.0682243545444855,-0.8480585421656911
1.7935233187781285,15.24810996925697,-0.014209979128728296,0.055908852466031264,-0.7132878530264204
1.7911281169131614,15.2391320508464,-0.012403374926460192,0.04384579654028299,-0.5720794069201017
1.7890873600993227,15.23230458946827,-0.010271700782859976,0.03201488543894113,-0.42618734023399507
1.7874701581415389,15.227586890903424,-0.007697209859183807,0.02040398750379961,-0.2776836761038092
1.7863756254801326,15.224936261991335,-0.004464264156441394,0.009047444852750663,-0.12866100286122117
1.7859770384071478,15.224283101483238,3.551890105665898e-05,-0.0017901058739034931,0.019101923563377865
