x,y,v_x,v_y,omega
2.375,32.48,0.0,3.4871794871794872,-3.591836734693878
2.374137397639277,31.825652552440012,-0.00908002484971642,3.400688381872993,-3.346289118947684
2.3716859780984625,31.1873807392803,-0.016724391369383855,3.3179622829660693,-3.125978302089009
2.3678978074962043,30.564493686705063,-0.023151088654387537,3.2387435336153634,-2.927558413613202
2.362986934608447,29.95634720770261,-0.028542310164109724,3.162798350621008,-2.7482059886477725
2.357135580339357,29.36233953850885,-0.033050892668416515,3.0899139566817277,-2.5855275384405747
2.35049922401185,28.78190757859766,-0.03680548972639284,3.0198961476465644,-2.4374852781734395
2.34321080122011,28.21452355927915,-0.03991475018666343,2.952567213600931,-2.3023371015362453
2.335384182543906,27.659692079677104,-0.042470709562849665,2.8877641506311225,-2.178587807042307
2.327117067394197,27.1169474595809,-0.044551555170928035,2.8253371135394727,-2.0649492650195302
2.318493400065728,26.585851367151886,-0.04622389039190511,2.7651480699238,-1.9603077295700793
2.3095853938258504,26.065990686249396,-0.04754459634364884,2.707069623786633,-1.8636968911983602
2.300455232170019,25.556975593620557,-0.048562368454571486,2.6509839828327406,-1.774275565258172
2.2911565031773033,25.058437820663265,-0.049318989363490134,2.596782048296641,-1.691309142031829
2.2817354124155678,24.57002907814044,-0.04985038707583312,2.5443626098383385,-1.6141541030602435
2.2722318114774187,24.091419625261658,-0.05018751753626259,2.493631630990967,-1.5422450477783807
2.2626800725172282,23.622296967081404,-0.0503571030973189,2.4445016130116737,-1.4750837838545696
2.2531098337548756,23.162364666289236,-0.050382252295867465,2.39689102690592,-1.4122301208334047
2.243546636541149,22.711341257261743,-0.05028298153283618,2.350723804962408,-1.3532940749797877
2.234012471031404,22.268959251769978,-0.05007665541184558,2.305928884424591,-1.2979292475925983
2.2245262446225698,21.834964227035435,-0.04977835941798835,2.262439796991625,-1.245827182536965
2.215104184943925,21.409113987941858,-0.049401216146696,2.220194298730235,-1.1967125436662756
2.2057601872516375,20.991177796168778,-0.04895665429843256,2.179134035723267,-1.15033898096976
2.1965061144795004,20.580935659841366,-0.04845463803985555,2.139204241407388,-1.1064855770865536
2.18735205687887,20.17817767800981,-0.04790386301941089,2.1003534620826665,-1.0649537843629717
2.1783065570878155,19.782703434896852,-0.04731192425484478,2.062533307527426,-1.025564777750782
2.169376805561347,19.394321439398283,-0.04668546023429825,2.0256982240364354,-0.9881571612232111
2.160568810537973,19.012848605799462,-0.04603027685385378,1.9898052875301042,-0.9525849755540172
2.1518875460857005,18.63810977209085,-0.0453514542226953,1.954814014665817,-0.9187159636853375
2.143337081241084,18.269937252635515,-0.044653438878531196,1.9206861901271806,-0.8864300568385695
2.134920692810233,17.908170422267954,-0.04394012355148078,1.8873857084787438,-0.8556180502683651
2.1266409640263504,17.552655329192493,-0.04321491627885965,1.8548784291576823,-0.8261804423389794
2.118499870942446,17.203244334305772,-0.04248080039381906,1.823132043334108,-0.798026414588777
2.110498858170664,16.859795774795437,-0.04174038667756944,1.792115951511547,-0.7710729337834067
2.102638905353163,16.522173650069988,-0.0409959587698109,1.761801150861579,-0.7452439597551341
2.0949205855570345,16.1902473282557,-0.040249512768382255,1.7321601313941049,-0.7204697451779675
2.087344116621934,15.863891271658133,-0.03950279181162098,1.703166780159236,-0.6966862154113084
2.079909406349328,15.54298477973079,-0.03875731632107647,1.6747962927601405,-0.6738344182209753
2.0726160923028067,15.227411748223247,-0.03801441048440991,1.6470250915297944,-0.651860034606512
2.06546357688661,14.917060443297888,-0.03727522547556004,1.619830749789757,-0.6307129431696622
2.0584510582817175,14.611823289509509,-0.036540759839092274,1.5931919216668808,-0.6103468314853762
2.0515775577434296,14.311596670636611,-0.035811877406044,1.5670882769952137,-0.590718848812381
2.0448419436993603,14.016280742438841,-0.03508932305784221,1.5415004408760593,-0.5717892952289761
2.0382429530307635,13.725779256492174,-0.0343737366116006,1.5164099375099096,-0.5535213429210882
2.031779209871664,13.43999939432345,-0.03366566506313344,1.4917991379503506,-0.5358807859002463
2.0254546660713655,13.158852345693273,-0.03290848020316188,1.467643479209407,-0.5172435967883152
2.0192725159752873,12.882252382388707,-0.03216678396608254,1.443935081891294,-0.4994240108883847
2.013229821282333,12.61011598763844,-0.03144052859133176,1.42065854705888,-0.48237675541430763
2.007323656963156,12.342362506457917,-0.03072962213684804,1.3977991495781952,-0.46605953830374225
2.001551119035546,12.078914021151174,-0.03003393499589062,1.3753428010191078,-0.45043282071084917
1.9959093311779457,11.819695233631244,-0.029353305610426424,1.353276014980177,-0.4354596091813891
1.9903954503244528,11.564633354116001,-0.028687545478972367,1.3315858746539657,-0.42110526561088185
1.9850066713672256,11.313657995789711,-0.02803644354447092,1.310260002464894,-0.4073373332883347
1.9797402310769776,11.066701075051075,-0.02739977003708818,1.289286531626001,-0.3941253775065164
1.9745934113388888,10.823696716996583,-0.026777279837530962,1.2686540794739005,-0.3814408393777624
1.969563541789576,10.584581165813535,-0.026168715418391213,1.2483517224529284,-0.3692569016343888
1.964648001930501,10.349292699780648,-0.025573809413978143,1.228368972630092,-0.35754836531715767
1.9598442227841928,10.11777155059574,-0.0249922868629507,1.208695755632079,-0.3462915363657921
1.9551496881517565,9.889959826769783,-0.024423867162694544,1.1893223899043421,-0.335464121223934
1.9505619355231794,9.665801440844845,-0.02386826576969517,1.1702395672002506,-0.3250451306586264
1.9460785566858334,9.445242040210342,-0.023325195676052894,1.1514383342155605,-0.31501479107264013
1.9416971980711828,9.228228941307307,-0.022794368688689632,1.132910075290083,-0.30535446265785576
1.9374155608749661,9.014711067024827,-0.022275496534645042,1.1146464961044622,-0.2960465638004177
1.933231400981931,8.804638887105881,-0.02176829181309403,1.0966396083055077,-0.28707450120434497
1.9291425287225195,8.597964361391995,-0.02127246881228879,1.078881714998561,-0.27842260525044876
1.92514680848564,8.394640885747382,-0.020787744207493984,1.0613653970500074,-0.2700760701524267
1.921242158208788,8.194623240513643,-0.020313837654106263,1.0440835001472653,-0.2620208985124419
1.9174265487642408,7.997867541355742,-0.01985047228849646,1.0270291225674721,-0.254243849914864
1.9136980032578061,7.804331192368917,-0.019397375147656947,1.010195603609644,-0.24673239322958448
1.9100545962546207,7.613972841324408,-0.018954277517453183,0.9935765126483517,-0.23947466232582265
1.9064981715271339,7.426951476475427,-0.01848177224556648,0.9750694331303842,-0.2740639506786804
1.9030276979437764,7.243436365115986,-0.01804952863187972,0.9566685811795079,-0.3100151547946324
1.899635630611502,7.063407584502919,-0.01765644328679901,0.9383712147475245,-0.34722562294634457
1.896314637574811,6.886845722913634,-0.017301378152053983,0.9201746967186352,-0.3855945096048702
1.8930576059991104,6.713731860013141,-0.01698316475005611,0.9020764917076244,-0.42502255303755254
1.889857647585895,6.544047547795564,-0.01670060802063341,0.8840741632142244,-0.4654118554245816
1.8867081032956388,6.377774792032891,-0.016452489771538695,0.8661653711296852,-0.5066656645558852
1.8836025474495508,6.2148960341641235,-0.01623757176622718,0.8483478695941723,-0.5486881561563715
1.8805347912771473,6.0553941335580745,-0.016054598469599436,0.8306195052063252,-0.5913842158662609
1.8774988859729156,5.899252350082502,-0.015902299469681663,0.8129782155891708,-0.6346592198739396
1.8744891253221945,5.7464543269111665,-0.015779391590542268,0.7954220283196427,-0.6784188131609061
1.871500047953729,5.596984073498735,-0.015684580709094995,0.7779490602322494,-0.7225686842713683
1.868526439274215,5.450825948651126,-0.015616563285787961,0.7605575171110235,-0.7670143354621332
1.865563333138498,5.307964643615737,-0.015574027616495826,0.7432456937878221,-0.8116608470208033
1.8626060133079632,5.168385165112301,-0.015555654810188987,0.7260119746694107,-0.8564126344609694
1.859650014749054,5.0320728182202465,-0.015560119494116582,0.7088548347206229,-0.9011731972109921
1.8566911248238118,4.899013189032836,-0.015586090245273713,0.6917728409363444,-0.9458448573068818
1.853725384424851,4.769192126981466,-0.015632229743789333,0.6747646543412167,-0.990328486478347
1.850749089108341,4.64259572672557,-0.015697194640526838,0.6578290325629303,-1.0345232198788303
1.84775879028037,4.5192103094939675,-0.015779635127587725,0.6409648330329055,-1.0783261545536824
1.844751296494582,4.399022403752507,-0.015878194196496786,0.6241710168772157,-1.1216320305638674
1.8417236749222812,4.2820187250599275,-0.015991506564566445,0.6074466535709812,-1.1643328924840401
1.8386732530603513,4.168186154958754,-0.016118197245221566,0.5907909264413678,-1.2063177287718059
1.8355976207474356,4.057511718730613,-0.016256879732839426,0.5742031391180188,-1.2474720862579578
1.8324946325649663,3.9499825618250775,-0.016406153766837274,0.5576827230455278,-1.2876776567343262
1.8293624107069602,3.845585924747631,-0.016564602633225546,0.5412292461907441,-1.3268118323159883
1.8261993484111239,3.7443091161651374,-0.016730789954527262,0.5248424230986807,-1.3647472259284692
1.8230041140539255,3.64613948395564,-0.016903255910716543,0.5085221264749745,-1.4013511529202556
1.8197756560240796,3.5510643838929496,-0.017080512824504353,0.4922684005006954,-1.4364850694309856
1.8165132085025477,3.4590711456142387,-0.017261040033726447,0.47608147611729973,-1.4700039627642993
1.813216298292995,3.370147035470257,-0.01744327796156515,0.4599617885561752,-1.5017556886352685
1.8098847528648923,3.284279215801668,-0.017625621281622362,0.44390999742898946,-1.531580249807425
1.8065187097925177,3.2014547001203937,-0.017806411059162842,0.4279270097423129,-1.559309010337412
1.803118627797376,3.121660303600848,-0.0179839257318,0.4120140062529065,-1.584763839457311
1.7996852996295118,3.044882588201169,-0.01815637077203439,0.3961724716384422,-1.6077561791221828
1.796219867055441,2.9711078016384853,-0.018321866849762284,0.3804042290214017,-1.6280860295467274
1.7927238382577046,2.9003218093337466,-0.01847843628430672,0.3647114794495396,-1.6455408478174556
1.789199107994253,2.8325100183209564,-0.01862398754149659,0.34909684700089444,-1.6598943561414188
1.7856479809162522,2.7676572919832267,-0.018756297490091934,0.33356343023836943,-1.6709052588405238
1.7820731985020168,2.705747854336728,-0.01887299108080791,0.31811486077742107,-1.6783158713519182
1.7784779701349434,2.646765182438287,-0.01897151804628175,0.30275536973247436,-1.6818506710282712
1.7748660089377046,2.5906918853529675,-0.019049126135177237,0.2874898627445782,-1.6812147895910514
1.7712415730784539,2.5375095680009245,-0.019102830277988134,0.2723240041190331,-1.6760924823584333
1.76760951339471,2.4871986781362487,-0.019129376919316713,0.25726431024596275,-1.6661456323262025
1.7639753283485422,2.4397383347391965,-0.01912520251402885,0.2423182518282853,-1.651012381476351
1.7603452275511304,2.3951061362992014,-0.01908638482714934,0.2274943633295503,-1.6303060326959586
1.756726205405827,2.3532779479421784,-0.01900858512341063,0.21280235621807875,-1.6036144412838749
1.753126126866002,2.314227667286506,-0.018886978453695982,0.19825322963109676,-1.5705002266648147
1.7495538279694849,2.2779269705654777,-0.018716167825432017,0.1838593674323529,-1.5305022990649104
1.7460192348331256,2.2443450433311156,-0.018490075715191574,0.16963460345565695,-1.483139435538498
1.7425335064005012,2.213448304544297,-0.018201802522959915,0.15559422587926483,-1.4279169855959484
1.7391092088234066,2.1852001398883587,-0.017843435130668,0.14175487576218185,-1.36433827612827
1.7357605335798152,2.1595606708088404,-0.01740577795976786,0.12813427244325978,-1.2919229544237032
1.732503578384955,2.1364866013245205,-0.016877960933497582,0.11475066949695295,-1.2102353658559422
1.7293567214534278,2.115931206002813,-0.016246848872053247,0.1016219128368071,-1.1189270238206968
1.726341138677069,2.0978445489190207,-0.015496127721196221,0.08876395120312056,-1.017797957800665
1.7234815445534937,2.0821740493241947,-0.014604863053280742,0.07618867611085249,-0.9068813170535119
1.720807288996431,2.068865517926895,-0.013545195442114879,0.06390112807125482,-0.7865520607854094
1.718354027597148,2.0578647373819017,-0.012278608760864451,0.05189656187605114,-0.6576502663796451
1.716166336281871,2.0491194706285256,-0.010749720873628904,0.040158877633164794,-0.5215880228056337
1.7143019761863294,2.0425813087867404,-0.008875122237338932,0.028663878596145977,-0.38037557776859676
1.712839519604572,2.038205723405728,-0.006519157570631597,0.017394914888196535,-0.23647179361578016
1.7118954967539874,2.0359456656274624,-0.003417925067102458,0.006395166988280965,-0.0923709955038885
