x,y,v_x,v_y,omega
2.375,32.48,0.0,4.0,-7.142857142857143
2.3728183370633413,31.69160977114165,-0.021816629366588076,3.8839022885834886,-6.560441424502419
2.366676379913986,30.925816490070424,-0.03960294212696313,3.7740305221287644,-6.050150420870416
2.3573080951941914,30.18142828741868,-0.05407990507098212,3.669851504388674,-5.600559794408094
2.3453172421314536,29.4573534542967,-0.06582862555639721,3.570896826831089,-5.202372908326742
2.3312023567402465,28.75258855253634,-0.07532022835567467,3.4767521907725345,-4.84797063552964
2.315376464455105,28.06620843395263,-0.08293869449573624,3.387048995064563,-4.53106751053525
2.2981827461034188,27.39735777370618,-0.08899848902112997,3.3014576073999375,-4.246446471314811
2.2799070689218093,26.745243822102452,-0.09375828279496659,3.2196819086373463,-3.989752381103263
2.260788069128879,26.109130149713387,-0.09743171513433367,3.1414548152532906,-3.7573299861745895
2.2410253082783114,25.48833121173289,-0.10019589337134405,3.066534564551681,-3.5460957906212682
2.2207859042288023,24.882207594994988,-0.10219814712374486,2.99470160282734,-3.3534360461695982
2.2002099468751104,24.29016183909975,-0.10356142641317427,2.9257559561250486,-3.177125010834161
2.1794149403561005,23.71163474432086,-0.10438863877692621,2.8595149916638376,-3.015259054937272
2.158499461370729,23.146102095276277,-0.10476615107678693,2.7958114987820024,-2.8662032421220167
2.137546183273765,22.5930717420314,-0.10476662989285206,2.734492033666779,-2.728547793085716
2.116624384746294,22.052080990294172,-0.10445135538185596,2.675415483705474,-2.6010724250294213
2.095792037820496,21.522694260314083,-0.1038721138761266,2.618451816095421,-2.4827170025295877
2.0750975512460332,21.004500980492384,-0.10307275186850307,2.563480982121557,-2.372557272957947
2.0545812303979973,20.497113686902388,-0.10209045661185395,2.510391953778427,-2.2697847185591162
2.034276503229331,20.000166304169092,-0.10095681507481304,2.4590818735545255,-2.1736897573825837
2.014210952472722,19.51331258666525,-0.09969869249127652,2.4094553014839035,-2.083647680802127
1.9944071868719524,19.036224701896586,-0.09833896351641647,2.361423546202717,-1.9991068369611436
1.9748835782673664,18.568591940388817,-0.096897122529445,2.314904068874968,-1.9195786650787077
1.955654886563858,18.110119538443033,-0.09538979450563717,2.269819950582867,-1.8446292610903543
1.9367327907317489,17.660527601865063,-0.09383116381545581,2.2260994151968307,-1.7738722150813069
1.9181263408435438,17.219550120254183,-0.0922333350665947,2.1836754009119885,-1.7069625088244953
1.8998423435860443,16.786934062701825,-0.09060663750839995,2.142485174611572,-1.643591300084463
1.8818856915921223,16.36243854683758,-0.08895988243081926,2.1024699840308676,-1.5834814512108613
1.8642596452184645,15.945834074096634,-0.08730058130575931,2.0635747433785854,-1.5263836844848635
1.846966073982402,15.536901824893857,-0.0856351310548666,2.0257477486492035,-1.4720732669145293
1.830005663704957,15.135433008094047,-0.08396897171958337,1.9889404193489097,-1.4203471436513966
1.8133780944424,14.741228259781725,-0.0823067209059863,1.953107063774312,-1.371021452666709
1.7970821934879793,14.354097086870365,-0.08065228863822169,1.9182046653392895,-1.3239293643703143
1.7811160670593105,13.973857351561328,-0.07900897564846596,1.884192687751086,-1.2789191989445563
1.7654772137311703,13.600334793076211,-0.07737955763293694,1.851032897100089,-1.235852781670151
1.7501626222086428,13.23336258345067,-0.07576635759233555,1.8186891991553091,-1.1946040027369687
1.7351688556459084,12.872780914499653,-0.0741713080350099,1.787127490354845,-1.15505755319698
1.7204921243884992,12.518436613348957,-0.07259600453908262,1.7563155211521178,-1.1171078130200223
1.7061283487410641,12.170182784180927,-0.07104175193526738,1.7262227705281685,-1.0806578708093795
1.6920732131298744,11.82787847406701,-0.06950960417663081,1.696820330610991,-1.0456186577480362
1.6783222128323874,11.491388360960173,-0.06800039879824066,1.6680808004573642,-1.0119081808790538
1.6648706942792755,11.160582462099114,-0.06651478673287647,1.6399781881532134,-0.9794508429573215
1.6517138897925687,10.83533586123609,-0.06505325813419174,1.6124878204770399,-0.9481768379123517
1.638846947502933,10.515528453243483,-0.06361616476216563,1.5855862594490355,-0.9180216124880887
1.6262649570862864,10.201044704782827,-0.0622037394043003,1.5592512251575115,-0.8889253859213366
1.613962971872128,9.891773429835538,-0.060816112737283,1.5334615243153888,-0.8608327206228306
1.6019360278008337,9.587607578998625,-0.05945332797566055,1.508196984053728,-0.8336921377651692
1.5901791596427926,9.288444041542505,-0.058115353604750064,1.483438390507472,-0.807455772485463
1.5787000542589933,8.994185501691366,-0.05667570023324151,1.4591470080039064,-0.7785672923935344
1.5675051311281125,8.704738089593612,-0.05527353107556885,1.4353271129736294,-0.7509893426895915
1.5565869753904447,8.420009183742224,-0.05390802630110917,1.4119619455402348,-0.7246470207872692
1.545938338526672,8.139909438372406,-0.05257834233661643,1.3890355081579322,-0.6994705179937141
1.5355521423752752,7.864352635356248,-0.05128361917735068,1.3665325220036553,-0.6753947179617126
1.5254214817955456,7.593255544522158,-0.050022986619945836,1.3444383863372389,-0.6523588310228953
1.5155396261774126,7.32653779182894,-0.048795569561384575,1.3227391405949405,-0.6303060608258126
1.5059000199723656,7.064121734869175,-0.04760049248908439,1.301421429002699,-0.6091833000951956
1.4964962823964156,6.805932345217453,-0.04643688327041506,1.2804724675145167,-0.5889408526742714
1.4873222064358165,6.551897097176159,-0.04530387633557715,1.2598800128984387,-0.5695321793166769
1.4783717572687243,6.301945862505512,-0.04420061533534595,1.2396323338080255,-0.5509136649635231
1.4696390702007451,6.056010810755598,-0.04312625534444532,1.2197181836911204,-0.533044405479036
1.4611184481990982,5.814026314846458,-0.04207996467202438,1.2001267754002887,-0.5158860120288156
1.4528043590986295,5.575928861568361,-0.04106092633266308,1.1808477573806884,-0.4994024314715097
1.4446914325429272,5.3416569666981495,-0.04006833922435838,1.1618711913214363,-0.4835597813004998
1.4367744567151022,5.1111510944494185,-0.03910141905389202,1.1431875311658883,-0.4683261978195972
1.42904837490524,4.884353580994354,-0.038159399044728086,1.1247876033847422,-0.45367169636795246
1.421508281954965,4.66120856181352,-0.03724153045802411,1.1066625884235894,-0.4395680425263135
1.4141494206138254,4.441661902646803,-0.03634708295337094,1.08880400324357,-0.42598863334111275
1.4069671778372461,4.2256611338344285,-0.03547534481242368,1.07120368488018,-0.4129083876960804
1.3999570810514457,4.013155387851299,-0.034625623045579416,1.0538537749511196,-0.4003036450444609
1.393114794406964,3.804095339851248,-0.03379724339923879,1.0367467050493948,-0.3881520717895687
1.3864361150391495,3.5984331510500347,-0.032989550278905634,1.0198751829627524,-0.376432574668351
1.37991696935112,3.3961224147872606,-0.03220190660138815,1.0032321796649812,-0.3651252205526927
1.3735534093322184,3.1971181051178945,-0.03143369358762878,0.9868109170286834,-0.3542111621371599
1.3673484570593442,3.0015554974281358,-0.030615829141113677,0.9688151598689108,-0.37950925869112334
1.3613024320042841,2.809580966129751,-0.02984442140948648,0.9509301531149209,-0.40646110155524007
1.3554061596525946,2.621172659043804,-0.02911830210740827,0.9331529177445607,-0.4349570409288295
1.3496507031371128,2.436309308113511,-0.028436263047410273,0.9154805915583668,-0.46488992583524075
1.3440273707155626,2.2549702064661012,-0.02779706116809185,0.8979104249157316,-0.49615486216697785
1.3385277222897678,2.0771351862876593,-0.02719942308985648,0.8804397768686791,-0.5286489762863004
1.3331435750576281,1.9027845974325892,-0.026642049231539053,0.8630661116820132,-0.5622711831869561
1.3278670083826656,1.731899286691263,-0.026123617518086006,0.8457869957312313,-0.5969219582323554
1.3226903679602149,1.564460577640915,-0.025642786706422012,0.8286000947722623,-0.6325031114878034
1.317606269354198,1.400450251005708,-0.02519819935374797,0.811503171579802,-0.6689175636592334
1.312607600973849,1.2398505254523435,-0.02478848444974073,0.7944940839538319,-0.7060691226380029
1.3076875265557308,1.0826440387472758,-0.02441225973144097,0.7775707830968438,-0.7438622596304268
1.302839487212887,0.9288138292008519,-0.024068133696997868,0.7607313123674041,-0.782201883821431
1.2980572031100008,0.7783433173222107,-0.023754707331863006,0.7439738064190158,-0.8209931144835353
1.293334674820968,0.6312162876066267,-0.023470575558465694,0.7272964907368252,-0.8601410493947379
1.2886661844233382,0.48741687037408,-0.02321432841783189,0.7106976815886394,-0.8995505283710902
1.2840462963826549,0.34692952357411144,-0.02298455198900068,0.6941757864110225,-0.9391258906510591
1.279469858278813,0.2097390144674094,-0.022779829049417073,0.6777293046560086,-0.9787707247882735
1.274932001426201,0.07583040108887928,-0.022598739476705498,0.6613568291292878,-1.0183876096159796
1.2704281414395981,-0.054810986609716394,-0.022439860389320995,0.6450570478566858,-1.0578778447394017
1.2659539787986163,-0.1821995660476361,-0.02230176602049689,0.6288287465224819,-1.0971411688900754
1.2615054994649049,-0.30634952185295816,-0.02218302731661783,0.6126708115307251,-1.136075464337878
1.257078975608483,-0.42727482638096603,-0.022082211247599525,0.5965822337493581,-1.1745764454007028
1.252670966502423,-0.5449892610565854,-0.02199787981300078,0.5805621130068194,-1.2125373289173411
1.2482783196487857,-0.6595064386994736,-0.02192858872337253,0.5646096634220564,-1.2498484843551125
1.2438981722032785,-0.7708398270078547,-0.021872885731698426,0.5487242196617793,-1.2863970610093758
1.2395279527716456,-0.8790027733973886,-0.02182930858462998,0.5329052442335499,-1.322066589517014
1.2351653836574343,-0.9840085314147657,-0.021796382557483982,0.5171523359402449,-1.3567365546508634
1.2308084836486302,-1.0858702889728775,-0.02177261753055686,0.5014652396408433,-1.3902819360886245
1.2264555714398633,-1.184601198685435,-0.02175650455711155,0.48584385748472825,-1.422572713561744
1.222105269797624,-1.280214410615116,-0.021746511865281728,0.4702882618121133,-1.4534733324934779
1.2177565105883992,-1.3727231077905486,-0.02174108022696732,0.4547987099421769,-1.482842125941415
1.2134085408040636,-1.4621405448950995,-0.02173861761638821,0.4393756611033481,-1.510530688384583
1.2090609297355144,-1.5484800905851586,-0.021737493069104722,0.4240197957972177,-1.5363831966639907
1.2047135774647302,-1.631755273957765,-0.021736029638737043,0.40873203792886764,-1.560235673235637
1.2003667248675585,-1.7119798357588394,-0.021732496332980127,0.39351358008188103,-1.5819151868821688
1.1960209653450238,-1.7891677850035634,-0.02172509889236709,0.3783659123653287,-1.6012389862349778
1.1916772585303899,-1.8633334617712265,-0.021711969253972795,0.36329085531127214,-1.618013562001505
1.187336946253291,-1.9344916070375788,-0.021691153517015633,0.34829059735224926,-1.6320336348458149
1.183001771081902,-2.0026574405182416,-0.02166059819687398,0.333367737454375,-1.6430810676853496
1.1786738978105598,-2.067846747615249,-0.021618134516549984,0.3185253335157198,-1.6509237041077682
1.174355938315175,-2.1300759766817805,-0.02156146043729902,0.30376695714956337,-1.6553141392083632
1.1700509802645775,-2.189362347940637,-0.02148812006867484,0.2890967554389916,-1.6559884361699186
1.1657626202561293,-2.2457239754988763,-0.0213954800158069,0.27451952014339426,-1.6526648124718846
1.1614950020438033,-2.2991800039744774,-0.02128070210745296,0.26004076461265213,-1.6450423353530503
1.157252860654587,-2.349750761260779,-0.021140711784709356,0.24566680825034345,-1.632799689433291
1.1530415733572512,-2.397457928851324,-0.020972161188648794,0.23140486765507692,-1.6155941136769436
1.14886721867651,-2.4423247308563916,-0.020771385618761334,0.21726315239558455,-1.5930606551630788
1.1447366449680654,-2.48437614224553,-0.02053435146568626,0.20325096149579133,-1.564811960649006
1.140657550539147,-2.523639115771104,-0.020256592823497285,0.18937877375995749,-1.530438934005645
1.136638578002145,-2.5601428252006357,-0.019933132546522545,0.1756583205353648,-1.489512742756615
1.132689426629403,-2.59391891952113,-0.019558381180898834,0.16210262266957537,-1.4415888798219154
1.1288209881725306,-2.6250017781215718,-0.019126003387824206,0.1487259633348754,-1.3862143022088038
1.1250455143115239,-2.6534287498556637,-0.018628735222243398,0.1355437540060706,-1.3229391048235235
1.12137682825208,-2.6792403483957514,-0.01805812537219547,0.12257223139480922,-1.2513347660845686
1.1178306000450842,-2.702480361448025,-0.017404156697763185,0.10982789912790598,-1.1710217100568427
1.1144247166522154,-2.723195811760391,-0.016654677230923457,0.09732660399573151,-1.0817096556813
1.1111797963027883,-2.74143668487163,-0.015794526263347583,0.0850821271166284,-0.9832546154430015
1.1081199264663144,-2.7572553186752344,-0.014804172101390182,0.07310421091938334,-0.8757356048277551
1.1052737525346836,-2.7707053506135537,-0.013657567214917114,0.06139610846379078,-0.7595503682394928
1.1026761225560986,-2.7818401782238595,-0.012318732570932637,0.04995216763925199,-0.6355197949490934
1.1003706334835324,-2.7907110801703965,-0.010736158154728587,0.03875685182609674,-0.5049720711997404
1.0984137343841003,-2.7973655897696332,-0.008832832839592884,0.027788244166265318,-0.3697510475012431
1.0968819802100531,-2.801847668539729,-0.0064847089008787245,0.017032543534714,-0.23207196686772344
1.0958881233920836,-2.8042039727186463,-0.0034538592788166188,0.006530498254424958,-0.09415862019289564
