x,y,v_x,v_y,omega
2.375,32.48,0.0,3.0769230769230766,-2.612244897959184
2.3743893481023393,31.871837738990095,-0.0061065189766063635,3.004699533175947,-2.445215639581459
2.372648445034641,31.277829039131724,-0.01130251170037754,2.9353874654077483,-2.2941517547764247
2.3699464103155785,30.697410103497315,-0.015717835490246045,2.8688018909363584,-2.1570754984616825
2.3664283949520297,30.13005255605149,-0.01946231814524203,2.8047735835218877,-2.032298224785559
2.362219248897564,29.575260462092782,-0.02262914239941663,2.7431473560651978,-1.9183724704462266
2.3574265740588762,29.03256766882896,-0.02529760598745865,2.683780576573027,-1.814052853821555
2.352143275220719,28.501535423304475,-0.02753538239411497,2.6265418786718273,-1.718264013396683
2.3464496989521586,27.981750231875573,-0.029400380291489624,2.5713100356171887,-1.6300741975213833
2.3404154330324913,27.472821931048458,-0.03094227890518301,2.5179729726539413,-1.5486734144466239
2.334100825090363,26.97438194406449,-0.03220380051610246,2.46642689718574,-1.4733552800624303
2.327558268154238,26.486081701362217,-0.0332217688451452,2.416575529836991,-1.4035018777019983
2.3208332920367445,26.0075912061415,-0.0340279923297879,2.3683294223701874,-1.3385710822414885
2.313965492438837,25.53859772883134,-0.03465000364929058,2.3216053507313896,-1.2780859087523626
2.306989323992762,25.078804616421785,-0.03511168081145808,2.2763257733642055,-1.2216255310647082
2.299934778879839,24.627930204439902,-0.035433770317768246,2.2324183464546135,-1.168817682981077
2.2928279689380187,24.185706820892612,-0.03563432910043881,2.189815489018294,-1.1193322084875033
2.2856916261415487,23.75187987281333,-0.035729098864261344,2.148453991774515,-1.0728755701523922
2.2785455338545493,23.32620700717497,-0.03573182400573081,2.1082746646090937,-1.029186159295321
2.2714068992243095,22.908457338899364,-0.03565452229666658,2.069222018146943,-0.9880302792292084
2.264290675403492,22.49841073952883,-0.03550771591151,2.031243975558418,-0.9491986953136148
2.2572098409052965,22.0958571808496,-0.03530062907044691,1.9942916112338729,-0.9125036637820572
2.250175642247804,21.700596128386817,-0.03504135750447773,1.958318913393954,-0.8777763661663613
2.2431978050897317,21.312435980240174,-0.03473701407624495,1.923282568072473,-0.8448646883004655
2.23628471826467,20.93119354721044,-0.03439385417437043,1.8891417622248665,-0.8136312928694905
2.229443594456286,20.55669357058926,-0.03401738390947035,1.8558580039869292,-0.7839519426937029
2.222680610700025,20.18876827435629,-0.03361245365313743,1.8233949583427933,-0.7557140387328664
2.216001031428914,19.827256948855627,-0.0331833390579732,1.7917182966638265,-0.7288153424296105
2.2094093163869246,19.47200556331364,-0.03273381136192047,1.7607955587560404,-0.7031628566936428
2.2029092154005974,19.122866404817366,-0.032267198501352574,1.7305960262067213,-0.6786718437333062
2.196503851717998,18.779697741601225,-0.03178643832464521,1.7010906059546433,-0.6552649612056308
2.190195795385214,18.442363508693248,-0.03129412500319125,1.672251723125176,-0.6328715008929405
2.183987127927552,18.11073301415331,-0.030792549573432384,1.6440532222741921,-0.6114267164145964
2.177879499429599,17.7846806642984,-0.030283735406094324,1.6164702762749026,-0.5908712284210889
2.171874178960687,17.464085706454785,-0.029769469283025127,1.5894793021612375,-0.5711504973554175
2.165972099165961,17.1488319879075,-0.02925132866423561,1.563057883311614,-0.5522143552535583
2.160173895735042,16.838807729834432,-0.028730705644955373,1.537184697419059,-0.5340165892329878
2.154479942367317,16.53390531511765,-0.028208828032295415,1.5118394497487473,-0.5165145703197055
2.148890381772945,16.234021089019482,-0.027686777911420865,1.4870028112329519,-0.4996689221180854
2.1434110528361328,15.939055773679083,-0.027106511456703876,1.4626503421710204,-0.4817495831312977
2.138046941498842,15.648913652744657,-0.026534601916200422,1.4387708671732427,-0.46464663393231265
2.1327963386882183,15.363501806113216,-0.025971426190039427,1.4153475991411626,-0.4483132482069338
2.1276574676640396,15.082730594996676,-0.02541728405174849,1.392364512024262,-0.43270579359138056
2.122628498481922,14.80651351404219,-0.024872407769425224,1.3698062975205823,-0.41778357928787857
2.11770756064612,14.534767051819951,-0.024336970588598437,1.3476583247018052,-0.40350862627567535
2.112892754165794,14.267410559116385,-0.023811094214659996,1.3259066023338602,-0.3898454578620511
2.1081821592028023,14.004366124514554,-0.02329485541525587,1.3045377436844532,-0.3767609085657294
2.1035738444764895,13.745558456783385,-0.022788291847873062,1.2835389336272398,-0.364223949543252
2.0990658745712305,13.490914773633776,-0.02229140720471717,1.2628978978688667,-0.35220552896120577
2.0946563162752025,13.240364696432884,-0.02180417575556182,1.242602874140034,-0.34067842588698627
2.0903432440637135,12.993840150498361,-0.021326546359326043,1.222642585205204,-0.32961711642089997
2.0861247448271314,12.75127527062206,-0.02085844600649454,1.2030062135577955,-0.3189976509253156
2.081998921931786,12.512606311498406,-0.02039978294696314,1.1836833776787488,-0.3087975413244035
2.0779638986919577,12.277771562755891,-0.019950449451318037,1.1646641097463946,-0.2989956575526014
2.0740178213220446,12.046711268311785,-0.019510324247813845,1.1459388346946566,-0.28957213232292345
2.070158861430034,11.819367549789828,-0.019079274672291955,1.1274983505249117,-0.2805082734689794
2.0663852181064164,11.5956843337589,-0.018657158563881865,1.1093338097843604,-0.271786483188311
2.062695119656481,11.375607282567401,-0.018243825935472652,1.0914367021306388,-0.26339018358044614
2.059086825018478,11.159083728563473,-0.0178391204445589,1.0737988379086543,-0.2553037479318399
2.055558624905313,10.946062611505472,-0.01744288068709427,1.056412332671352,-0.24751243725243102
2.052108842703166,10.736494418980204,-0.017054941334374067,1.0392695925813396,-0.2400023416155986
2.0487358351566614,10.530331129658563,-0.016675134130669768,1.022363300635072,-0.23276032589548476
2.045437992866863,10.327526159229489,-0.016303288767314496,1.0056864036556739,-0.22577397953349582
2.0422137406254164,10.128034308863473,-0.015939233647153994,0.9892321000044779,-0.21903156999979417
2.0390644566307374,9.931985646286346,-0.015553606299633121,0.9712545257667844,-0.24701048105504692
2.0359889517734477,9.739521540963231,-0.01520144227326586,0.953386527464361,-0.2765691188663069
2.0329805928138995,9.55062037058936,-0.01488214732221492,0.9356251762743426,-0.307602784202498
2.0300328717745812,9.365261087448243,-0.014595063070965735,0.9179676551368352,-0.34000904935896636
2.027139418143776,9.183423196458826,-0.014339473237088975,0.9004112547573462,-0.37368753418064027
2.0242940098880706,9.005086733985454,-0.014114609319962997,0.8829533699763581,-0.4085396865014362
2.0214905833768775,8.83023224733816,-0.013919655791969385,0.8655914964965955,-0.4444685661046822
2.0187232423151538,8.658840774892408,-0.013753754825267629,0.8483232279609246,-0.481378631310592
2.0159862657742247,8.49089382675869,-0.01361601058402193,0.8311462533762628,-0.519175527291438
2.013274115404936,8.326373365932927,-0.013505493108867584,0.8140583548813781,-0.5577658752028041
2.010581441912305,8.165261789858882,-0.013421241817440206,0.7970574058590663,-0.5970570611998297
2.007903090866369,8.00754191233338,-0.01336226864192238,0.7801413693959386,-0.6369570243802991
2.0052341079200002,7.853196945684189,-0.01332756082176321,0.7633082970959771,-0.6773740426612898
2.0025697435011267,7.702210483148875,-0.013316083366970157,0.7465563282571572,-0.718216515552302
1.9999054570439667,7.554566481380775,-0.013326781204632395,0.7298836894238541,-0.7593927427346586
1.9972369208216452,7.410249243005239,-0.013358581018582184,0.713288694331495,-0.80081069729371
1.9945600234408563,7.269243399145683,-0.013410392789305548,0.696769744264054,-0.8423777923761023
1.9918708730580914,7.131533891834319,-0.013481111038343851,0.6803253288495916,-0.8840006399580356
1.989165800376412,6.9971059562169415,-0.01356961577844915,0.6639540273241987,-0.9255848003109214
1.9864413614818042,6.8659451024544715,-0.01367477316763108,0.647654510300513,-0.967034520636866
1.983694340578849,6.738037097216065,-0.013795435861920117,0.631425542083551,-1.0082524612165682
1.9809217526868443,6.613367944649301,-0.013930443058126142,0.615265983584074,-1.0491394072650349
1.9781208463596276,6.49192386670207,-0.014078620214041515,0.5991747958882343,-1.0895939645244055
1.9752891064952867,6.373691282658047,-0.01423877842936793,0.5831510445520038,-1.1295122364365113
1.9724242573057427,6.258656787732839,-0.01440971346607273,0.5671939047000868,-1.1687874805290128
1.9695242655209522,6.146807130560642,-0.014590204381831406,0.551302667021884,-1.2073097414165952
1.9665873439083081,6.038129189381266,-0.014779011744607683,0.5354767447718962,-1.2449654575616513
1.9636119551948306,5.932609946714173,-0.014974875390168674,0.5197156818990278,-1.2816370386565643
1.9605968164880814,5.830236462279377,-0.015176511677324802,0.5040191624489371,-1.3172024101824886
1.9575409043015686,5.730995843893858,-0.015382610187801819,0.48838702140626744,-1.3515345213692644
1.954443460301913,5.63487521603626,-0.01559182980875565,0.47281925716971357,-1.3845008124318878
1.9513039979084505,5.541861685731,-0.015802794125867926,0.4573160458828904,-1.41596263659831
1.9481223098915117,5.451942305354876,-0.016014086043519723,0.4418777578783458,-1.4457746320838298
1.9448984771336093,5.365104031913919,-0.016224241535506105,0.4265049765312377,-1.4737840388290135
1.9416328787385737,5.28133368227444,-0.01643174241484809,0.4111985198635398,-1.499829954531901
1.938326203697675,5.200617883759154,-0.016635007994139438,0.3959594652893295,-1.523742524318169
1.9349794643494513,5.122943019435564,-0.01683238548809652,0.3807891779465802,-1.545342058375154
1.931594011901943,5.048295167328888,-0.01702213898698642,0.3656893431201767,-1.5644380721313107
1.9281715543229834,4.976660032684585,-0.017202436802611014,0.3506620033228601,-1.5808282442454022
1.92471417694708,4.908022872286086,-0.017371336956423955,0.3357096006621333,-1.5942972890052363
1.921224366197382,4.842368409702281,-0.017526770540554383,0.3208350251759252,-1.6046157420554124
1.9177050368798656,4.779680740198884,-0.017666522634607922,0.30604166985805875,-1.611538662163315
1.9141595635763629,4.719943223903076,-0.017788210400420175,0.2913334931000131,-1.6148042577056199
1.9105918167465565,4.6631383656708785,-0.017889257897644045,0.2767150892219766,-1.6141324557613166
1.9070062042512061,4.609247679987444,-0.01796686705586003,0.2621917676123693,-1.6092234456717385
1.9034077191367498,4.558251539158604,-0.018017984088703427,0.2477696406760251,-1.5997562499398965
1.8998019946861313,4.510129003070372,-0.018039260417482387,0.23345572020629743,-1.5853874067270706
1.8961953679599084,4.464857628970719,-0.018027006844746615,0.21925802079021092,-1.5657498948707984
1.8925949533540878,4.422413260172561,-0.017977139213457904,0.20518566719135398,-1.5404525014871455
1.889008728133827,4.382769793455925,-0.01788511298915066,0.19124899997500033,-1.5090799342997543
1.8854456325433642,4.34589892651697,-0.017745842915477875,0.17745966941454905,-1.4711941308958383
1.8819156880730852,4.311769889456922,-0.01755360178731176,0.16383070118594023,-1.426337436234267
1.8784301390042843,4.280349168590988,-0.017301888900696047,0.15037650747340855,-1.3740386362277561
1.8750016248210581,4.251600237586327,-0.016983252931565766,0.13711280257319566,-1.3138232839150896
1.8716443950994273,4.225483321170092,-0.016589044284741464,0.12405636158917348,-1.2452303704281178
1.8683745850979858,4.201955231616406,-0.016109055729673256,0.11122453394767928,-1.1678381885086424
1.8652105812081397,4.180969338915968,-0.015530983168789486,0.09863439305670428,-1.0813031445223389
1.8621735234945234,4.162475761492189,-0.014839593967373166,0.08630138118108734,-0.985416012690745
1.8592880223120585,4.146421890696434,-0.014015417857275368,0.07423732677644665,-0.8801799135122901
1.8565832148256995,4.132753373595875,-0.013032657006314027,0.06244784422913033,-0.7659113822916691
1.8540943684266422,4.121415637318098,-0.011855806984259205,0.05092951854864085,-0.643357027604039
1.8518653821340914,4.112355868662949,-0.010434055941249356,0.03966816800283822,-0.513799174714544
1.8499528433112054,4.105524930687945,-0.008691332287610468,0.028641211747196835,-0.37909327537471227
1.8484331810604764,4.100877739323288,-0.006505290219679335,0.017830701899378534,-0.24154930003235586
1.8474181806274634,4.098368006556534,-0.003644714110451341,0.007266625768156636,-0.10356978302077646
