x,y,v_x,v_y,omega
2.375,32.48,0.0,3.5897435897435894,-6.653061224489796
2.3729996425102486,31.736571568747102,-0.019051023711916405,3.490527184093512,-6.140005418085737
2.3673490816424496,31.013450551716808,-0.03476384169569317,3.396339644766406,-5.686914191239028
2.358689919759367,30.309623955260683,-0.047704366714620146,3.306770797672882,-5.28479165614585
2.3475558608139604,29.624159912285144,-0.058334289908300675,3.2214581830465514,-4.926232836081851
2.3343923718721205,28.956198456352652,-0.06703227144255247,3.140079492500993,-4.605103229282873
2.319572395051822,28.304943721698127,-0.07411036494124666,3.0623465518278117,-4.316290621063964
2.303408986297099,27.669657284686554,-0.0798268612942088,2.9880004673300387,-4.055511095793787
2.286165542631615,27.049652431140462,-0.08439641171039694,2.9168076616803638,-3.8191561590797916
2.268064122822773,26.444289183691527,-0.08799806265952946,2.848556599738056,-3.6041713507480373
2.249292250469197,25.852969959756706,-0.09078167404119378,2.7830550567840673,-3.407959195718115
2.230008501752794,25.27513575784827,-0.0928730756388343,2.7201278185343587,-3.228301117454192
2.210347114456426,24.710262790374294,-0.09437823194562228,2.6596147288368504,-3.0632942357704733
2.190421804728156,24.157859496713485,-0.09538662260933309,2.6013690203137143,-2.911299927915826
2.170328939483104,23.617463882442074,-0.09597399877211424,2.5452558775092244,-2.7709017453491662
2.1501501823978093,23.08864114005985,-0.096204640135455,2.491151192797665,-2.6408708153998726
2.12995470807027,22.570981514059092,-0.09613321060301253,2.4389404834000215,-2.520137264269329
2.109801060542445,22.064098379176386,-0.09580628966198815,2.3885179440543163,-2.4077665092278555
2.0897387178564304,21.56762650550938,-0.09526364068100916,2.3397856146790708,-2.3029395076723493
2.069809412772785,21.081220488125723,-0.09453926487751575,2.292652646117711,-2.204936236623128
2.0500482505615807,20.604553322032253,-0.09366227999109997,2.2470346500105767,-2.113121821263828
2.030484657381333,20.137315106055315,-0.09265765505887909,2.202853121198331,-2.0269348449170446
2.011143186801861,19.67921186141927,-0.0915468266503745,2.160034922954511,-1.9458774626172914
1.992044207205572,19.229964452686737,-0.0903482171238075,2.1185118268791006,-1.8695070116279227
1.9732044888853564,18.789307600308042,-0.08907767164015083,2.078220100537066,-1.7974288689729219
1.9546377064644584,18.356988975371387,-0.08774882760649481,2.039100136954893,-1.729290351465247
1.9363548696514916,17.932768368292464,-0.08637342775509474,2.00109612093958,-1.6647754902276348
1.9183646931994411,17.516416924165014,-0.084961586073958,1.9641557278932953,-1.6036005411860859
1.900673915171544,17.10771643834024,-0.08352201419172912,1.928229851390263,-1.5455101169199903
1.8832875711580916,16.706458706534665,-0.08206221450781825,1.893272356281861,-1.4902738447070767
1.8662092308794933,16.312444924400644,-0.08058864528835473,1.8592398545183475,-1.4376834714929705
1.849441202606615,15.925485132046585,-0.07910686207239245,1.8260915012346017,-1.3875503495428048
1.8329847099926067,15.545397699476823,-0.07762163901340069,1.7937888089536305,-1.3397032472487909
1.816840045211392,15.17200884934416,-0.07613707318864409,1.762295478024109,-1.2939864384121047
1.8010067017125064,14.805152213780055,-0.07465667441978885,1.7315772416340292,-1.250258030640203
1.7854834894104252,14.44466842239505,-0.0731834427428899,1.7016017239374313,-1.2083884995822576
1.770268634712827,14.090404718831621,-0.07171993532947425,1.672338309999991,-1.1682594007912463
1.7553598674432949,13.742214603507954,-0.07026832438035678,1.6437580264158764,-1.1297622352331966
1.7407544964189483,13.3999575004188,-0.06883044728008574,1.6158334315760512,-1.0927974480093297
1.7264494751935795,13.063498446061931,-0.06740785010437925,1.588538514679833,-1.057273542834883
1.7124414592646793,12.73270779873922,-0.06600182540895612,1.561848602679306,-1.0231062973265626
1.6987268558622497,12.407460966642528,-0.06461344509037409,1.5357402744320567,-0.9902180662684219
1.6853018672834494,12.087638153278768,-0.06324358899343595,1.5101912814132994,-0.9585371618186984
1.6721625286057527,11.773124118917831,-0.061892969841772574,1.4851804744051365,-0.92799730114133
1.6593222138219599,11.463810599228033,-0.06039574238482506,1.4606625702596139,-0.8937757472009282
1.6467925693175927,11.159593275321043,-0.05893420527581549,1.4366452764736248,-0.8611664302182069
1.6345661420027562,10.860368947819843,-0.05750795962738788,1.4131102235378192,-0.8300738927953515
1.6226355706813103,10.56603818380362,-0.056116529148288616,1.3900399099500365,-0.8004094041768267
1.610993600863901,10.276505139933612,-0.05475937387465822,1.367417650716727,-0.7720904111144855
1.5996330968930046,9.991677396011294,-0.05343590203863881,1.345227529495819,-0.7450400395319623
1.5885470517454556,9.711465798235672,-0.05214548031897258,1.3234543540815418,-0.7191866417484618
1.5777285948299986,9.43578431148633,-0.050887442685378065,1.3020836149597967,-0.694463384617104
1.567170998055912,9.164549880013336,-0.049661098020207926,1.2811014466877706,-0.6708078744543864
1.5568676804127537,8.897682295964351,-0.04846573667653936,1.260494591874005,-0.6481618150949384
1.5468122112700775,8.635104075224273,-0.04730063611085304,1.240250367555325,-0.6264706958079944
1.5369983125788527,8.376740340083522,-0.046165065710334546,1.2203566337851777,-0.6056835061661497
1.5274198601327544,8.122518708288329,-0.04505829091917243,1.2008017642642697,-0.5857524752692072
1.518070884027,7.872369188060375,-0.043979576754679214,1.1815746188591076,-0.5666328330016258
1.508945568434564,7.626224078704098,-0.042928190792328944,1.162664517867329,-0.5482825912458804
1.5000382508040633,7.384017876448453,-0.041903405688633495,1.1440612179007088,-0.5306623431899089
1.4913434205700518,7.145687185195783,-0.04090450130195281,1.1257548892675873,-0.5137350790582431
1.4828557174546615,6.911170631874327,-0.03993076646366719,1.1077360947462882,-0.49746601676636404
1.4745699294292018,6.680408786112714,-0.038981500445473646,1.0899957696500204,-0.48182244614891284
1.4664809903953364,6.4533440839748195,-0.038056014162767826,1.0725252030918448,-0.46677358554688214
1.4585839776375986,6.229920755511785,-0.03715363114902083,1.0553160203656446,-0.4522904496587796
1.4508741090921276,6.010084755904991,-0.03627368833165725,1.0383601663657307,-0.43834572766772123
1.443346740470513,5.793783699989341,-0.03541553663609973,1.0216498899738067,-0.42491367075197606
1.4359973622723867,5.580966799960596,-0.03457854144129264,1.0051777293475803,-0.4119699881719615
1.4288215967158067,5.37158480608381,-0.03376208290708874,0.9889364980503709,-0.399491751203233
1.421822217967002,5.165733058283749,-0.03289866708152754,0.9715563381406936,-0.41483541282250547
1.414999759884373,4.963519027775931,-0.032077124181605084,0.9542915714575669,-0.4321438055763079
1.4083454995751068,4.7649188212605935,-0.03129678352569139,0.9371389667837379,-0.4513024422307822
1.4018508624467245,4.569909210544342,-0.03055690341128339,0.9200954209900827,-0.47220001344269447
1.3955074363669233,4.378467606208339,-0.029856678301109905,0.9031579536385281,-0.49472813513202085
1.3893069843783152,4.190572032364681,-0.029195245399917462,0.8863237020153714,-0.5187811042408895
1.3832414560913429,4.006201102412561,-0.028571690666487203,0.8695899165762427,-0.5442556618750418
1.377302997869688,3.8253339957094674,-0.0279850543016541,0.8529539567865484,-0.5710507628549022
1.37148396191431,3.647950435075785,-0.02743433574956463,0.8364132873437562,-0.5990673507274529
1.3657769143447662,3.4740306650537995,-0.0269184982460909,0.8199654747703794,-0.628208137307492
1.3601746423696814,3.303555430844167,-0.02643647294519199,0.8036081843689915,-0.6583773858275648
1.3546701606320757,3.136505957844445,-0.025987162651052602,0.7873391775331033,-0.6894806967798536
1.349256716809709,2.9728639317153913,-0.025569445181011258,0.7711563094102748,-0.7214247955305079
1.3439277965456355,2.8126114789010863,-0.02518217638159219,0.7550575269164559,-0.7541173207771019
1.3386771277797462,2.655731147529014,-0.024824192817354228,0.7390408671032838,-0.7874666129028941
1.3334986845482009,2.5022058886154603,-0.024494314149743613,0.7231044558829425,-0.8213815012569988
1.3283866903143082,2.352019037500334,-0.024191345220663175,0.707246507118263,-0.8557710893570757
1.323335620891571,2.205154295433566,-0.023914077853024532,0.6914653220890451,-0.8905445369702094
1.318340207017302,2.0615957112325525,-0.023661292378108826,0.6757592893491757,-0.9256108379777434
1.313395436633405,1.9213276629266183,-0.023431758897100186,0.6601268849930497,-0.9608785928702941
1.3084965569296365,1.7843348393001612,-0.023224238281648227,0.6445666733541476,-0.996255774649292
1.3036390762039114,1.6506022212408133,-0.023037482915733203,0.6290773081634506,-1.0316494868303656
1.2988187655940253,1.52011506279257,-0.022870237178419916,0.6136575342007742,-1.0669657121508451
1.2940316607355438,1.3928588718062827,-0.022721237664261113,0.5983061894781679,-1.102109050477687
1.2892740634016095,1.2688193900709308,-0.022589213135112016,0.5830222080013767,-1.1369824442922676
1.2845425431820627,1.1479825727986608,-0.022472884193905276,0.5678046231631145,-1.1714868899938289
1.2798339392616187,1.03033456732431,-0.02237096266746615,0.5526525718307129,-1.2055211331130293
1.2751453623599591,0.9158616908660058,-0.02228215068167201,0.5375652992007407,-1.238981345360371
1.2704741969005307,0.80455040717694,-0.02220513940812372,0.5225421645046344,-1.2717607812508551
1.2658181034796994,0.6963873018993958,-0.022138607456937017,0.5075826476624501,-1.3037494118461739
1.261175021713774,0.5913590564101767,-0.022081218885209555,0.49268635699677465,-1.3348335329399819
1.2565431735483923,0.4894524199212462,-0.022031620785093527,0.4778530381358879,-1.3648953447823544
1.2519210671230006,0.39065417957023385,-0.021988440409112447,0.4630825842547126,-1.393812500200292
1.2473075012927977,0.29495112820194436,-0.021950281783296097,0.4483750478242292,-1.4214576177284397
1.2427015709217235,0.20233002950356394,-0.02191572175074297,0.4337306540651398,-1.4476977561282074
1.238102673073079,0.1127775801120876,-0.02188330537920299,0.4191498163298977,-1.4723938464596995
1.2335105142393807,0.026280368262206366,-0.02185154065601895,0.4046331536689554,-1.4954000777025607
1.2289251187703845,-0.057175171514622036,-0.02181889238204089,0.39018151087225306,-1.5165632318333364
1.2243468386781935,-0.13760280819432325,-0.02178377516263494,0.3757959813153601,-1.5357219643084727
1.2197763650214004,-0.2150165691954058,-0.021744545378251882,0.3614779329806576,-1.5527060261465928
1.2152147410968244,-0.2894308011553264,-0.021699491998662068,0.34722903806619637,-1.567335424356727
1.2106633776982347,-0.36086023734905837,-0.021646826083144537,0.3330513066360107,-1.5794195184730206
1.2061240707373373,-0.4293200726500146,-0.021584668782544312,0.31894712480167653,-1.5887560526505258
1.2015990215643813,-0.49482604703885613,-0.021511037626559846,0.30491929794917416,-1.595130125467138
1.1970908603755568,-0.5573945387738704,-0.021423830838435423,0.29097109952713773,-1.598313103719126
1.1926026731541306,-0.6170426684411865,-0.021320809365623465,0.2771063258758626,-1.598061492749112
1.1881380326652224,-0.67378841519308,-0.021199576243024664,0.26332935747547476,-1.5941157851543515
1.1837010341151033,-0.7276507465406681,-0.021057552805728578,0.24964522678729303,-1.5861993234601421
1.1792963362022966,-0.7786497630653102,-0.020891951125763367,0.2360596924950397,-1.5740172324882482
1.1749292084410974,-0.8268068593071689,-0.020699741838037418,0.22257931933215316,-1.5572555065618878
1.1706055858465603,-0.8721449018127245,-0.020477616205172685,0.20921156167315155,-1.5355803794819927
1.1663321323625644,-0.914688424772848,-0.020221940785264098,0.19596484747087534,-1.5086381672735536
1.162116314837993,-0.9544638427050813,-0.019928702305892932,0.18284865664561023,-1.4760558633753562
1.15796648998619,-0.9914996780001744,-0.019593439139849827,0.169873584260045,-1.437442894820026
1.1538920077232664,-1.0258267985306588,-0.019211153840373207,0.15705137317315684,-1.392394631602573
1.1499033357733697,-1.0574786564388887,-0.0187761980634055,0.14439489261948696,-1.34049849955982
1.1460122127832766,-1.086491513049225,-0.018282116127956237,0.13191802747897952,-1.2813439015810926
1.142231840940661,-1.112904625796297,-0.01772142523028597,0.11963542725500531,-1.2145376196599644
1.138577135104934,-1.1367603603133034,-0.017085297014733054,0.10756204433553647,-1.1397269429430195
1.1350650551141064,-1.1581041739529496,-0.016363083850291952,0.09571237128016087,-1.05663336384002
1.1317150633833277,-1.1769843970291731,-0.015541599299980073,0.08409927706480777,-0.9651000510373531
1.1285497744977318,-1.193451719761775,-0.014604009134268287,0.07273236800761408,-0.8651558257052886
1.1255959024831848,-1.2075582894254424,-0.013528105289988586,0.061615914503470426,-0.757095759888851
1.1228856741382451,-1.2193563626977877,-0.012283593233245346,0.05074668809028122,-0.641571618076504
1.1204589849856685,-1.2288965979008424,-0.010827732029388006,0.04011269479594966,-0.5196716175520131
1.1183667976016425,-1.2362264033181916,-0.009097862104194394,0.029694975845484382,-0.3929481962123948
1.1166768953193251,-1.2413894532742233,-0.0069964453464478465,0.019476928497708643,-0.26333265123161864
1.1154854500524696,-1.244429202001676,-0.004350652433129507,0.009473059382795065,-0.13287582174261126
1.1149526009620228,-1.245408004557639,-0.0007241008092205045,-0.00015113027839189566,-0.0033389386289982004
