x,y,v_x,v_y,omega
2.375,32.48,0.0,2.358974358974359,-3.224489795918368
2.3743885026903313,31.989646222298465,-0.005823783901605297,2.311061619135478,-3.054021009028442
2.372630553307845,31.50918882730824,-0.01091859116969714,2.264723095057146,-2.896738527695958
2.369870215384003,31.038306177797228,-0.01537034143831572,2.2198735669524674,-2.7512984876899993
2.366234662745371,30.576693865363314,-0.019253969405804143,2.176434170513401,-2.6165203792739167
2.3618363235535464,30.1240634420254,-0.02263497527823836,2.1343317660381484,-2.4913643269640104
2.356774724104522,29.68014127581949,-0.02557073376009061,2.093498388303846,-2.374911912241221
2.3511380787465748,29.244667514789175,-0.028111602982262247,2.053870764365829,-2.266349927176395
2.345004664402464,28.817395146198855,-0.030301866961648938,2.015389888875327,-2.1649565631541847
2.3384440117763265,28.398089139784616,-0.03218053900156632,1.978000648403127,-2.070089630979554
2.33151794008823,27.986525665487633,-0.033782048504111074,1.9416514877586257,-1.9811764820719078
2.324281457876875,27.58249137746131,-0.03513682969927363,1.9062941124920647,-1.8977053593110598
2.3167835488612214,27.18578275726292,-0.036271827592664556,1.8718832227306736,-1.8192179535317037
2.309067858911408,26.796205510076977,-0.03721093383413166,1.8383762742783432,-1.7453029800742672
2.3011732977343944,26.413574008605778,-0.03797536308980484,1.805733263542594,-1.6755906210486837
2.2931345668397323,26.037710779929732,-0.03858397876412238,1.7739165333721325,-1.6097477044992476
2.2849826236429527,25.668446031207427,-0.03905357549092059,1.7428905973164666,-1.5474735126043333
2.276745090129792,25.30561721057093,-0.0393991246344191,1.712621980174001,-1.4884961282943838
2.268446613296361,24.949068599988614,-0.03963398806492215,1.6830790729909042,-1.4325692439293307
2.2601091835599454,24.598650937227866,-0.03977010466284833,1.6542320009209786,-1.379469367502376
2.251752416470872,24.254221064361772,-0.039818153328324155,1.626052502565606,-1.3289933716781388
2.2433938023220663,23.91564160053548,-0.039787695707919506,1.5985138195895878,-1.2809563391884957
2.235048927628288,23.582780636944875,-0.03968730137568495,1.5715905955589962,-1.2351896649883054
2.2267316719141412,23.25551145218825,-0.03952465780666797,1.545258783075512,-1.1915393813496988
2.218454382794251,22.93371224633418,-0.03930666714466773,1.5194955583918148,-1.1498646769378587
2.210228031938491,22.61726589221037,-0.03903953148161564,1.4942792427873821,-1.1100365850181961
2.202074497736722,22.306061690925468,-0.03861317520189704,1.469570293259285,-1.0688198065521808
2.194013129969938,21.999993052519816,-0.03816175591033317,1.4453691201278795,-1.0295652082154845
2.1860488052656653,21.698955309832876,-0.037688955558931994,1.4216570007001084,-0.9921555071347706
2.178185668312256,21.402847633952813,-0.037198063044966666,1.398416102919557,-0.9564817589088259
2.1704272100599606,21.11157285278115,-0.036692015548321785,1.3756294320486746,-0.9224426710764423
2.1627763377191123,20.825037280392987,-0.03617343531689921,1.3532807811719214,-0.8899439806340109
2.1552354374553393,20.54315055642401,-0.03564466243331942,1.3313546851993039,-0.8588978889370187
2.1478064305767486,20.265825494779612,-0.03510778402945003,1.3098363780806663,-0.8292225480841424
2.140490823916119,19.992977941019433,-0.03456466035749592,1.2887117529686372,-0.8008415935514311
2.133289755030578,19.724526637822997,-0.03401694807622778,1.26796732509269,-0.7736837184301294
2.1262040327705045,19.460393097989744,-0.03346612106733227,1.247590197128729,-0.7476822851361151
2.1192341737072478,19.20050148447006,-0.03291348905892299,1.2275680268682663,-0.7227749709111838
2.112380434854542,18.94477849696296,-0.03236021430017728,1.2078889970088746,-0.6989034438346492
2.105642843070293,18.693153264652167,-0.03180732650219536,1.188541786903446,-0.6760130664149296
2.099021221482893,18.445557244684704,-0.03125573623494579,1.169515546120014,-0.6540526241409687
2.0925152132486757,18.201924126026043,-0.030706246948078584,1.1507998696767379,-0.6329740766476878
2.0861243029139036,17.962189738353025,-0.030159565764036247,1.1323847748282223,-0.6127323293926675
2.079847835625314,17.726291965670633,-0.029616313174914685,1.1142606792898064,-0.5932850239567775
2.0736850344071884,17.494170664361633,-0.029077031759611214,1.0964183807959156,-0.5745923452728965
2.067635015699838,17.26576758539886,-0.02854219402467967,1.0788490378971471,-0.5566168442570913
2.0616968033338665,17.041026300469262,-0.028012209460762837,1.0615441519085325,-0.539323274468203
2.0558693410963755,16.819892131776378,-0.027487430896291343,1.0444955499284783,-0.5226784415569316
2.050151504029044,16.602312085304185,-0.026968160221153795,1.0276953688543096,-0.5066510643861448
2.0445421085835864,16.38823478734023,-0.026454653545106108,1.0111360403261818,-0.4912116468119518
2.03903992174724,16.177610424069655,-0.02594712584866913,0.9948102765364488,-0.4763323592115463
2.033647491120864,15.97053197617165,-0.02540935630729226,0.977365417730264,-0.48882904842782327
2.02836513168891,15.767104577799245,-0.02489882875894024,0.9600383762926322,-0.5033649366695008
2.023187115117906,15.567303835901694,-0.024415614774430085,0.9428258322554869,-0.5198241357479151
2.0181077095490667,15.371106040815611,-0.02395967635737198,0.9257245971357563,-0.5380939729548921
2.0131212016284135,15.178488139236073,-0.023530875267895466,0.9087316083836589,-0.558064741692815
2.0082219166560114,14.989427708308163,-0.02312898161212605,0.8918439242631115,-0.5796294602376351
2.00340423700301,14.803902930750269,-0.02275368174979548,0.8750587191454047,-0.6026836376769299
1.9986626189346355,14.621892570924022,-0.022404585568052273,0.8583732791998189,-0.6271250460929358
1.9939916079676114,14.44337595176897,-0.022081233165511756,0.8417849984673209,-0.6528534980820117
1.989385852881617,14.268332932522782,-0.02178310098681563,0.825291375305901,-0.679770628717279
1.9848401184963362,14.096743887149817,-0.02150960744442986,0.8088900091985242,-0.7077796810702577
1.9803492973182588,13.928589683402677,-0.0212601180610689,0.7925785979170948,-0.7367852944101224
1.975908420154735,13.76385166244236,-0.02103395016296709,0.7763549350383043,-0.7666932941956288
1.9715126657867477,13.60251161894331,-0.02083037715119925,0.7602169078097701,-0.7974104829646184
1.9671573697864593,13.444551781609697,-0.02064863237535685,0.7441624953675221,-0.8288444312090617
1.9628380325607824,13.289954794028695,-0.02048791263108956,0.7281897673086755,-0.8609032672995225
1.9585503266979865,13.138703695785544,-0.020347381300300095,0.7122968826260927,-0.893495465491329
1.9542901036906937,12.990781903763228,-0.02022617115010836,0.6964820890150208,-0.9265296310051642
1.9500534001055065,12.846173193547312,-0.020123386804054257,0.6807437225651441,-0.9599142811266836
1.9458364432669628,12.704861680853167,-0.020038106896361096,0.6650802078552698,-0.993557621212531
1.9416356565215174,12.5668318028888,-0.01996938591740633,0.6494900584720307,-1.0273673144230404
1.9374476641458291,12.432068299561482,-0.019916255755814873,0.6339718779786092,-1.0612502439242353
1.9332692959627924,12.300556194430442,-0.019877726939771828,0.6185243613646471,-1.095112266212609
1.929097591728509,12.172280775300653,-0.01985278957721329,0.6031462970142975,-1.1288579541147277
1.9249298053537982,12.047227574344383,-0.01984041399146014,0.5878365692359013,-1.1623903278990142
1.92076340902491,11.925382347627178,-0.019839551045571027,0.5725941614041543,-1.195610572808242
1.9165960972898828,11.80673105390347,-0.019849132145163914,0.5574181597740113,-1.228417741177467
1.9124257911795481,11.691259832533511,-0.019868068905642453,0.542307758035106,-1.2607084371426345
1.9082506424355667,11.57895498035776,-0.019895252465609976,0.5272622626863288,-1.2923764817695196
1.9040690379221892,11.469802927346823,-0.019929552423700165,0.5122810993225995,-1.3233125562410004
1.8998796043037425,11.363790210824249,-0.019969815371030413,0.49736381994002354,-1.353403820533643
1.8956812130762632,11.26090344803546,-0.020014862985914154,0.48251011138177247,-1.3825335047939937
1.8914729860493598,11.161129306808501,-0.02006348965126221,0.4677198050654452,-1.4105804703941802
1.8872543013834207,11.064454474020497,-0.020114459548157028,0.45299288815363026,-1.437418737411091
1.8830248002978802,10.970865621547283,-0.02016650317127577,0.4383295163531618,-1.4629169750425868
1.8787843945785787,10.880349369331881,-0.02021831320302375,0.4237300285554071,-1.486937951261766
1.8745332750265709,10.792892245159763,-0.02026853967324288,0.4091949635600183,-1.5093379378370777
1.8702719210072842,10.70848064067437,-0.02031578431996257,0.3947250791579942,-1.529966066742864
1.8660011112780617,10.6271007631047,-0.020358594053585383,0.3803213738864743,-1.5486636339966813
1.861721936294198,10.548738582106896,-0.02039545341178342,0.3659851118069086,-1.5652633471518798
1.8574358122191137,10.473379771043774,-0.02042477587473322,0.3517178506990067,-1.5795885131408147
1.853144496893874,10.401009641939549,-0.020444893889455217,0.3375214741031247,-1.5914521640417987
1.848850108055649,10.33161307325232,-0.020454047426971975,0.3233982276800129,-1.6006561198272728
1.844555144134958,10.265174429505663,-0.020450370865324027,0.30935076038337866,-1.6069899895232531
1.840262508009031,10.20167747171583,-0.020431877953029465,0.2953821709483699,-1.610230115875971
1.835975534145368,10.141105257448036,-0.020396444558045596,0.2814960601734709,-1.6101384741639344
1.8316980196384096,10.083440029243643,-0.020341788841558527,0.2676965893921709,-1.6064615440526246
1.8274342597274258,10.028663090094671,-0.020265448405906644,0.2539885453599596,-1.5989291855764318
1.8231890884917354,9.97675466462755,-0.02016475383876349,0.24037741146975744,-1.5872535681960993
1.8189679255601434,9.927693744732213,-0.020036797890684924,0.22686944467629513,-1.5711282279397283
1.814776829860707,9.881457918594045,-0.01987839924680431,0.21347175663959245,-1.5502273655156735
1.8106225616994966,9.838023182544312,-0.019686059431389576,0.20019239621500032,-1.524205553174049
1.8065126548328485,9.797363735973722,-0.019455910727165182,0.18704042826681921,-1.492698097346978
1.802455500751338,9.759451760953421,-0.01918365195388501,0.17402600049795325,-1.4553224179812414
1.7984604482303848,9.72425719046974,-0.018864467293289087,0.16116038506092445,-1.411680967911222
1.7945379224933822,9.691747472718095,-0.018492920678162827,0.14845597447853914,-1.3613664445326108
1.7906995703582362,9.661887344285468,-0.018062813942274228,0.13592620107029754,-1.3039703622520902
1.7869584409524788,9.634638633003132,-0.01756698992208447,0.12358533495194185,-1.2390964763124273
1.7833292167223753,9.609960122571856,-0.016997050364613162,0.11144809772686536,-1.166381078269235
1.779828517706611,9.5878075263299,-0.01634294026171234,0.09952900933937688,-1.0855227693076586
1.776475315254534,9.56813363631899,-0.015592321186641996,0.08784137171692445,-0.9963247766352576
1.7732915124351505,9.550888732852869,-0.014729610426535138,0.07639580415088783,-0.8987527412306816
1.7703027818366874,9.53602134936638,-0.013734490511208569,0.06519832429186714,-0.7930091633650342
1.7675398049826907,9.52347946474379,-0.012579574764950495,0.05424819592328107,-0.6796205224387698
1.7650401474869497,9.513212095748077,-0.011226687099250003,0.04353627070255161,-0.5595220062522334
1.7628511776873719,9.505171008139904,-0.009620644325298223,0.03304551604197192,-0.4341064396192456
1.761034869090535,9.499311723233035,-0.007677532787434802,0.0227571973567854,-0.305182983899213
1.759676803925084,9.495591779735179,-0.005256421169239642,0.012670835956128624,-0.17478290424958917
1.7589092475773227,9.49395961479155,-0.0020536392856308574,0.002873592078436151,-0.044783574961257344
