x,y,v_x,v_y,omega
2.375,32.48,0.0,2.564102564102564,-4.816326530612245
2.374103403666981,31.972529749941113,-0.008965963330188986,2.5105999364862863,-4.55367706024644
2.3715284081483823,31.47557516806974,-0.016783991855799624,2.458945882227452,-4.312082035106042
2.3674906919155956,30.98877724442118,-0.023593170472065227,2.409033354258141,-4.089318780314397
2.3621799531423116,30.511797495840923,-0.02951421726077579,2.3607641315444066,-3.88344519129198
2.3557633133399767,30.044316300497492,-0.03465218076257316,2.31404782188989,-3.692758999979933
2.348388225714724,29.586031417177068,-0.039098695489952054,2.268801011314347,-3.5157637197608316
2.3401849685243907,29.13665666268087,-0.04293387641338382,2.2249465336476675,-3.3511400452987883
2.3312687892129254,28.69592072536947,-0.046227916701266955,2.1824128394663442,-3.1977217323111216
2.321741753515902,28.263566096651306,-0.04904244026897037,2.1411334477152715,-3.054475175323823
2.311694344412869,27.83934810521752,-0.051431650761356064,2.101046466622574,-2.9204820524258532
2.301206848258759,27.423034041249032,-0.0534433107797475,2.0620941730623423,-2.794924524954938
2.290350559283714,27.014402359790616,-0.055119578970700404,2.0242226415217845,-2.6770725743548014
2.2791888286215976,26.613241954097116,-0.05649772765046234,1.987381415413223,-2.5662731337026115
2.2677779798897193,26.219351491082474,-0.05761075966832095,1.9515232147332127,-2.4619407318133906
2.256168109922479,25.832538802100856,-0.0584879400040848,1.916603675082941,-2.363549416579255
2.2444037904231466,25.4526203232045,-0.059155254989236815,1.8825811138806368,-2.27062576374476
2.2325246839327995,25.079420579790458,-0.059635809914237316,1.849416320259752,-2.1827428095468937
2.220566085537367,24.712771711195657,-0.059950174040089586,1.817072365688256,-2.09951477203017
2.2085594000737956,24.352513031347904,-0.06011668059561963,1.7855144327893067,-2.020592447534779
2.196532563198839,23.998490622047857,-0.06015168815394864,1.7547096602111376,-1.945659186754708
2.1845104135038813,23.650556955856814,-0.060069808795628656,1.724627001699296,-1.8744273695903575
2.172515021859852,23.308570545908957,-0.05988410764466205,1.6952370977792774,-1.8066353103469603
2.160565983327651,22.97239562026388,-0.059606277677347094,1.6665121586714962,-1.7420445351124225
2.1486806762470545,22.641901818672643,-0.05924679312861846,1.6384258572408783,-1.680437381752614
2.136874492500502,22.31696390985494,-0.058815044336909775,1.610953230936145,-1.621614880184456
2.125161042420728,21.997461527580946,-0.058319456460825786,1.584070591803833,-1.5653948766670844
2.1135523373590206,21.68327892402324,-0.05776759415625095,1.5577554437731818,-1.5116103709839281
2.1020589525423508,21.37430473899559,-0.05716625401044495,1.5319864065033126,-1.4601080397329538
2.09069017251315,21.07043178382864,-0.056521546281564,1.506743145166209,-1.4107469226290872
2.079454121156914,20.77155683875102,-0.05583896728079524,1.4820063056099815,-1.3633972518592392
2.0683691795831676,20.47758378052224,-0.05501044845666854,1.4577242766778096,-1.314516231852401
2.0574512548389046,20.188419898401435,-0.05416879898596125,1.4339145445302717,-1.2678652393356387
2.046702663647826,19.903972420222857,-0.05331711292482598,1.4105602372555115,-1.22331613679504
2.036125138602403,19.624151870742867,-0.05245813752940295,1.3876452575443643,-1.1807495450184362
2.0257198938929832,19.348871921218908,-0.051594309564796485,1.3651542376952521,-1.1400541491963128
2.0154876841665526,19.078049247673746,-0.05072778769950947,1.3430724977563426,-1.1011260673616579
2.0054288572535017,18.811603397243324,-0.049860481430999436,1.321386006547854,-1.063868274916237
1.9955434014169982,18.54945666205537,-0.04899407693403618,1.300081345331706,-1.0281900796825023
1.985830987705942,18.291533960130458,-0.048130060176524825,1.2791456739174145,-0.9940066425284461
1.9762910079276441,18.037762722837464,-0.04726973760645297,1.2585666990125257,-0.9612385391481499
1.9669226086992182,17.788072788471887,-0.04641425467780712,1.2383326446432497,-0.9298113590529883
1.957724721986239,17.54239630155891,-0.045564612451983365,1.2184322244865367,-0.8996553382455028
1.9486960924926617,17.30066761751337,-0.04472168248379012,1.1988546159688336,-0.8707050224168672
1.9398353022265735,17.06282321231655,-0.043886220177092816,1.1795894359993562,-0.8428989578356266
1.9311407925314603,16.82880159689491,-0.043058876774039245,1.1606267182170626,-0.8161794073852494
1.9226108838417315,16.598543235909126,-0.04224021012324879,1.1419568916407636,-0.7904920894654827
1.9142437933938046,16.371990470682945,-0.04143069435602109,1.1235707606210636,-0.7657859377014847
1.9060376510996788,16.14908744602072,-0.040630728585235566,1.1054594860012112,-0.7420128796086313
1.8979905137682627,15.929780040680445,-0.03984064472892773,1.0876145674015338,-0.7191276325427252
1.890100377840437,15.714015801285388,-0.03906071454932829,1.0700278265490277,-0.6970875154276779
1.882365190786679,15.501743879472492,-0.03829115598825268,1.0526913915799367,-0.6758522748978404
1.8747828613007564,15.292914972089612,-0.03753213887097186,1.0355976822488544,-0.6553839246220162
1.8673512684093652,15.087481264266419,-0.036783790042939565,1.0187393959830715,-0.635646596692538
1.8600682696053836,14.885396375195548,-0.03604619799687735,1.002109494725626,-0.6166064040671436
1.8529317081015342,14.686615306471502,-0.03531941704161853,0.9857011925148309,-0.5982313131450934
1.8459452941240937,14.491280496431344,-0.03454472273278472,0.9676469078867631,-0.6175388100573349
1.8391099207067292,14.299545138954386,-0.03380901144085945,0.9497066668828178,-0.6386372484556534
1.8324178658535852,14.111386735731607,-0.03311153709058198,0.9318773653449732,-0.6614111534371386
1.8258615633425634,13.926783396811015,-0.03245148801963439,0.9141560238609349,-0.6857477514585764
1.8194336151922839,13.745713816109586,-0.031827993483162224,0.8965397831533499,-0.7115367170189394
1.8131268028842942,13.568157247804812,-0.03124012959673433,0.8790258998943672,-0.7386699254624578
1.8069340974489507,13.394093483522074,-0.030686924756698073,0.8616117429330232,-0.7670412108740983
1.8008486685159464,13.2235028302362,-0.030167364573344853,0.8442947899257084,-0.7965461280521539
1.7948638924237168,13.056366088807351,-0.029680396348952535,0.8270726243627565,-0.8270817175481372
1.7889733594758626,12.89266453307237,-0.029224933129589417,0.8099429329870435,-0.8585462727621829
1.7831708804272512,12.732379889413327,-0.02879985735652256,0.7929035036034014,-0.890839108072538
1.7774504922775844,12.575494316724917,-0.028404024140146665,0.7759522232807046,-0.9238603269602055
1.7718064634459185,12.42199038670168,-0.028036264176512758,0.7590870769516902,-0.9575105890640778
1.7662332983958908,12.271851064364611,-0.027695386323763706,0.7423061464189982,-0.991690875067557
1.7607257417782094,12.125059688744752,-0.027380179853050395,0.7256076097795865,-1.0263022482742064
1.7552787821543263,11.981599953638426,-0.027089416385782005,0.7089897412836749,-1.0612456116768623
1.749887655363115,11.841455888345184,-0.026821851526328905,0.6924509116487356,-1.0964214592611938
1.7445478475908303,11.704611838294923,-0.026576226196518542,0.6759895888538763,-1.1317296202102076
1.7392550982036372,11.571052445465003,-0.026351267675412834,0.6596043394453084,-1.1670689945898745
1.734005402401606,11.440762628481515,-0.026145690344897308,0.6432938303895812,-1.2023372789970468
1.728795013753265,11.313727562290762,-0.025958196138512194,0.6270568315179686,-1.2374306805382695
1.7236204466706464,11.18993265727767,-0.02578747468767513,0.6108922186129682,-1.2722436173811011
1.7184784788862846,11.06936353769673,-0.02563220315594185,0.5947989771964284,-1.3066684039773522
1.7133661539958727,10.952006019268236,-0.02549104574817799,0.5787762070885333,-1.3405949188995523
1.7082807841333127,10.837846085777592,-0.025362652877419758,0.5628231278179073,-1.3739102530575946
1.7032199528487983,10.726869864498234,-0.025245659967724984,0.5469390849756721,-1.406498335871928
1.6981815182653865,10.619063600238608,-0.02513868586639259,0.531123557620599,-1.4382395367736034
1.693163616595399,10.514413627790667,-0.025040330833482734,0.5153761668588097,-1.469010239181735
1.6881646661049992,10.412906342530782,-0.024949174070514966,0.49969668574004067,-1.4986823838788346
1.683183371623602,10.314528168893421,-0.024863770743458004,0.48408505063358,-1.5271229784696163
1.6782187297045028,10.219265526402975,-0.024782648447534073,0.46854137427087816,-1.5541935693781534
1.673270034554469,10.127104792909009,-0.024704303052803665,0.4530659606687765,-1.5797496726252713
1.6683368848632085,10.038032264624384,-0.02462719385980214,0.437659322177476,-1.6036401594531566
1.6634191916788825,9.952034112513552,-0.02454973798345699,0.4223221989308525,-1.6257065927573395
1.6585171874934515,9.869096334519128,-0.02447030387085365,0.40705558101337336,-1.6457825102912118
1.6536314367219875,9.789204703048071,-0.02438720384378552,0.3918607336971928,-1.6636926507884464
1.6487628477836147,9.712344707063956,-0.024298685539942813,0.376739226143948,-1.6792521195953896
1.6439126870189802,9.63850148804892,-0.02420292210640159,0.36169296400639706,-1.6922654912499653
1.639082594710858,9.567659769008078,-0.02409800097482101,0.3467242264020117,-1.702525847874206
1.6342746035115705,9.499803775592024,-0.02398191101805403,0.33183570775850363,-1.7098137545343413
1.6294911596247006,9.434917148312042,-0.023852527850645528,0.3170305650413311,-1.713896176252975
1.6247351471408598,9.37298284472272,-0.023707596987761616,0.3023124708518807,-1.7145253466885542
1.620009915990728,9.313983030356411,-0.023544714513557618,0.2876856728112018,-1.7114376064273582
1.6153193140570563,9.257898957126724,-0.023361304823158322,0.2731550594856815,-1.7043522405118736
1.610667724086729,9.204710827896257,-0.02315459488011337,0.25872623281899193,-1.6929703619098235
1.6060601061733224,9.154397645960824,-0.022921584253953076,0.24440558653533387,-1.6769739124870708
1.6015020467540242,9.106937048391064,-0.022659009939029213,0.23020038916225427,-1.6560248890954308
1.596999815304561,9.06230512257245,-0.022363304555604056,0.21611886902389785,-1.6297649544946666
1.5925604302574996,9.020476206016188,-0.022030545915009615,0.20217029653871843,-1.5978156678974702
1.5881917361701126,8.98142267075464,-0.021656394958860382,0.18836505607676418,-1.5597796775891601
1.58390249492026,8.945114695645643,-0.02123601753966386,0.1747146950132154,-1.5152433714332314
1.5797024948621325,8.911520033061905,-0.020763983041612498,0.16123193082414908,-1.4637816971534905
1.5756026836709485,8.880603781245046,-0.020234128870227807,0.1479305873444356,-1.4049661633108372
1.5716153334396294,8.852328180719748,-0.01963937344296283,0.13482541790852615,-1.3383774333141252
1.5677542510928255,8.826652463350058,-0.018971450025074943,0.12193175578836994,-1.2636244353462522
1.5640350543598536,8.803532796511298,-0.018220517304646952,0.10926491259920905,-1.1803724951164702
1.5604755449738799,8.782922382348179,-0.017374576555088887,0.09683922903198386,-1.0883835120736751
1.5570962288691925,8.764771790932986,-0.01641858449178405,0.08466668511995767,-0.9875712597504812
1.5539210616633095,8.749029618959629,-0.01533308756704745,0.07275503461360185,-0.8780736485368004
1.5509785426854872,8.735643554593796,-0.014092102211173718,0.061105609044733965,-0.7603396490334374
1.5483033540887345,8.724561857965156,-0.012659783756353168,0.04971135724165607,-0.6352191718314634
1.5459388748964664,8.715735071542934,-0.010985008166326856,0.03855650698057131,-0.504027607086505
1.543941204272854,8.709117350051223,-0.00899169806979792,0.02762070793654843,-0.368535386821511
1.5423862687542165,8.704665904274439,-0.006557657116577826,0.016893749831281883,-0.23081920824656577
1.5413857030383107,8.702334385209678,-0.003448000042479386,0.006421440816337706,-0.0929270276437564
