x,y,v_x,v_y,omega
2.375,32.48,0.0,2.923076923076923,-7.26530612244898
2.3736047714339863,31.93075451304392,-0.014686616484356098,2.8584545185660177,-6.840254543367508
2.3696082124610918,31.393551761077447,-0.027382425335583722,2.796311291607365,-6.452164930734587
2.36336403048574,30.867936148039306,-0.038345805983911435,2.7364846351098877,-6.096814448802639
2.3551803431249834,30.353481475977393,-0.04779827149773363,2.6788277023839444,-5.770558946404709
2.345326120505011,29.849788152641526,-0.05593038765987366,2.6232072800988475,-5.47024110454791
2.3340366051552617,29.356480768169295,-0.06290661602169793,2.5695020301351765,-5.1931152006367505
2.3215178928805114,28.8732059780211,-0.06886930265988395,2.5176010240563285,-4.936785097621051
2.30795082076233,28.39963064211825,-0.07394198279465504,2.467402511763176,-4.699152840547526
2.293494279737141,27.935440179980482,-0.07823213325996896,2.4188128791606807,-4.478375821495553
2.2782880468372926,27.480337109296357,-0.08183347621211626,2.371745759619586,-4.272830910868751
2.262455214598082,27.034039741335125,-0.0848279157795758,2.326121271551289,-4.081084286425956
2.246104281188288,26.596281011322088,-0.08728717274457114,2.2818653601648875,-3.901865948175741
2.229330953675543,26.166807425645974,-0.08927416949484876,2.238909225899455,-3.7340481066497175
2.2122197078656,25.74537811076742,-0.09084420745192007,2.197188825453763,-3.5766267881459033
2.194845140885505,25.331763951118063,-0.09204597128592534,2.1566444340131623,-3.428706123597545
2.1772731467566415,24.925746805245836,-0.09292238796526871,2.1172202593786924,-3.2894848854152667
2.1595619403495445,24.527118791069686,-0.0935113636883838,2.078864100370228,-3.158244914690024
2.1417629511152008,24.135681632430156,-0.09384641772575869,2.041527043203787,-3.0343411438497507
2.1239216046809157,23.751246060217994,-0.09395722895092562,2.0051631906084375,-2.917192970521683
2.1060780076517913,23.373631262275932,-0.09387010819775321,1.9697294193080075,-2.806276779488032
2.088267548667774,23.00266437703354,-0.09360840742348016,1.935185162190834,-2.701119443184596
2.070521426848393,22.63818002647963,-0.09319287488579395,1.9014922120608422,-2.60129265869716
2.052867117146426,22.28001988462237,-0.09264196408228205,1.8686145443314222,-2.5064080018470096
2.0353287807743445,21.928032278051916,-0.09197210299225744,1.8365181564101953,-2.4161125976604185
2.0179276277201503,21.58207181561779,-0.09119792915715479,1.8051709218437304,-2.3300853220288134
2.000682237396829,21.24199904457452,-0.09033249529885977,1.7745424575591022,-2.248033462276851
1.9836088426432748,20.907680130843847,-0.08938744947539647,1.7446040027637948,-2.1696897751372997
1.9667215815904284,20.578986561297093,-0.08837319318614369,1.715328308254696,-2.094809889664335
1.9500327213050082,20.255794866183418,-0.08729902034459501,1.6866895350471316,-2.0231700102074552
1.9335528566083997,19.937986360023686,-0.08617323961970573,1.6586631613710863,-1.9545648809655551
1.917291087026588,19.625446899459618,-0.08500328229410092,1.6312258971980522,-1.8888059790474103
1.9012551744472677,19.318066656697447,-0.08379579748821843,1.6043556055616464,-1.8257199075465518
1.8854516837331035,19.015739907317105,-0.08255673634508824,1.578031230020942,-1.7651469640310877
1.8698861082577192,18.718364831334604,-0.0812914265536948,1.5522327276895853,-1.7069398631643047
1.8545629820867604,18.42584332650888,-0.08000463840376437,1.52694100731803,-1.6509625950021816
1.8394859803147936,18.138080832976314,-0.07870064340641224,1.5021378719721277,-1.5970894029357667
1.8246580088851556,17.854986168378453,-0.07738326637925028,1.4778059659000955,-1.5452038673232456
1.810092075634126,17.57647626839551,-0.0759423467894818,1.4538771918150737,-1.4916605049694092
1.7957989381775539,17.3024708670009,-0.07451173170075462,1.4303901912860846,-1.440459648665505
1.78177647160704,17.03288748070836,-0.0730931795678123,1.407329664424883,-1.3914718029629394
1.7680222402965344,16.767646468581415,-0.0716882026480338,1.3846809895429486,-1.344575988235732
1.7545335421155959,16.506670907004604,-0.0702980939934242,1.3624301849497749,-1.2996590909671009
1.7413074477916384,16.249886471467423,-0.06892395152191882,1.3405638733363534,-1.2566152702736608
1.7283408359449366,15.99722132488937,-0.06756669949599557,1.3190692485378974,-1.2153454152302314
1.7156304242615312,15.748606012051834,-0.06622710769774483,1.297934044488799,-1.175756648138237
1.7031727972174653,15.50397335973642,-0.06490580855557802,1.2771465061997778,-1.1377618693930536
1.690964430722124,15.263258382200213,-0.06360331244801402,1.2566953626023845,-1.1012793400589502
1.6790017140080913,15.026398191646617,-0.06232002138390977,1.236569801119689,-1.0662322986618964
1.6672809690592363,14.79333191337599,-0.061056241235617585,1.216759443834269,-1.0325486090668232
1.6557984678371156,14.564000605323844,-0.059812192681443915,1.197254325135687,-1.0001604366225054
1.6445504475377493,14.338347181715687,-0.05858802099609517,1.178044870739644,-0.9690039500388554
1.6335331240859594,14.116316340587318,-0.05738380481221924,1.1591218779800168,-0.9390190467122835
1.622742704052369,13.897854494937317,-0.05619956396241831,1.1404764972831671,-0.9101490994385311
1.6121753951585351,13.682909707294993,-0.055035266498989883,1.1221002147413097,-0.8823407226521797
1.6018274155182262,13.471431627502266,-0.05389083497794741,1.1039848357084476,-0.8555435565106865
1.5916950017473024,13.263371433521858,-0.05276615208440598,1.086122469348487,-0.829710067300696
1.5817744160608203,13.058681775097035,-0.0516610656680404,1.0685055140706945,-0.8047953627876814
1.5720619524636157,12.857316720100012,-0.050575393249901145,1.0511266437927183,-0.7807570212585333
1.5625539421296222,12.659231703416985,-0.04950892605529268,1.0339787949760026,-0.7575549331221835
1.5532467580553195,12.464383478227916,-0.048461432621578496,1.0170551543826347,-0.735151154037174
1.5441368190639335,12.272730069548448,-0.047432662024589796,1.0003491475065047,-0.713509768628532
1.5352205932291407,12.084230729909986,-0.04642234676270364,0.983854427635183,-0.6925967639405032
1.5265034797820904,11.899061229386742,-0.045336742153615696,0.965298209451609,-0.7175940519952066
1.5179877005341573,11.717406926977105,-0.04430303940357415,0.9468523422287778,-0.7441576386166173
1.509663542178963,11.539247130269821,-0.04331968012478645,0.9285139389005339,-0.772172596961051
1.501521589686351,11.364561684117994,-0.04238508295534055,0.9102802311186855,-0.8015262392205484
1.4935527303028722,11.1933309484367,-0.04149764739706917,0.8921485655265322,-0.8321078594760261
1.485748156861225,11.025535776668342,-0.04065575725184821,0.8741164004561791,-0.8638084808639188
1.4780993704724068,10.861157494835897,-0.03985778368307897,0.8561813030432199,-0.8965206059575815
1.4705981826695225,10.700177881105024,-0.03910208792622943,0.838340946755456,-0.93013796926411
1.4632367170679235,10.542579145776383,-0.03838702366954858,0.8205931093354922,-0.9645552907282468
1.4560074106025938,10.388343911629278,-0.037710939123396306,0.80293567116037,-0.999668029117426
1.4489030144004387,10.237455194536679,-0.03707217879402551,0.7853666140248943,-1.0353721341354734
1.4419165943423726,10.089896384270205,-0.03646908497509028,0.7678840203590456,-1.071563796076622
1.4350415313678164,9.945651225411176,-0.035899998967608045,0.7504860728938885,-1.108139191785862
1.4282715215724213,9.804703798280755,-0.035363262036550734,0.733171054794759,-1.1449942256356378
1.421600576148532,9.66703849979815,-0.03485721610965275,0.7159373502853024,-1.1820242641619383
1.4150230212170845,9.532640024170881,-0.03438020422137409,0.6987834457912226,-1.2191238629241736
1.4085334975993433,9.40149334331506,-0.03393057070221547,0.6817079316384782,-1.2561864840621482
1.402126960577115,9.27358368689642,-0.033506661110716034,0.6647095043472224,-1.2931042029191657
1.3957986796908652,9.148896521874267,-0.0331068219024383,0.6477869695701522,-1.3297674019820314
1.3895442386265666,9.02741753142054,-0.032729399827020916,0.6309392457322284,-1.3660644502557557
1.3833595352441126,8.909132593074357,-0.03237274104091466,0.6141653684381091,-1.4018813660425156
1.3772407818028576,8.79402775597893,-0.03203518991966409,0.5974644957242674,-1.4371014609305435
1.3711845054432867,8.682089217031866,-0.03171508754950349,0.580835914244822,-1.4716049626191603
1.3651875489880976,8.573303295761693,-0.03141076987354142,0.5642790464938162,-1.5052686140117972
1.3592470721311407,8.467656407722469,-0.031120565462846292,0.5477934591822498,-1.5379652458012094
1.3533605530888326,8.365135036174099,-0.030842792877238106,0.5313788729058512,-1.5695633195531562
1.3475257907959224,8.265725701788377,-0.03057575757444976,0.5150351732596355,-1.5999264380716678
1.341740907736003,8.169414930088806,-0.030317748319439928,0.4987624235779663,-1.628912819608578
1.3360043535070563,8.076189216295983,-0.030067033037893456,0.4825608795043772,-1.6563747322744553
1.330314909233784,7.9860349872087895,-0.029821854049182934,0.4664310056239936,-1.6821578848355176
1.3246716929517224,7.898938559704316,-0.029580422604097916,0.4503734944230968,-1.706100769968215
1.3190741661034155,7.814886095385987,-0.02934091264123664,0.4343892878751173,-1.7280339560285882
1.3135221413045335,7.733863550848827,-0.029101453662785066,0.4184796019897129,-1.7477793235331032
1.3080157915581385,7.655856622963235,-0.028860122615057507,0.40264595470072084,-1.765149242921534
1.3025556611188076,7.5808506885034035,-0.028614934641057365,0.38689019750802134,-1.7799456908953566
1.2971426782355997,7.508830737364274,-0.028363832550604613,0.3712145513249082,-1.7919593038608705
1.2917781700347217,7.439781298522284,-0.028104674827059348,0.3556216470118163,-1.800968368988921
1.2864638798402788,7.373686357802434,-0.02783522195655062,0.34011457109185445,-1.8067377564667544
1.2812019872762046,7.310529266421163,-0.02755312082317853,0.32469691713205917,-1.8090178011395976
1.275995131546519,7.250292639187819,-0.027255886857723566,0.30937284321892267,-1.8075431486025777
1.2708464383576437,7.192958241178118,-0.026940883551489596,0.29414713583057017,-1.8020315908843383
1.2657595510303707,7.138506861658051,-0.026605298840857612,0.27902528017013695,-1.7921829315606208
1.2607386664574836,7.086918174063548,-0.02624611771584955,0.2640135366140854,-1.7776779414507633
1.2557885767072001,7.038170580971084,-0.02586009018187076,0.24911902225396,-1.7581774968433403
1.250914717270079,6.9922410432906155,-0.025443693366771804,0.23434979543518933,-1.7333220365431226
1.246123223225541,6.949104893469457,-0.02499308604941706,0.21971493952435817,-1.7027315376927141
1.2414209950078157,6.908735633454299,-0.024504053084533503,0.20522463958255957,-1.6660063013510176
1.2368157760505216,6.871104719724098,-0.023971935939613623,0.19089024178796316,-1.6227289682262918
1.2323162454975654,6.836181340173457,-0.02339154356519018,0.17672427979772318,-1.5724683673012618
1.2279321305677924,6.803932191403831,-0.022757034642947333,0.1627404440930762,-1.5147860532709652
1.2236743453442838,6.774321270611523,-0.022061757183458156,0.14895345898386275,-1.4492467318478202
1.2195551661933501,6.747309704405467,-0.021298023352686168,0.1353788168693449,-1.375434218014643
1.215588459441931,6.722855648200721,-0.020456784556988343,0.12203230107534532,-1.292975108932511
1.2117899855072216,6.700914304610112,-0.019527151597847046,0.10892921040476158,-1.2015728992894714
1.2081778171421067,6.681438126549786,-0.018495673298099688,0.09608319023023648,-1.101055582081961
1.204772930492683,6.664377286499292,-0.017345238801096865,0.08350459977497013,-0.9914392968521181
1.201600060331278,6.649680496669138,-0.016053394476851918,0.07119845106873887,-0.8730081736907261
1.198688962125837,6.63729623220274,-0.014589744527790246,0.05916222752494169,-0.7464042738819775
1.1960763093445932,6.627174297118859,-0.012911863695828448,0.047384457568546624,-0.61270918920931
1.1938086234697018,6.619267408482873,-0.010958513934607077,0.03584594912606118,-0.4734800487714015
1.1919470714621623,6.613531933983072,-0.008636770355283282,0.024527466661321568,-0.3306837554041062
1.190576502265509,6.6099256994820905,-0.005790273820013898,0.013432896506894715,-0.18647042165495872
1.1898291679262718,6.608395890344543,-0.0020764034351156337,0.002670357572542704,-0.04276999330173409
