x,y,v_x,v_y,omega
2.375,32.48,0.0,2.4615384615384617,-6.163265306122449
2.3739182678348207,31.992731328713848,-0.010817321651793959,2.4111482513230285,-5.838209479455901
2.3708070895597637,31.515369350455572,-0.020294461098775363,2.362471531259741,-5.5382816944582425
2.3659187822962204,31.04758148768632,-0.028588611536656098,2.315407096432768,-5.260905889257333
2.359476251413916,30.589054523070708,-0.03583669728639231,2.2698625497233618,-5.003824340737309
2.351676749677988,30.13949294480778,-0.04215832007288485,2.2257532329059035,-4.76505196911409
2.342695095729681,29.698617489022,-0.047658219410186345,2.1830013249519284,-4.542838136370943
2.3326864399764196,29.266163848903023,-0.0524283381224249,2.1415350762378087,-4.3356345487787955
2.3217886496904026,28.84188152587881,-0.05654956473774869,2.101288154004328,-4.1420681626089015
2.3101243722387306,28.425532802526945,-0.06009320977896949,2.0621990795143104,-3.9609182143807447
2.2978028250968343,28.016891820446496,-0.06312226163999227,2.0242107412901715,-3.791096669455679
2.2849213530404615,27.615743749130154,-0.06569245892373825,1.9872699718732896,-3.6316315177261482
2.2715667862276376,27.22188403414858,-0.06785320920450076,1.9513271779424064,-3.4816524515305827
2.257816627436021,26.8351177148028,-0.06964837871166232,1.916336015515438,-3.340378545383405
2.2437400922571453,26.455258802905732,-0.07111697307709586,1.8822531034552352,-3.207107624607631
2.229399022369922,26.082129715590895,-0.07229372579513851,1.849037769693133,-3.0812070642324567
2.2148486889680794,25.715560756067433,-0.07320960822328643,1.8166518255414632,-2.9621058034113417
2.200138500879702,25.35538963708943,-0.07389227266048642,1.7850593642385508,-2.8492873963040037
2.18531262979682,25.00146104261595,-0.07436643816833284,1.7542265804962742,-2.742283949528314
2.1704105632536046,24.6536262237332,-0.0746542272638228,1.724121608331248,-2.6406708202308793
2.1554675944927637,24.311742625412116,-0.07477546034458364,1.6947143748795779,-2.544061968569545
2.140515257092613,23.97567354110013,-0.0747479136569234,1.6659764682402707,-2.452105874751205
2.125581711152637,23.64528779250829,-0.0745875457428383,1.637881017678136,-2.3644819443609255
2.1106920869211723,23.320459432265004,-0.07430869657181033,1.6104025847547352,-2.280897337060487
2.0958687909688978,23.001067467374067,-0.07392426295093461,1.5835170641546117,-2.2010841632318403
2.081131779344623,22.686995601644522,-0.07344585329181197,1.5572015931408325,-2.1247970011202133
2.06649880157765,22.378131995458986,-0.07288392437791688,1.5314344687145125,-2.0518106937564844
2.051985618899043,22.074369041420326,-0.07224790240815597,1.5061950716720862,-1.9819183906232272
2.037606199630233,21.775603154567584,-0.07154629027994194,1.4814637968553492,-1.914929803848136
2.0233874308448705,21.48174054088301,-0.07064139757368543,1.457162339990398,-1.846227352368021
2.0093526611863286,21.192690722244865,-0.0697062990117301,1.4333358463910508,-1.780663967675751
1.9955074348801782,20.908360418256564,-0.06874596404977565,1.4099671934919877,-1.7180589179148649
1.9818563545891121,20.628659693152713,-0.06776483886088551,1.3870400575464854,-1.6582438570737124
1.9684031807514104,20.35350180078978,-0.0667668995161312,1.364538866082894,-1.6010618401806398
1.9551509208457962,20.082803038802126,-0.06575569954001201,1.3424487537936265,-1.5463664274092626
1.942101909644515,19.816482611266558,-0.0647344124728004,1.3207555215620415,-1.494020868114786
1.9292578813976373,19.554462499274145,-0.06370586999597426,1.2994455983620976,-1.443897356825207
1.9166200347869697,19.29666733885876,-0.06267259611070196,1.2785060057917619,-1.3958763540912698
1.9041890913957407,19.043024305777152,-0.06163683780158942,1.2579243250243097,-1.3498459658726745
1.891965348358839,18.793463006676497,-0.06060059256742746,1.2376886659822377,-1.3057013758192355
1.8799487257864453,18.54791537622259,-0.05956563315650737,1.2177876385568411,-1.2633443254064871
1.8681388094902585,18.306315579795616,-0.05853352980536222,1.1982103257128685,-1.2226826374159574
1.8565348894851403,18.0685999213911,-0.057505670245818666,1.1789462583322912,-1.183629778719864
1.8451359946890196,17.83470675639144,-0.05648327771538957,1.1599853916643306,-1.1461044587460036
1.8339409241995037,17.604576408898943,-0.05546742717976959,1.14131808326064,-1.1100302603677386
1.8229482754862212,17.378151093344364,-0.05445905995305326,1.1229350722851077,-1.0753353002919668
1.8121564698028276,17.155374840106127,-0.053458996880883056,1.104827460097258,-1.0419519163097948
1.8015637750913684,16.93619342489472,-0.05246795023370916,1.086986692016809,-1.009816379034617
1.7911683266238567,16.72055430167457,-0.05148653444140705,1.069404540184691,-0.9788686259842513
1.7809681456010766,16.50840653891182,-0.050515275786395565,1.0520730874428377,-0.9490520160709356
1.7709611559064466,16.299700758951396,-0.04955462115990276,1.0349847121614042,-0.9203131027482613
1.7611451991929619,16.094389080340473,-0.04860494597494491,1.0181320739478277,-0.892601424229995
1.7515180484634927,15.892425062927956,-0.04766656131974596,1.001508100177367,-0.8658693093444368
1.74207742028886,15.693763655581268,-0.04673972042658193,0.985105973289514,-0.8400716977214066
1.7328288127846903,15.498553793430762,-0.0457463546151151,0.9669926482155341,-0.8534212162054508
1.7237747596917155,15.30695485658742,-0.04479417631463559,0.9489967202178905,-0.8687160262821337
1.7149071003090448,15.118943689411847,-0.04388241751206841,0.9311149515378684,-0.8858331778355316
1.7062178345792813,14.934497770403127,-0.04301023978556646,0.9133442385493187,-0.9046527423742694
1.6976991364783864,14.753595185881036,-0.042176741223383565,0.8956816066715916,-0.9250575393383481
1.6893433660809738,14.57621460463898,-0.04138096275074232,0.8781242057489712,-0.9469328698232609
1.6811430804152885,14.402335253475929,-0.04062189390611128,0.8606693058815553,-0.9701662566007228
1.6730910432142143,14.231936893518217,-0.03989847810463036,0.8433142936955569,-0.9946471893373082
1.6651802336614554,14.064999797244258,-0.03920961742295783,0.8260566690440297,-1.0202668739263525
1.6574038542255067,13.90150472612665,-0.03855417693652944,0.8088940421320742,-1.046917984854648
1.6497553376681444,13.741432908807074,-0.03793098863709417,0.7918241310636985,-1.0744944195237052
1.6422283533088953,13.58476601971963,-0.0373388549553966,0.7748447598107391,-1.1028910534355103
1.6348168126222569,13.431486158077796,-0.03677655191098763,0.7579538566076076,-1.1320034951345999
1.6275148742403243,13.281575827139115,-0.036242831908339344,0.741149452779198,-1.161727839771612
1.6203169484299211,13.135017913659887,-0.03573642619569081,0.7244296820130843,-1.1919604201179055
1.6132177011103188,12.991795667449455,-0.0352560470003349,0.7077927800912394,-1.2225975538159741
1.6062120574751506,12.851892680930234,-0.03480038935134559,0.6912370851009546,-1.253535285595723
1.5992952052802147,12.715292868605186,-0.0343681325980144,0.6747610381495265,-1.284669123121727
1.5924625978574647,12.581980446328966,-0.03395794162948443,0.6583631846126536,-1.3158937650607911
1.585709956914695,12.451939910272454,-0.03356846779821247,0.642042175952468,-1.347102819871911
1.5790332751801817,12.32515601546243,-0.03319834954691982,0.6257967721477865,-1.378188513721586
1.572428818951932,12.201613753768989,-0.03284621273557765,0.6096258447866372,-1.409041385815855
1.5658931306122068,12.081298331202373,-0.032510670661674304,0.5935283808795067,-1.4395499693161575
1.5594230311696906,11.9641951443683,-0.0321903237634875,0.5775034874612143,-1.4696004558690485
1.553015622894113,11.85028975591618,-0.03188375899228859,0.5615503970599978,-1.4990763416303095
1.5466682921113555,11.739567868797732,-0.03158954883528591,0.5456684741244682,-1.527858052502998
1.5403787122311658,11.632015299134011,-0.03130624996661139,0.5298572225127377,-1.5558225461383308
1.5341448470846346,11.527617947466393,-0.031032401498701036,0.5141162941634431,-1.5828428880711143
1.5279649546546707,11.426361768141472,-0.030766522800939007,0.49844549908577596,-1.6087877991827475
1.5218375912899433,11.328232736550376,-0.03050711084633333,0.4828448168251837,-1.6335211715122502
1.515761616501294,11.233216813909529,-0.03025263704016163,0.4673144095832835,-1.6569015492807873
1.5097361984495945,11.141299909231716,-0.030001543476832693,0.4518546371948584,-1.6787815718744898
1.5037608202456623,11.052467838093072,-0.029752238562489257,0.436466074191581,-1.6990073754682968
1.4978352871963216,10.966706277752795,-0.02950309193091634,0.4211495292111896,-1.717417950004881
1.491959735146346,10.8840007181275,-0.02925242856883932,0.4059060670417867,-1.7338444484171966
1.48613464008413,10.804336408061033,-0.02899852205332109,0.3907370336228815,-1.7481094453714552
1.4803608291999804,10.727698296263124,-0.02873958678817771,0.3756440843562192,-1.7600261435096387
1.4746394936104235,10.654070966216725,-0.028473769107389794,0.3606292161077834,-1.7693975263289574
1.4689722029906522,10.583438564275596,-0.028199137090322707,0.34569480330351343,-1.7760154586509547
1.4633609223911597,10.515784720092363,-0.027913668904603922,0.33084363852883797,-1.779659738389887
1.4578080315551623,10.451092458436861,-0.0276152394553695,0.31607897802619594,-1.7800971074318954
1.4523163471025575,10.389344101391217,-0.027301605070678223,0.3014045924302575,-1.7770802354552369
1.4468891480068242,10.330521159851699,-0.026970385886653833,0.2868248229649057,-1.7703466992690133
1.441530204867785,10.27460421324368,-0.026619045503739884,0.2723446431152735,-1.7596179928754028
1.436243813582025,10.221572776388967,-0.026244867353860283,0.25796972543186847,-1.7445986216027651
1.4310348341440342,10.17140515259101,-0.025844927026046405,0.2437065125477161,-1.7249753596291657
1.425908735490268,10.12407827227776,-0.025416059511617496,0.22956229058478214,-1.7004167872842588
1.4208716475495184,10.079567517045742,-0.024954819895875967,0.2155452617353905,-1.6705732772586983
1.4159304220242936,10.0378465298018,-0.02445743535637471,0.20166461070400712,-1.63507767359867
1.4110927039594277,9.998887013074054,-0.02391974529228541,0.187930556573472,-1.5935470127056641
1.4063670169513336,9.962658519706515,-0.023337124788652693,0.1743543771019287,-1.5455857827282615
1.4017628660655428,9.929128243401877,-0.02270438406925689,0.16094838594445882,-1.4907914204755361
1.3972908644016464,9.898260821380688,-0.022015632569707184,0.14772583426743965,-1.4287630179710673
1.3929628921524104,9.870018168324954,-0.021264089922652777,0.13470069628989437,-1.3591145643566305
1.3887923015405184,9.84435937032081,-0.020441816196267372,0.12188728375156777,-1.2814944757493592
1.384794188097267,9.821240680005541,-0.019539318236246273,0.10929961940110827,-1.195613610839934
1.3809857597606774,9.800615668965044,-0.018544965129649142,0.09695049100386763,-1.1012842690636688
1.377386852288676,9.782435607766164,-0.017444109590364163,0.08485012098492187,-0.9984724338547719
1.3740206656244762,9.766650150116757,-0.016217757051634613,0.07300445550915324,-0.8873639721278962
1.370914836232262,9.753208378558107,-0.014840536870508028,0.06141326007735139,-0.7684412870816604
1.3681030256425382,9.74206019269922,-0.01327756902673183,0.05006859851149569,-0.6425582915394372
1.3656273254197586,9.733157833954408,-0.01147943320106439,0.03895498893664079,-0.5109876083885625
1.3635420583683777,9.726456957084906,-0.009373237312745607,0.028053779758388353,-0.3753977241332547
1.3619204224076824,9.721915867441826,-0.006843122294206775,0.017357116672418092,-0.2377099643441758
1.3608691345040271,9.719489172524238,-0.0036697567423450185,0.00690983250347095,-0.09980146638418877
