x,y,v_x,v_y,omega
2.375,32.48,0.0,3.641025641025641,-6.163265306122449
2.3732954210892103,31.761573190408022,-0.017045789107898113,3.5432424548941017,-5.703053556400466
2.3684720399591335,31.062226871758664,-0.031188022192870014,3.4502207315994964,-5.294806664140276
2.3610628170099153,30.381045885008934,-0.0429042072993095,3.3615891358978036,-4.930982676619775
2.351513732218471,29.717185249846846,-0.05258664061513364,3.2770172157230713,-4.6053298638161
2.3401991518476852,29.06986259723473,-0.060559163092723474,3.1962093103980735,-4.312635587455707
2.327434207335817,28.438351703131083,-0.0670902820259591,3.118899630638409,-4.048529799681515
2.313484826460708,27.82197691649571,-0.07240352672512965,3.0448482357153055,-3.8093300297308366
2.2985759059208526,27.220108322181837,-0.07668567867342918,2.9738377074234292,-3.5919181874874737
2.282898002663152,26.63215751418886,-0.0800933539035788,2.9056703725063406,-3.393641983284823
2.2666128374808063,26.05757388072411,-0.08275829791987344,2.840165962141161,-3.2122355463207106
2.2498578409304963,25.49584132213947,-0.08479166758322765,2.7771596237052445,-3.0457551267828604
2.232749923095402,24.94647533782026,-0.0862875107677144,2.7165002194868504,-2.8925267292575887
2.215388611318902,24.409020429733562,-0.08732560699728316,2.6580488613801205,-2.7511032432644877
2.197858670987893,23.883047779458405,-0.08797379631281106,2.601677641371457,-2.620229177716051
2.18023230173429,23.368153162743035,-0.0882898962232167,2.5472685257822563,-2.498811516941765
2.1625709835559617,22.863955071416406,-0.08832328556006958,2.494712387484011,-2.385895530349701
2.144927033220754,22.370093017153682,-0.08811621779200371,2.4439081551432364,-2.2806446101663176
2.127344920071541,21.886225995405184,-0.08770491370012833,2.3947620623417225,-2.1823233997522933
2.1098623813605584,21.412031090930007,-0.08712047340969586,2.3471869824100704,-2.090283621810661
2.092511370021917,20.9472022089692,-0.08638963997671618,2.301101837198009,-2.0039521310896857
2.0753188619682024,20.4914489182571,-0.08553544056043258,2.256431069922994,-1.922820807201419
2.0583075452811634,20.044495393885487,-0.08457772630995707,2.213104173793111,-1.8464379754046576
2.041496409832284,19.606079449569204,-0.08353362817883707,2.171055269369724,-1.7744011007957665
2.024901252740154,19.175951650164315,-0.08241794274246421,2.130222724679197,-1.706350547488734
2.0085351125092874,18.753874496401686,-0.08124345956620375,2.0905488129470995,-1.6419642314880498
1.992408642589679,18.33962167475218,-0.0800212396298774,2.051979403547922,-1.580953025951246
1.9765304333609164,17.932977366160785,-0.07876085265775028,2.014463682366069,-1.5230568018682251
1.9609072901096507,17.533735608097032,-0.07747057985490662,1.9779538982714147,-1.4680410069967174
1.9455444733791762,17.141699704985676,-0.07615758744983665,1.942405132842163,-1.4156937020856848
1.9304459070800928,16.756681682618172,-0.07482807554099881,1.9077750908328595,-1.3658229866993945
1.9156143589256105,16.378501782615178,-0.07348740600382353,1.874023909197097,-1.3182547578848385
1.9010515970648645,16.0069879934213,-0.07214021260363714,1.841113982741667,-1.2728307539498764
1.8867585262090045,15.641975614675253,-0.0707904959549618,1.8090098047188212,-1.229406843094659
1.8727353060586018,15.283306852117189,-0.06944170554906462,1.7776778208618342,-1.1878515228495672
1.8589814544313186,14.9308304404769,-0.0680968107237684,1.7470862955410529,-1.1480446014482615
1.8454959371429709,14.584401292036084,-0.06675836215970711,1.7172051888670905,-1.109876036589457
1.8322772464024872,14.243880168779565,-0.06542854524512905,1.688006043698102,-1.0732449106654647
1.8193234692331077,13.90913337624756,-0.06410922644866791,1.6594618816219375,-1.0380585245810676
1.8066323472213,13.580032477376989,-0.06280199366940825,1.6315471070837573,-1.0042315948520868
1.7942013287153085,13.256454024776879,-0.06150819139050518,1.6042374189173345,-0.9716855408400948
1.782027614442056,12.9382793100236,-0.06022895134202103,1.577509728615461,-0.9403478508146462
1.770108197380177,12.625394128687756,-0.05896521927676767,1.5513420847429757,-0.9101515170917498
1.7584398976148294,12.31768855991784,-0.057717778376709356,1.525713602956177,-0.8810345318222026
1.7470193928037245,12.015056759507647,-0.056487269734338916,1.5006044011457518,-0.852939436133087
1.7358432448011625,11.717396765466297,-0.05527421029128195,1.4759955392677584,-0.8258129162911156
1.724919575930595,11.424612310350085,-0.053962478414392244,1.451849011894371,-0.7963466461395503
1.7142551919990225,11.136610527553522,-0.05268136090133311,1.4281688160712442,-0.7682133554071552
1.703844009147454,10.853299803273792,-0.05143046761435174,1.4049384267260567,-0.741337062121129
1.6936800269877073,10.574591753831154,-0.05020935398311786,1.382142067700316,-0.7156469370062759
1.6837573385118094,10.300401080156188,-0.04901753077585982,1.3597646690493463,-0.6910768984697017
1.674070138176799,10.0306454305273,-0.04785447257424323,1.337791827239542,-0.6675652436701235
1.664612728407629,9.765245271001909,-0.04671962511745681,1.316209768014366,-0.6450543120859349
1.6553795247299434,9.504123763028364,-0.04561241165939871,1.295005311721099,-0.6234901783885887
1.6463650597175823,9.247206647765374,-0.04453223846421417,1.2741658409087855,-0.6028223717734669
1.6375639859162305,8.99442213667205,-0.043478499549303266,1.2536792700244521,-0.5830036192052385
1.628971077884206,8.745700807964642,-0.04245058077094291,1.2335340170496374,-0.56398961030396
1.620581233473557,8.500975508566398,-0.041447863335547744,1.2137189769328123,-0.5457387818363456
1.612389474459095,8.260181261204568,-0.040469726809072626,1.1942234966854879,-0.5282121199875974
1.6043909466093962,8.023255176333933,-0.039515551687915006,1.1750373520208757,-0.5113729787763093
1.5965809192819325,7.790136368589447,-0.03858472158672068,1.1561507254239924,-0.495186913141147
1.5889547846141034,7.560765877491928,-0.03767662509156922,1.1375541855512006,-0.47962152537580344
1.5815080563728487,7.335086592150265,-0.036790657320978117,1.1192386678654342,-0.46464632372032444
1.574236368517561,7.113043179721636,-0.03592622123189777,1.101195456420876,-0.4502325920342272
1.5671354735240441,6.894582017407782,-0.035082728703271296,1.083416166717685,-0.4363532695815565
1.5602012405111454,6.679651127780652,-0.034259601425714714,1.0658927295536105,-0.42298284005161296
1.553429653206338,6.468200117244791,-0.03345627162235962,1.048617375805003,-0.41009722902282303
1.5468168077818196,6.260180117456798,-0.032672182622825105,1.0315826220749271,-0.397673709152222
1.5403589105885778,6.055543729534225,-0.03190678930959281,1.0147812571508192,-0.3856908124402793
1.5340522758122486,5.854244970897295,-0.031159558453698884,0.9982063292184724,-0.3741282489811712
1.5278997792559048,5.656411408828468,-0.030365407109739458,0.9801292914697732,-0.39742449675967584
1.521901681456307,5.46218193281598,-0.029615570886236568,0.9621654686551069,-0.422464089094574
1.5160492189431714,5.2715342073219595,-0.028909054245120816,0.9443117862850825,-0.4491350525124699
1.5103338324588038,5.084446499632019,-0.028244810598556016,0.9265652906143167,-0.47732808275476657
1.5047471765912581,4.900897656162481,-0.027621748076901244,0.9089231440810478,-0.50693629852163
1.4992811283058747,4.720867079638879,-0.027038734776932596,0.891382621154966,-0.5378550013862943
1.4939277944754568,4.5443347070653495,-0.02649460352724634,0.873941104580316,-0.5699814408798843
1.4886795185022956,4.371280988406923,-0.025988156204363875,0.8565960820039663,-0.603214583760806
1.483528886118875,4.201686865908449,-0.025518167629844195,0.839345142980781,-0.6374548864893915
1.4784687304483248,4.0355337539752405,-0.025083389075655556,0.8221859763513104,-0.6726040699278201
1.4734921364005453,3.8728035195411543,-0.02468255140213997,0.8051163679895658,-0.7085648952771622
1.4685924444753218,3.7134784628500483,-0.024314367850096774,0.7881341989214985,-0.7452409402474982
1.463763254039733,3.557541298576119,-0.023977536505790747,0.7712374438178038,-0.7825363744330809
1.4589984261436508,3.404975137207554,-0.02367074245503137,0.7544241698678514,-0.820355732832034
1.454292085934163,3.2557634666162727,-0.023392659639847345,0.7376925360449661,-0.8586036864085969
1.4496386247273114,3.1098901337340763,-0.023141952428669264,0.7210407927769831,-0.8971848085448187
1.4450327017936138,2.9673393262523717,-0.022917276908305518,0.704467282040056,-0.9360033361671815
1.4404692459124508,2.8280955542585495,-0.022717281903324612,0.68797043789816,-0.9749629242610816
1.4359434567495475,2.6921436317171654,-0.02254060972570994,0.6715487875156886,-1.0139663924015234
1.4314508061114966,2.5594686576979875,-0.022385896654798825,0.6552009526760852,-1.0529154618307812
1.4269870391315647,2.4300559972458124,-0.022251773144520422,0.6389256518456723,-1.0917104815020875
1.4225481754419358,2.3038912617783573,-0.022136863751768505,0.6227217028288639,-1.1302501413814665
1.4181305103891249,2.1809602888885813,-0.02203978677634248,0.6065880260689126,-1.1684311711564601
1.413730616351569,2.061249121415951,-0.021959153599216002,0.5905236486573916,-1.206148022339546
1.4093453442214579,1.9447439856376185,-0.021893567701894538,0.5745277091259379,-1.243292531574422
1.4049718251167442,1.831431268414466,-0.0218416233452422,0.5585994631055766,-1.2797535627541925
1.4006074723940873,1.7212974931086649,-0.021801903881327654,0.5427382899524485,-1.3154166253413033
1.3962499840393061,1.6143292940679963,-0.02177297966648347,0.5269437004542237,-1.3501634660399955
1.391897345518877,1.5105133894476523,-0.021753405537807337,0.5112153457492049,-1.3838716307141297
1.3875478331842304,1.4098365521116918,-0.021741717808658675,0.49555302761041486,-1.4164139931690831
1.383200018330244,1.3122855783236318,-0.021736430731206763,0.4799567102701678,-1.4476582471307993
1.3788527720205597,1.2178472538979044,-0.02173603236563387,0.4644265339871048,-1.477466357466037
1.374505270805393,1.1265083174404182,-0.021738979786032012,0.44896283058776576,-1.5056939664082354
1.3701570034725732,1.038255420256764,-0.021743693542165977,0.4335661412487858,-1.5321897503029023
1.365807778989969,0.9530750824494909,-0.021748551283876382,0.4182372368239487,-1.5567947221947749
1.361457735817514,0.8709536446608332,-0.021751880440673034,0.4029771410626106,-1.5793414754903081
1.3571073527901822,0.7918772148433604,-0.021751949832643207,0.38778715711210743,-1.5996533640082
1.3527574617999512,0.7158316093575685,-0.021746960069668125,0.3726688977457973,-1.6175436140724315
1.3484092625356434,0.6428022876021302,-0.021735032573410175,0.3576243198085696,-1.6328143650445437
1.3440643395753407,0.5727742792792974,-0.02171419702961773,0.342655763419748,-1.6452556360346953
1.3397246821678235,0.5057321032859399,-0.02168237704555353,0.3277659965138372,-1.6546442187645038
1.3353927070886056,0.44165967710220144,-0.021637373746626408,0.3129582653235229,-1.660742500099263
1.3310712850145143,0.3805402154296118,-0.021576846994286022,0.29823635140235555,-1.6632972232326937
1.3267637709312092,0.32235611671697484,-0.021498293838765357,0.28360463572400085,-1.6620382047791846
1.3224740391746168,0.2670888361200099,-0.021399023727158722,0.2690681702456139,-1.6566770373928537
1.3182065238162488,0.21471874339239605,-0.021276129856521813,0.25463275703051114,-1.6469058258600489
1.3139662652433948,0.16522496423866073,-0.02112645587201826,0.24030503450684254,-1.6323960316215562
1.3097589639734806,0.11858520383113813,-0.020946556827122955,0.22609256956839452,-1.6127975403211423
1.3055910430017748,0.07477555159314875,-0.020732652889936042,0.21200395281148668,-1.5877381249598506
1.3014697203524368,0.033770267115336594,-0.02048057360344462,0.1980488919666628,-1.556823561762615
1.2974030940487256,-0.004458451592803669,-0.02018568943366796,0.18423829511475384,-1.5196387785560546
1.2934002425441535,-0.039940714103394725,-0.0198428256120533,0.17058432999112366,-1.4757505923914747
1.2894713449356296,-0.07270919088159644,-0.019446150473185434,0.15710043779090485,-1.424712845634506
1.2856278272977124,-0.10279936150221403,-0.018989025905986223,0.1438012684152743,-1.3660751037692531
1.281882544704062,-0.13024973714952637,-0.018463800030517678,0.13070248805787982,-1.2993965598390673
1.2782500137076136,-0.1551020248568804,-0.017861509933965902,0.1178203890156397,-1.2242674112688856
1.2747467184817742,-0.17740118449272302,-0.01717144232442879,0.105171207342764,-1.1403406935114206
1.2713915274709378,-0.19719530861573276,-0.016380467783935326,0.09277003388734209,-1.0473781899838104
1.2682062793836129,-0.21453523290061582,-0.01547201308931287,0.0806292089615129,-0.9453140879838551
1.2652166325815217,-0.2294737705717793,-0.014424454931598342,0.06875616775008692,-0.8343383817284304
1.2624533285420765,-0.24206448198562924,-0.013208585462855183,0.05715094638842018,-0.7149964832918343
1.2599541149013347,-0.25235998909527524,-0.011783550944563495,0.04580412470805629,-0.5882889503485715
1.2577667547436797,-0.26041011075423626,-0.010090050631985993,0.034697091881540666,-0.4557334935170854
1.2559539965290347,-0.26626067720454216,-0.00803753151446324,0.023808572621487077,-0.3193251665485489
1.2546029168188921,-0.2699551929552939,-0.0054732655869621245,0.013136584886020642,-0.1813183310076942
1.253849059445686,-0.2715464453710794,-0.0020653081451003797,0.0027759392718574114,-0.04379109486003441
