x,y,v_x,v_y,omega
2.375,32.48,0.0,2.1025641025641026,-7.020408163265306
2.3742095665975094,32.10491860327826,-0.008782593361007113,2.065006972121861,-6.721098087086962
2.3719205208113734,31.736505914952435,-0.01665124870717256,2.028467342609548,-6.439837543830391
2.3682894974681554,31.3745834503081,-0.023693455106355874,1.992893375660796,-6.175142370688521
2.363458220752994,31.01898169848702,-0.029987397284325576,1.9582372001289758,-5.9256787552988115
2.357555076399949,30.669539446627574,-0.03560309552728756,1.924454487198221,-5.690245227688314
2.3506964932880132,30.326103175286086,-0.040603383494220775,1.891504083262768,-5.467757159207263
2.342988161219079,29.988526515574588,-0.04504475060504754,1.8593476913094509,-5.257233367909851
2.334526107305238,29.6566697599675,-0.048978070659856196,1.827949593213716,-5.057784502335878
2.3253976498508218,29.33039941997511,-0.05244923438920969,1.7972764067017608,-4.868602933488701
2.315682245711562,29.009587824908845,-0.05549970049145434,1.7672968718122617,-4.6889539312537245
2.305452244719635,28.69411275681481,-0.05816697719662301,1.737981662565909,-4.518167939029726
2.294773562778673,28.383857117360275,-0.06048504436962218,1.7093032202622558,-4.355633790841528
2.2837062835783697,28.07870862305028,-0.06248472452263753,1.6812356054043895,-4.200792740120281
2.272305197492262,27.778559525648312,-0.06419400976744882,1.653754365728583,-4.053133189803136
2.260620285055554,27.48330635509395,-0.0656383506404185,1.6268364182087398,-3.912186030295621
2.2486971514333938,27.192849682564443,-0.06684091182802539,1.6004599432302304,-3.777520505846779
2.2365774174524606,26.90709390162796,-0.06782279907123472,1.5746042893973795,-3.6487405415531855
2.2242990720547726,26.62594702569247,-0.06860326090307743,1.5492498876636216,-3.525481472965335
2.211896790421805,26.34932050017322,-0.06919986835211327,1.5243781736613307,-3.407407128463392
2.1994022214925453,26.07712902798975,-0.06962867530633114,1.4999715172661388,-3.2942072214756455
2.186844248147342,25.809290407165086,-0.06990436186259288,1.4760131585634657,-3.1855950154553927
2.174246725060665,25.545733886695935,-0.07006811687826668,1.4523926244271175,-3.0787992685974435
2.161629457707119,25.286391210359092,-0.07012374260557536,1.4291926682044682,-2.9765162621607772
2.1490110301223497,25.03118798308604,-0.07008100833630497,1.4063987459405485,-2.8785039029382546
2.136408342026929,24.7800523684675,-0.06994885939059575,1.3839969720432173,-2.7845355930303595
2.123836750615325,24.532914973777846,-0.06973548962722642,1.3619740800640558,-2.6943990719519824
2.111310199913235,24.289708741797085,-0.0694484070626623,1.3403173863888438,-2.607895357762474
2.0988413388792235,24.05036884893029,-0.06909449331524137,1.3190147565755386,-2.5248377776457844
2.0864416293050576,23.814832609169002,-0.06868005750882399,1.2980545741054594,-2.445051079404049
2.074121444461391,23.58303938347911,-0.06821088519858093,1.2774257113377872,-2.3683706162397575
2.0618901593398196,23.3549304942356,-0.0676922828188823,1.2571175024789847,-2.2946415980052244
2.0497562332572783,23.130449144356696,-0.06712911809824226,1.2371197183977216,-2.2237184028076213
2.037727285513023,22.909540340818964,-0.06652585683792765,1.2174225431326595,-2.1554639434855103
2.0258101647208657,22.69215082226104,-0.06588659640826197,1.1980165519553316,-2.0897490840290067
2.014011012379004,22.478228990407345,-0.06521509627909211,1.178892690863553,-2.0264521015093955
2.002335321185794,22.267724845064294,-0.06451480586768446,1.160042257392548,-1.9654581895229581
1.9907879885614894,22.060589922461233,-0.06378888995792392,1.141456882641458,-1.9066589995446084
1.9793733657926,21.8567772367255,-0.06304025191862406,1.1231285144222456,-1.849952216935493
1.9680953031766193,21.65624122429732,-0.06227155492560795,1.1050494014463816,-1.7952411686600203
1.9569571915098678,21.45893769110465,-0.06148524137162982,1.0872120784722015,-1.7424344600461938
1.9459620002297329,21.26482376233132,-0.06068355062986878,1.0696093523425547,-1.6914456381724805
1.9351123124942116,21.073857834624135,-0.05986853532036975,1.0522342888484264,-1.642192879688058
1.9244103574561002,20.885999530595406,-0.05904207621419976,1.0350802003596649,-1.5945987010740796
1.9138580399660898,20.701209655487837,-0.058205895897026794,1.0181406341688708,-1.5485896895341142
1.9034569679181652,20.519450155877735,-0.05736157130213606,1.001409361498953,-1.5040962528644248
1.8932084774318552,20.34068408030123,-0.056510545212418786,0.9848803671288762,-1.4610523868011838
1.883118898014417,20.165123448016843,-0.05559589275911794,0.9657933249198453,-1.4725515354716403
1.873191238242427,19.992988028638475,-0.054711438040771866,0.946822445950905,-1.485786216530592
1.8634201138294517,19.824257181390124,-0.05385661099228646,0.9279647456974639,-1.5006286430780726
1.8538002500448414,19.6589107907741,-0.05303076439227224,0.9092173722583062,-1.5169532830443184
1.8443264950220695,19.49692924302657,-0.052233180305192306,0.890577602714268,-1.5346365838878537
1.8349938319558539,19.33829340318574,-0.05146307598609328,0.8720428399616145,-1.5535567009500624
1.8257973902818456,19.182984592687667,-0.050719609280665226,0.8536106100169537,-1.5735932283343699
1.8167324559270708,19.030984567404687,-0.05000188355016483,0.8352785597939576,-1.5946269311738204
1.807794480714267,18.882275496041213,-0.049308952147653726,0.817044455355743,-1.616539478138693
1.7989790909987657,18.73683993880065,-0.04863982246902771,0.7989061806505249,-1.639213173015751
1.7902820956126058,18.59466082623531,-0.04799345959941697,0.7808617367421451,-1.662530684162627
1.7816994931871153,18.455721438188895,-0.04736878957269936,0.76290924155135,-1.6863747706045424
1.7732274789222569,18.320005382737726,-0.046764702259062804,0.7450469301282999,-1.7106280034958687
1.764862450868593,18.187496575032817,-0.046180053892754175,0.7272731554818029,-1.7351724816158058
1.7566010157858052,18.058179215939795,-0.04561366924933507,0.7095863899962422,-1.7598895395055538
1.7484399946402638,17.932037770367543,-0.04506434347890169,0.69198522747319,-1.7846594467837793
1.7403764278032718,17.80905694516924,-0.044530843598788394,0.6744683858413502,-1.8093610970980236
1.7324075800112202,17.689221666490788,-0.044011909646230904,0.6570347105858393,-1.8338716850823236
1.7245309451491138,17.572517056432027,-0.043506255488282304,0.639683178956001,-1.8580663695963813
1.7167442509197062,17.45892840887418,-0.043012569282915386,0.6224129050200513,-1.8818179214202908
1.7090454634618935,17.348441164314323,-0.042529513581667434,0.6052231456449887,-1.9049963534729304
1.7014327919841128,17.241040883532044,-0.04205572506034129,0.5881133074914782,-1.9274685315144673
1.6939046934812718,17.136713219896478,-0.04158981386011564,0.5710829551259448,-1.9490977631881095
1.6864598776073425,17.0354438901022,-0.04113036251687526,0.5541318203659837,-1.969743363159268
1.6790973117801822,16.93721864310012,-0.040675924451573045,0.537259812990482,-1.9892601920301658
1.6718162266005405,16.842023226964344,-0.04022502198888952,0.5204670329625802,-2.0074981666566876
1.6646161216736681,16.749843353407854,-0.03977614386524843,0.5037537843317349,-2.0243017394887497
1.6574967719295746,16.660664659627955,-0.039327742180235055,0.4871205910005091,-2.039509344619142
1.650458234546982,16.57447266712733,-0.038878228737459095,0.47056821456198533,-2.0529528083912334
1.6435008565965616,16.49125273711767,-0.03842597071165676,0.45409767443424526,-2.0644567227281905
1.636625283531393,16.410990022070152,-0.03796928556799576,0.43771027053818823,-2.073837779867704
1.629832468667074,16.333669412931293,-0.03750643514666025,0.4214076087824598,-2.080904068002683
1.6231236838109582,16.259275481473995,-0.03703561881018159,0.40519162963195926,-2.0854543285585696
1.6165005312201899,16.187792417203468,-0.036554965531686794,0.3890646400405606,-2.087277177645809
1.6099649570923302,16.11920395818813,-0.036062524777864965,0.37302934901874696,-2.086150296837883
1.6035192668215168,16.05349331513973,-0.03555625600895238,0.35708890707461416,-2.081839602154099
1.5971661422888381,15.990643088030001,-0.03503401657636502,0.3412469497001389,-2.074098405404645
1.5909086615001669,15.930635174510925,-0.034493547742205644,0.32550764495626305,-2.0626665894817555
1.5847503209413496,15.873450669413511,-0.033932458466873885,0.30987574501500154,-2.0472698295825427
1.5786950610942407,15.819069754653423,-0.03334820650100192,0.29435664120820715,-2.0276189068687227
1.5727472956547441,15.767471578995359,-0.032738076160071135,0.2789564216591619,-2.0034091812791726
1.5669119451266291,15.718634127358474,-0.032099151930097006,0.2636819298617772,-1.9743203182682212
1.561194475648702,15.672534079734039,-0.03142828671353658,0.24854082152082366,-1.9400164030732223
1.555600944172773,15.629146660408008,-0.0307220630190063,0.2335416154350857,-1.9001466296407663
1.5501380514835663,15.588445479138318,-0.02997674463884521,0.2186937320059094,-1.8543468246968637
1.544813205097113,15.550402367371738,-0.029188215210634902,0.20400750984496327,-1.8022421671044648
1.5396345948795958,15.514987214687338,-0.02835189831733648,0.18949418664835807,-1.743451596226284
1.5346112854288947,15.4821678136659,-0.027462651134896352,0.17516582470096373,-1.677594578265711
1.5297533310608924,15.451909725593985,-0.0265146196206859,0.1610351538758454,-1.604301121623949
1.5250719219500528,15.42417618510876,-0.02550103716641914,0.14711529595998862,-1.523226197187392
1.5205795740472465,15.398928069254268,-0.024413939531429688,0.13341932464549147,-1.4340700002830569
1.5162903815079818,15.376123965256319,-0.023243755349288513,0.11995960866505873,-1.3366057113007164
1.5122203594769497,15.355720380518854,-0.021978711662179372,0.10674688841790053,-1.2307163977584665
1.5083879185746343,15.337672144858235,-0.020603965030215526,0.09378906336673855,-1.1164421063560326
1.5048145323910291,15.321933052156552,-0.01910032589873155,0.08108974442973743,-0.9940364160613557
1.5015256893171112,15.308456763704818,-0.017442374922578326,0.06864679392285288,-0.8640278847624515
1.4985522683131633,15.297197926991956,-0.015595636232398971,0.0564513917756298,-0.7272750526149865
1.49593256838518,15.288113318663207,-0.013512140745192453,0.044488700766017214,-0.5849940854200865
1.4937154325711721,15.281162546061612,-0.011122701632671355,0.03274210591838255,-0.43872868408744625
1.4919655360708775,15.276307298095709,-0.008320592815046955,0.021205093702755504,-0.2902294117787715
1.490774365460685,15.273506586942936,-0.004914636187091776,0.009913919105839334,-0.14122258306884045
1.4902964792362954,15.272695840124786,-0.00039521075057158666,-0.0009056211264120116,0.006828345400592739
