x,y,v_x,v_y,omega
2.375,32.48,0.0,3.230769230769231,-4.6938775510204085
2.3740825356096678,31.90501169949547,-0.010194048781467721,3.1579896637254903,-4.408794969581728
2.3714596773469916,31.342870570507074,-0.018948820803824443,3.088022880590048,-4.149516658529346
2.3673730251550644,30.793086136346037,-0.026458425773142058,3.0206930545325883,-3.913002346371874
2.362031796609064,30.255198194327328,-0.032888558071310275,2.955839634564198,-3.696636481297517
2.355617528836349,29.728774226032737,-0.03838108384774403,2.893315568709024,-3.498160532606219
2.348288028247665,29.21340710336842,-0.04305781158208041,2.832985794227798,-3.3156173696732054
2.3401807006565183,28.708713046807507,-0.04702360609732664,2.774725945337939,-3.147305334079128
2.3314153686679573,28.214329800156378,-0.0503689715533514,2.718421239674588,-2.9917401375960995
2.3220966629903965,27.729914992425865,-0.05317220264176736,2.6639655128866853,-2.847623113306786
2.312316058288946,27.255144662338516,-0.055501182929903706,2.611260376972719,-2.713814650773997
2.3021536114056325,26.789711924964532,-0.05741489355135831,2.5602144827382323,-2.5893118816231975
2.291679449505792,26.333325763176163,-0.05896468311353902,2.510742870465886,-2.473229865755316
2.280955047427429,25.885709929212847,-0.06019533997937722,2.4627663957931727,-2.3647856729138343
2.270034326795141,25.446601943783673,-0.06114600037938134,2.4162112200865455,-2.2632848685980997
2.2589646039907154,25.015752181897465,-0.06185091966979356,2.371008356426875,-2.1681100041817474
2.247787409598658,24.59292303607827,-0.0623401291308454,2.327093263786413,-2.0787107837346235
2.236539198270739,24.177888148852915,-0.0626399967349182,2.2844054831619456,-1.99459563840231
2.225251964924964,23.770431707432955,-0.06277370710702448,2.2428883103931834,-1.9153244862962995
2.2139537806888754,23.370347794390835,-0.06276167329396194,2.202488501185922,-1.8405024940284327
2.202669259917485,22.97743978887805,-0.0626218908325964,2.1631560045116642,-1.7697746871028532
2.191419967884518,22.591519813573296,-0.062370242867038905,2.124843721096735,-1.7028212817778896
2.180224777299411,22.212408223099658,-0.062020763634151634,2.087507284165892,-1.6393536318451143
2.169100180591156,21.83993313012609,-0.06158586645756719,2.05110485998488,-1.5791107009247423
2.15806056388262,21.47392996578146,-0.061076541415058985,2.015596966066577,-1.521855985044843
2.1471184477221197,21.11424107136954,-0.06050252703494433,1.9809463051769536,-1.4673748220138962
2.1362846989156172,20.760715318687858,-0.059872459703967686,1.947117613508401,-1.4154720338580786
2.125568717190594,20.413207756529367,-0.059194003907405784,1.9140775215859853,-1.3659698567347835
2.1149785999032265,20.07157928118882,-0.05847396595223046,1.881794426642285,-1.3187061195414005
2.1045212875588217,19.735696329010125,-0.05771839343004465,1.8502383753432052,-1.2735326381474144
2.094202692539056,19.40543058920056,-0.05693266234513199,1.8193809558742005,-1.2303137969786329
2.0840278131081633,19.08065873530628,-0.05612155355367445,1.789195198506695,-1.1889252937298649
2.0740008344951484,18.761262173893215,-0.05528931992426659,1.759655483860671,-1.1492530264034655
2.064125218613255,18.44712680911104,-0.05443974543011044,1.7307374581634862,-1.1111921047698532
2.0544037837753026,18.138142821937244,-0.05357619721380029,1.7024179548787022,-1.074645970808003
2.0448387755891244,17.834204463005243,-0.052701671521511916,1.674674922143527,-1.0395256147796494
2.03543193006693,17.535209858016373,-0.051818834280647416,1.6474873555106053,-1.0057488753789487
2.026184529852555,17.241060824821787,-0.050930056990191055,1.6208352355403708,-0.9732398139281443
2.0170974543581313,16.95166270133801,-0.050037448503402256,1.5946994698348973,-0.9419281538997006
2.0081712245043146,16.666924183529922,-0.04914288320567157,1.5690618391438635,-0.911748778170055
1.9994060426736047,16.386757172758205,-0.04824802602443949,1.543904947208558,-0.882641277377714
1.9908018284127804,16.111076631845716,-0.04735435465138612,1.5192121740413125,-0.8545495435924688
1.9823582503564117,15.83980044926907,-0.04646317930826607,1.4949676323658563,-0.8274214042227963
1.974079571798346,15.572850766506484,-0.045522138003575754,1.4711399538850973,-0.7995945664328803
1.9659690512123904,15.31015231970774,-0.04459475739593001,1.4477316772120628,-0.7729417385402292
1.9580241936567513,15.051630874641088,-0.043681437666728114,1.424728823528522,-0.7474002348570271
1.9502424401259577,14.797214660181172,-0.042782490453200164,1.402118003803884,-0.7229113481873608
1.9426211825437414,14.546834264977939,-0.041898149349204335,1.379886387343172,-0.6994200569153672
1.9351577769705481,14.300422539607414,-0.041028579241831405,1.3580216723293208,-0.6768747565461977
1.9278495552234038,14.057914503858644,-0.04017388461532692,1.336512058212589,-0.6552270134216277
1.9206938350835765,13.819247258836409,-0.03933411693831217,1.315346219812255,-0.6344313385660263
1.9136879292478264,13.584359903582676,-0.03850928123668847,1.2945132830069872,-0.6144449798260894
1.9068291531616821,13.353193455941007,-0.03769934194269106,1.274002801900435,-0.595227730652416
1.900114831857831,13.125690777407765,-0.03690422810010059,1.2538047373578176,-0.5767417540354178
1.893542305909143,12.901796501731972,-0.03612383799643281,1.2339094368176664,-0.5589514202546159
1.8871089365938276,12.681456967042237,-0.03535804328484838,1.214307615290507,-0.5418231572311791
1.880812110359564,12.464620151294405,-0.03460669265141307,1.1949903374632052,-0.5253253123904458
1.8746492426640002,12.251235610847655,-0.033869615077072285,1.1759490008340352,-0.5094280250457264
1.8686177812606277,12.041254421989755,-0.03314662273817736,1.1571753198093058,-0.49410310840834093
1.862715208991585,11.834629125244128,-0.03243751358452192,1.138661310697655,-0.47932394041280735
1.8569390461423199,11.631313672302472,-0.03174207362953548,1.1203992775429512,-0.4650653626214716
1.8512868524071493,11.431263375436902,-0.031060078983468676,1.1023817987411526,-0.45130358654059555
1.8457562285095046,11.23443485925505,-0.03039129765702947,1.0846017143905273,-0.43801610674083913
1.8403448175159773,11.040786014670353,-0.029735491159939918,1.0670521143283405,-0.42518162022993056
1.8350503058791219,10.850275954967856,-0.02909241591623187,1.049726326810525,-0.41277995157476355
1.8298704242402437,10.662864973853452,-0.028461824515747806,1.032617907793976,-0.4007919833147729
1.8248029480200962,10.478514505381437,-0.02784346681922394,1.0157206307839866,-0.38919959124873
1.8198456978224433,10.2971870856618,-0.027237090932476324,0.9990284772119858,-0.37798558421352413
1.8150015177102823,10.119064846684488,-0.02658713253597861,0.9801075114248349,-0.41540989549385127
1.8102701710477667,9.944339054311317,-0.02598338593641606,0.9612901816103709,-0.45404805563845224
1.8056434753171153,9.772991286405716,-0.025424344404155332,0.94257390622963,-0.49379753284276573
1.8011135203849515,9.605003576418365,-0.024908488175443444,0.9239562047409161,-0.5345572574310412
1.7966726705996954,9.440358395438274,-0.02443428721629141,0.9054346950378716,-0.5762273982939473
1.7923135664203826,9.279038634672972,-0.024000203664961473,0.8870070912432804,-0.61870914043719
1.788029125633091,9.121027588293746,-0.023604693971612713,0.868671201859221,-0.6619044626627711
1.7838125442080406,8.966308936581484,-0.0232462107511675,0.8504249282770115,-0.7057159143803852
1.7796572968477642,8.814866729307749,-0.02292320436301588,0.8322662636533936,-0.7500463905140784
1.775557137274505,8.666685369284309,-0.022634124228753594,0.8141932921626215,-0.7947989034281601
1.7715060983032118,8.521749596012288,-0.022377419896727188,0.7962041886376167,-0.8398763507458384
1.7674984917451322,8.380044469359358,-0.02215154185971166,0.7782972186171592,-0.8851812778734431
1.7635289081860992,8.241555353189987,-0.02195494212954501,0.7604707388202948,-0.9306156339715551
1.7595922166831435,8.106267898869518,-0.02178607456996112,0.7427231980738006,-0.9760805200309715
1.7556835644230921,7.974168028557738,-0.021643394986166485,0.725053138723763,-1.0214759276151302
1.7517983763873195,7.845241918201463,-0.021525360966863492,0.7074591985681737,-1.066700466720262
1.747932355067876,7.719475980128461,-0.02143043147139553,0.689940113354056,-1.111651081078865
1.7440814802818212,7.596856845136486,-0.02135706615143671,0.672494719890114,-1.1562227490897747
1.7402420091328108,7.477371343961277,-0.0213037243931249,0.6551219598344147,-1.200308168397738
1.7364104761718773,7.361006487995812,-0.021268864061690446,0.6378208842263193,-1.2437974219655898
1.7325836938129484,7.247749449119574,-0.0212509399264071,0.6205906588429846,-1.286577623281558
1.72875875306306,7.1375875384810925,-0.02124840173902141,0.6034305704734738,-1.3285325381217212
1.7249330246325214,7.030508184058849,-0.02125969193362973,0.5863400342181132,-1.3695421800424528
1.721104160496578,6.926498906804845,-0.021283242910184786,0.5693186019374814,-1.4094823765095905
1.7172700959875016,6.825547295150951,-0.021317473857332278,0.5523659719946677,-1.4482243022808854
1.7134290525046723,6.727640977630344,-0.021360787062993856,0.5354820004565229,-1.4856339763482873
1.7095795409402417,6.632767593334211,-0.02141156365290098,0.5186667139449592,-1.5215717184213782
1.7057203659295606,6.540914759886917,-0.02146815868799893,0.5019203243583331,-1.5558915606006858
1.7018506310489407,6.452070038580228,-0.021528895541109757,0.4852432457159836,-1.5884406095625727
1.6979697450987272,6.366220896258305,-0.021592059461262116,0.4686361134164725,-1.6190583542759358
1.6940774296273764,6.283354663489018,-0.021655890220413494,0.4520998062422715,-1.6475759140256165
1.6901737278725957,6.203458488493055,-0.02171857372159439,0.43563547149065823,-1.673815221373805
1.686259015319007,6.1265192862293,-0.021778232429392468,0.4192445536621899,-1.6975881347163366
1.6823340120987242,6.052523681952287,-0.02183291446263747,0.4029288271935108,-1.7186954753846562
1.6783997974922893,5.98145794846479,-0.021880581164418732,0.38669043377868906,-1.7369259849510532
1.6744578268233288,5.91330793618555,-0.021919092935143127,0.3705319248795325,-1.7520551997253198
1.6705099510820798,5.848058995039658,-0.021946193078731788,0.3544563100748325,-1.763844241691755
1.6665584396618711,5.785695887059045,-0.02195948936803159,0.33846711193195883,-1.7720385287722067
1.662606006650578,5.726202688457363,-0.02195643297967171,0.3225684280867478,-1.7763664129619496
1.658655841188603,5.6695626798246614,-0.021934294375604835,0.3067650011654801,-1.7765377635146322
1.6547116424898989,5.615758222986273,-0.021890135609997915,0.29106229703883846,-1.7722425253260103
1.6507776602287807,5.564770623008368,-0.02182077840242462,0.2754665916045299,-1.7631493019903204
1.646858741131811,5.516579973845175,-0.021722767119462527,0.2599850657642737,-1.7489040416052437
1.642960382795087,5.471164986264252,-0.0215923255108033,0.24462590735707437,-1.7291289455475294
1.6390887959957001,5.428502797042423,-0.02142530559349583,0.2293984173299329,-1.7034217823290243
1.6352509771189303,5.388568759126954,-0.02121712637061122,0.2143131150641651,-1.6713558792168588
1.631454792840541,5.351336213703835,-0.020962698944826465,0.19938183408162322,-1.63248119631497
1.6277090799861735,5.316776247204579,-0.020656332770369185,0.18461779368788167,-1.5863270790484594
1.624023764702713,5.2848574396497305,-0.020291614823637064,0.1700356235882245,-1.5324075593324082
1.6204100069938936,5.255545615984676,-0.01986124860768751,0.15565130602348717,-1.4702304628330947
1.6168803797489752,5.228803620032128,-0.019356831891404642,0.14148198233816625,-1.3993121108274829
1.6134490963787735,5.2045911423493365,-0.018768538888613327,0.12754554747061686,-1.3192000979098384
1.6101323092924344,5.182864649542083,-0.018084650959599387,0.11385992816553243,-1.229507445230144
1.606948514673292,5.1635774835414985,-0.017290844808649296,0.10044191628538757,-1.1299621894684568
1.6039191204674477,5.14668022245143,-0.016369090811844535,0.08730542915983343,-1.020476642160686
1.6010692691148778,5.132121410722075,-0.015295924216711342,0.07445914561079381,-0.9012389155595231
1.598429062538929,5.119848752576509,-0.014039704404940382,0.061903722673276936,-0.7728234715978356
1.5960354308602436,5.109810770499966,-0.012556203136009149,0.04962941151053707,-0.6363038011370066
1.5939350648148327,5.101958673109465,-0.010781197368557184,0.03761611505059606,-0.4933260660068336
1.5921892684332055,5.096247604518492,-0.008616540205076524,0.02584020262689197,-0.34607222445007263
1.5908830771901443,5.0926351590172025,-0.005896695828936885,0.014298080720765204,-0.19702528603229108
1.5901487088811552,5.0910702800809915,-0.00226295204871801,0.0030894630149241892,-0.048487955960597046
