x,y,v_x,v_y,omega
2.375,32.48,0.0,2.358974358974359,-2.4897959183673475
2.374573296844883,32.01285808976365,-0.0042670315511688095,2.31244474338913,-2.3634510943310203
2.3733449666403943,31.554877544311545,-0.008016270493721552,2.2673607111319223,-2.246419018687042
2.371412688346412,31.105776630192448,-0.011306512446097232,2.22364843005904,-2.1377921500896124
2.368863104499825,30.66528787103856,-0.01418932601977491,2.1812391614798097,-2.0367685003242766
2.3657731688001915,30.233157074600058,-0.01671003097655792,2.1400688029052333,-1.9426376094410025
2.3622113126082187,29.80914244602984,-0.018908530943171416,2.1000774827969466,-1.8547686038892186
2.3582384570802564,29.393013777749864,-0.02082002433645226,2.0612092000027897,-1.7725999964028079
2.3539088933505585,28.984551707569857,-0.022475612960527656,2.023411501797284,-1.6956309475149618
2.3492710496192046,28.583547037846373,-0.0239028243530117,1.9866351954375894,-1.6234137578128087
2.3443681610627425,28.189800109407592,-0.02512606121160963,1.9508340889502098,-1.5555473998765932
2.3392388560420785,27.80312022476051,-0.026166988995030956,1.915964757520616,-1.4916719312257187
2.3339176700464686,27.423325115768687,-0.027044870961065604,1.8819863323976096,-1.4314636560217238
2.328435497110328,27.050240451561894,-0.027776858400342427,1.848860309670303,-1.3746309249359605
2.3228199870119135,26.683699382930225,-0.02837824258379971,1.8165503766463982,-1.3209104804057117
2.3170958953619927,26.32354211987854,-0.028862673915409087,1.785022253870456,-1.2700642692109871
2.311285392677503,25.96961553938336,-0.02924235292948704,1.7542435510813654,-1.221876656488986
2.3054083376783345,25.621772820712394,-0.029528197062198232,1.7241836356282905,-1.176151985430263
2.2994825193187123,25.27987310594445,-0.029729986534022868,1.6948135120511443,-1.1327124353438638
2.2935238714469737,24.943781183570245,-0.029856492183366893,1.6661057116908808,-1.0913961378391586
2.287546663461198,24.613367193268033,-0.029915587674388133,1.6380341913312628,-1.0520555167932553
2.281563669878673,24.288506350135805,-0.029914348150859735,1.6105742399910068,-1.014555822752306
2.2755863213524514,23.969078686828063,-0.029859137111360172,1.583702393086413,-0.9787738366136346
2.269624839338301,23.654968812192195,-0.029755683030141963,1.5573963532722637,-0.9445967209849531
2.263688356331768,23.34606568513047,-0.02960914703518821,1.5316349173450015,-0.9119210006248264
2.257785023350846,23.0422624025301,-0.0294241827740324,1.5063979086586814,-0.8806516559236913
2.251922106129065,22.743456000207992,-0.029204989443777796,1.4816661145623689,-0.850701315560308
2.246111671060455,22.4495483506806,-0.028899361242320832,1.457410380711576,-0.8202058729968501
2.2403642025536854,22.160444845371174,-0.02857532382537691,1.4336246723826782,-0.7911019784569898
2.234683126903408,21.876053147570662,-0.02823543267739544,1.4102923056224443,-0.7633096943001083
2.2290713855382904,21.596284181592107,-0.02788198097378019,1.3873973541630962,-0.7367545423382977
2.2235314848231775,21.321051985564665,-0.027517026177349767,1.364924606111312,-0.7113670718894677
2.218065540824713,21.050273572594683,-0.027142413807295807,1.34285952358851,-0.6870824665547084
2.21267531957392,20.78386879972704,-0.02675979870063141,1.3211882050879555,-0.6638401858476806
2.207362273299113,20.52176024418469,-0.026370664047443915,1.2998973503355353,-0.6415836382303612
2.202127573049611,20.26387308640512,-0.025976338447576512,1.2789742274601485,-0.6202598824847644
2.1969721380841554,20.010134999429418,-0.02557801120697734,1.2584066422968527,-0.5998193546809623
2.191896662356829,19.7604760442336,-0.02517674606628778,1.2381829096613601,-0.5802156182935759
2.186901638397021,19.51482857062262,-0.0247734935317923,1.218291826448425,-0.5614051352768338
2.1819873788479223,19.273127123335854,-0.02436910195919165,1.1987226464192453,-0.5433470561365756
2.1771540358996613,19.03530835303849,-0.023964327523421175,1.1794650565543738,-0.5260030272398987
2.1724016188280593,18.801310931897163,-0.02355984319259892,1.1605091548589368,-0.5093370137826906
2.167730009827711,18.57107547345964,-0.02315624681088244,1.1418454295162772,-0.4933151369948562
2.1631389783082926,18.344544456578554,-0.022754068383302257,1.1234647392946124,-0.4779055243050161
2.15862819380543,18.121662153137194,-0.022353776645321455,1.1053582951189806,-0.46307817131294515
2.1541972376418212,17.90237455935252,-0.02195578499076863,1.087517642727745,-0.44880481453084636
2.1498456134603687,17.686629330445818,-0.02156045682375334,1.0699346463392894,-0.43505881395532575
2.145572756738687,17.474375718485852,-0.021168110393067013,1.05260147326034,-0.42181504462203345
2.1413780433832517,17.265564513222557,-0.020779023161283588,1.035510579372646,-0.4090497963755949
2.1372607974916034,17.06014798574133,-0.020393435755202874,1.0186546954395799,-0.39674068115974187
2.133220298362149,16.85807983477951,-0.020011555539339206,1.0020268141786415,-0.3848665471974049
2.129255786823238,16.659315135556657,-0.01963355984977239,0.9856201780498971,-0.3734073994887798
2.125369052094565,16.46399062830488,-0.01923378743695617,0.9676248944678568,-0.3980712807342437
2.1215592175781604,16.272254076261266,-0.018864557727090142,0.9497406259682835,-0.4243800712805315
2.1178202176944323,16.08408357470951,-0.018525441110190614,0.9319643895492683,-0.45222582226854724
2.1141460802746415,15.899457803952298,-0.018215933087717358,0.9142933180228355,-0.4815029480127002
2.1105309408555493,15.718356006562868,-0.01793546110320577,0.8967246558714651,-0.5121079951575549
2.1069690556650897,15.54075796542697,-0.017683390801389278,0.8792557554875111,-0.543939416492
2.103454813409492,15.366643982499653,-0.017459031754590643,0.8618840737856617,-0.5768973485006498
2.0999827459648723,15.19599485820298,-0.017261642691603553,0.8446071691810773,-0.6108833917346818
2.0965475380696206,15.028791871392034,-0.01709043626091456,0.8274226989283775,-0.6458003930800683
2.0931440361078386,14.865016759817273,-0.016944583356902423,0.8103284168192499,-0.6815522289899494
2.0897672560686913,14.704651701011432,-0.01682321703457053,0.7933221712391614,-0.7180435887294295
2.086412390761695,14.547679293528866,-0.016725436035391804,0.7764019035865011,-0.7551797566550046
2.0830748163637614,14.394082538464165,-0.016650307943948058,0.7595656470605134,-0.792866392516659
2.0797500983701465,14.243844821175351,-0.01659687199220019,0.7428115258276318,-0.8310093087279015
2.076433997018386,14.096949893134653,-0.016564141525404967,0.7261377545793573,-0.8695142434969658
2.0731224722517583,13.953381853826848,-0.01655110614086969,0.7095426384986908,-0.908286628650379
2.0698116882868836,13.81312513261134,-0.016556733507878115,0.6930245736563903,-0.9472313509072354
2.066498017848676,13.676164470459394,-0.016579970874198192,0.676582047863063,-0.9862525052778873
2.0631780461351,13.542484901472246,-0.01661974626156023,0.6602136420084042,-1.0252531391633106
2.0598485745740103,13.412071734078921,-0.016674969349336717,0.6439180319248456,-1.064134985619997
2.0565066244348444,13.284910531804474,-0.016744532042321694,0.6276939908196137,-1.102798184128625
2.053149440359117,13.16098709348983,-0.01682730871495465,0.611540392326828,-1.1411409870616833
2.0497744938755704,13.04028743283315,-0.01692215612051217,0.5954562142399639,-1.179059449884349
2.0463794869685543,12.92279775710966,-0.01702791294964599,0.5794405429949252,-1.2164471029429698
2.042962355771778,12.808504444911634,-0.01714339901811737,0.5634925789853238,-1.2531946024953295
2.0395212744641067,12.697394022732645,-0.01726741405859684,0.5476116428045752,-1.2891893584155951
2.0360546594496585,12.589453140199751,-0.01739873608588732,0.5317971825243519,-1.3243151357640581
2.0325611739111897,12.484668543733708,-0.01753611929879971,0.5160487821360792,-1.3584516271478697
2.0290397328338035,12.383027048389916,-0.017678291475062766,0.5003661713018386,-1.391473992515512
2.0254895086055003,12.28451550760137,-0.01782395080796726,0.48474923658362534,-1.423252362728213
2.0219099373122242,12.189120780508432,-0.01797176212479446,0.46919803434575086,-1.4536513029420959
2.0183007258580146,12.096829696518387,-0.01812035241730314,0.453712805554696,-1.4825292315258478
2.014661860055938,12.007629016689492,-0.018268305603460978,0.4382939927342579,-1.509737789946351
2.010993613852894,11.921505391478895,-0.018414156426979404,0.4229422593717031,-1.5351211588039348
2.0072965598715196,11.838445314330425,-0.018556383386766524,0.4076585121130054,-1.558515315027153
2.003571581475663,11.758435070505925,-0.018693400571797518,0.3924439261320064,-1.5797472251998652
1.999819886592718,11.68146068048183,-0.018823548257653977,0.37729997410894744,-1.5986339701727634
1.9960430235571043,11.607507837140236,-0.018945082098481763,0.36222845930698916,-1.6149817966271178
1.9922428992751067,11.53656183588068,-0.019056160721495373,0.34723155328856425,-1.628585092285165
1.9884218000530398,11.46860749666559,-0.019154831499171982,0.3323118388623019,-1.6392252832535605
1.9845824154796134,11.403629076890518,-0.019239014235090876,0.317472358888432,-1.6466696549137754
1.9807278658110852,11.341610173843275,-0.019306482450193698,0.30271667158400584,-1.6506701023747345
1.9768617333767913,11.282533615390896,-0.019354841892743432,0.28804891293978896,-1.6509618235626107
1.9729880986064545,11.226381337421103,-0.019381505810625407,0.2734738667581463,-1.6472619786836993
1.969111581384597,11.17313424648541,-0.019383666407950247,0.2589970425987551,-1.6392683557267027
1.9652373885696495,11.122772066075118,-0.019358261741525027,0.24462476150418874,-1.6266581053053888
1.961371368688717,11.075273165058743,-0.019301937067797117,0.23036424865956867,-1.6090866430336181
1.9575200750539545,11.030614367097638,-0.019210999279829825,0.21622373095149236,-1.5861868689421572
1.9536908388761693,10.988770740454601,-0.01908136249802231,0.2022125354788823,-1.5575689286754015
1.9498918544297048,10.949715368700833,-0.018908481966621194,0.18834118205880054,-1.522820851073042
1.946132279038856,10.913419104682603,-0.018687271941868068,0.1746214581235123,-1.4815105563421322
1.9424223517575285,10.879850313133396,-0.01841200087140601,0.1610664573685489,-1.4331899589190005
1.9387735363455194,10.848974612086167,-0.018076153248684824,0.14769055310375598,-1.3774022156516559
1.9351986969137376,10.820754630539398,-0.017672241069135848,0.13450926236393154,-1.3136936227745277
1.9317123190912107,10.795149810642737,-0.017191537156132124,0.12153893660267251,-1.2416322672502607
1.9283307968674017,10.772116298003265,-0.01662368508195737,0.10879618979203934,-1.1608362771903378
1.9250728171847111,10.751606984044003,-0.01595611174494778,0.09629694980058284,-1.0710152756518774
1.9219598937784486,10.73357178813285,-0.015173122317678788,0.08405500931096527,-0.9720290509259428
1.9190171332538453,10.717958287585045,-0.014254482928353728,0.07207999616707106,-0.8639666031478122
1.9162743674296228,10.704712801940328,-0.013173175313870739,0.0603748602800824,-0.7472447349485664
1.9137678707086823,10.693781972839531,-0.011891791895534663,0.04893343072787779,-0.6227151120052291
1.9115430356923953,10.68511467450979,-0.010356558267335446,0.03773955256953904,-0.4917489541939217
1.9096587294573202,10.678663609057818,-0.008486504083414293,0.026771101950191535,-0.3562405747549098
1.9081951363340903,10.67438488905146,-0.006149427148885039,0.016016098113379545,-0.21844929971383384
1.9072718138312772,10.672230701391431,-0.0030837978792464045,0.005525778486912285,-0.08061380517315025
