x,y,v_x,v_y,omega
2.375,32.48,0.0,3.0256410256410255,-4.448979591836735
2.373991795409946,31.881913772961138,-0.010082045900540966,2.955221244747581,-4.168559189192975
2.37111451253183,31.29762824013081,-0.018690782880618706,2.8876340835557026,-3.9145315927506306
2.366642218511177,30.726595264035687,-0.026032157325911125,2.8226956773955147,-3.6836696275520513
2.360810915132117,30.168301819692,-0.032280876464688225,2.760238766041341,-3.4732134909223604
2.3538242643392744,29.622266874578255,-0.03758563146373632,2.7001106850961043,-3.280793575219163
2.3458583653972727,29.088038638945235,-0.04207335795628342,2.642171671234105,-3.1043675464305327
2.3370657566834994,28.56519212973817,-0.04585272918144819,2.5862934208365473,-2.942168766066932
2.3275787804219688,28.053327002133543,-0.04901703343385842,2.5323578552097374,-2.7926637970827373
2.317512421611986,27.552065611036053,-0.051646554665970304,2.480256055765143,-2.6545172278905182
2.306966711143906,27.061051271437165,-0.053810550014826486,2.4298873402237424,-2.5265624244296703
2.296028766269842,26.57994669173882,-0.055568898725815954,2.3811584567597177,-2.4077771090407114
2.2847745282001544,26.108432558312806,-0.05697348197106005,2.333982877500405,-2.2972628884486235
2.273270245867433,25.646206252933265,-0.05806934135615033,2.28828017629499,-2.1942280274220165
2.2615737462617105,25.19298068746344,-0.0588956547010788,2.2439754784032537,-2.0979729013972466
2.2497355247522917,24.74848324243109,-0.05948656039310796,2.2009989719202716,-2.0078776692712346
2.2377996831321236,24.31245479799126,-0.05987185580857368,2.1592854724780004,-1.9233917932218718
2.2258047384852824,23.884648847328425,-0.06007759065983935,2.1187740341503747,-1.8440251007593544
2.213784322179992,23.464830683852377,-0.060126572393062114,2.0794076006100957,-1.769340139013233
2.201767785165671,23.052776654641406,-0.06003879775014894,2.0411326914996355,-1.6989456154064557
2.1897807231740782,22.648273473518493,-0.05983182216577845,2.003899119729513,-1.6324907545871918
2.1778454332892947,22.251117587941845,-0.0595210766820564,1.9676597360369577,-1.5696604305107809
2.165981311577212,21.861114594572797,-0.05912014043877149,1.9323701976535195,-1.5101709562371084
2.1542051999868237,21.47807869897133,-0.05864097546511061,1.8979887583611246,-1.453766433391647
2.142531689500037,21.101832215377385,-0.05809412940275532,1.864476077578358,-1.4002155791659365
2.130973385471185,20.732205102977062,-0.05748891088576516,1.8317950464248722,-1.3493089618665106
2.1195411402272244,20.3690345354374,-0.05683354155384369,1.7999106289717473,-1.300856586886234
2.108244257266453,20.012164500829492,-0.05613528805386721,1.7687897171073297,-1.254685783988977
2.0970906707743753,19.661445429354956,-0.05540057686691403,1.7384009976379955,-1.21063935430468
2.0860871036510953,19.316733846550495,-0.054635094365882375,1.7087148304066222,-1.1685739416986944
2.0752392067998002,18.977892049874576,-0.05384387414707177,1.6797031363525736,-1.1283585984262543
2.064551682047534,18.6447878067834,-0.05303137337558824,1.6513392945591785,-1.089873519388084
2.054028390747061,18.31729407258339,-0.05220153962913987,1.6235980474409004,-1.0530089230113002
2.043672449833192,17.9952887265078,-0.05135786950955325,1.5964554133150177,-1.017664059909244
2.0334863168712896,17.678654324607933,-0.050503460109468656,1.5698886056836534,-0.9837463331215247
2.0234718654335775,17.36727786817726,-0.04964105426765459,1.5438759586230542,-0.9511705159809765
2.013630451965244,17.061050586541004,-0.04877308041567768,1.5183968577395193,-0.9198580555629603
2.0039629751529247,16.759867733146404,-0.04790168770751559,1.4934316762064832,-0.8897364512986836
1.9944803740538433,16.463630240441695,-0.04692432328329917,1.4689432508406073,-0.8577299077384144
1.9851920392286888,16.172242579513203,-0.045959024968247233,1.4449333584443353,-0.8271874548445045
1.9760954730046736,15.885610752072491,-0.04500663727190456,1.4213849159627636,-0.7980247776815084
1.9671880237565056,15.60364409833344,-0.04406785520977491,1.3982816214277443,-0.7701633366885385
1.9584669139982323,15.32625514528716,-0.04314324237295722,1.3756079090350446,-0.7435299093126861
1.9499292650715396,15.053359463653738,-0.04223324689396955,1.353348907299183,-0.7180561728668082
1.941572118826069,14.784875532919767,-0.04133821556073746,1.3314904000405183,-0.6936783244768292
1.9333924566400902,14.520724613917565,-0.04045840629905129,1.310018789981495,-0.6703367344404277
1.9253872160885521,14.260830628444516,-0.0395939992163283,1.2889210647489842,-0.647975629720704
1.9175533055293532,14.00512004545985,-0.0387451063756602,1.26818476509768,-0.6265428046523049
1.909887616846949,13.753521773431512,-0.0379117804483831,1.2477979551857266,-0.6059893562496921
1.902387036564576,13.505967058438102,-0.0370940223753457,1.2277491947483663,-0.5862694417830685
1.895048455511911,13.262389387660406,-0.03629178815130748,1.2080275130286084,-0.5673400565315343
1.8878687772134644,13.022724397923962,-0.03550499483315711,1.1886223843358321,-0.5491608298392622
1.880844925144085,12.786909788978974,-0.034733525860634724,1.169523705114042,-0.5316938377923163
1.8739738489812479,12.554885241226444,-0.03397723576773792,1.150721772411272,-0.5149034310041514
1.867252529969095,12.326592337620266,-0.03323595435379365,1.1322072636505085,-0.49875607614941625
1.8606779854962041,12.101974489494157,-0.03250949037511413,1.113971217610558,-0.4832202100206897
1.854247272977585,11.880976866079841,-0.03179763481107845,1.0960050165326192,-0.4682661050031673
1.8479574931212506,11.66354632749908,-0.031100163752265042,1.0783003692749802,-0.4538657449698016
1.8418057926507445,11.449631361027148,-0.030416840952793543,1.060849295444348,-0.43999271069547574
1.835789366547043,11.239182020438928,-0.029747420084223486,1.043644110437852,-0.4266220739747684
1.8299054598662088,11.032149868261659,-0.029091646724118136,1.0266774113348296,-0.4137302997048994
1.8241513691829325,10.828487920769962,-0.02844926010864419,1.009942063582128,-0.4012951552645332
1.8185244437045402,10.628150595569661,-0.027819994675279253,0.9934311884208818,-0.38929562658115385
1.8130272971612487,10.431269368819827,-0.02715147075763525,0.9753810790774486,-0.4127554025821043
1.8076598960449628,10.23798690568593,-0.026522540405224396,0.9574435522615388,-0.43793057171563216
1.8024144015648023,10.048280994429224,-0.025932404396379873,0.939615560305535,-0.46471021462987827
1.7972831407356697,9.862130020900647,-0.025380203894944997,0.9218941749802178,-0.4929859854101999
1.7922586176855329,9.679512945096182,-0.024865026606422758,0.9042765830644497,-0.5226518698692075
1.7873335237853754,9.500409278558141,-0.024385912395152084,0.8867600823159463,-0.5536039495152029
1.7825007467058445,9.324799062543423,-0.023941858400157813,0.8693420778312176,-0.58574017022388
1.7777533784974424,9.152662846881764,-0.02353182368386326,0.8520200787853577,-0.6189601146482632
1.7730847227845978,8.983981669448731,-0.023154733444583016,0.8347916955449726,-0.6531647774048952
1.7684883011580792,8.818737036179215,-0.022809482820602668,0.8176546371502047,-0.6882563420701359
1.7639578588449514,8.65691090154774,-0.022494940310675886,0.80060670916455,-0.7241379590088641
1.7594873697305935,8.498485649441882,-0.022209950832902392,0.7836458118940314,-0.7607135230386164
1.7550710408031864,8.343444074354448,-0.02195333844116794,0.7667699389803078,-0.7978874499048644
1.7507033160875092,8.191769362818864,-0.021723908715603823,0.7499771763755191,-0.8355644505072732
1.7463788801318656,8.0434450750103,-0.021520450840833306,0.7332657017101315,-0.8736493017718442
1.7420926611094734,7.898455126432406,-0.021341739383088643,0.7166337840688204,-0.9120466130091801
1.7378398335937066,7.756783769606169,-0.02118653577457755,0.7000797841935611,-0.9506605865339839
1.7336158210651766,7.618415575673048,-0.02105358951072261,0.6836021551376699,-0.9893947712444584
1.7294162982077985,7.483335415819319,-0.020941639063059694,0.6671994433996209,-1.0281518077715943
1.7252371930507298,7.351528442422239,-0.020849412507628375,0.6508702905711621,-1.0668331637063673
1.7210746890134088,7.222980069811058,-0.02077562786558176,0.6346134355406587,-1.1053388572965115
1.716925226911906,7.097675954527009,-0.020718993149444764,0.618427717299841,-1.1435671678726247
1.7127855069864701,6.975601974955989,-0.020678206104914238,0.6023120784103514,-1.181414331114679
1.7086524910125513,6.8567442101953695,-0.020651953634272413,0.586265569195848,-1.2187742171034104
1.704523404560792,6.741088918002173,-0.020638910883321288,0.5702873527361029,-1.255537988915472
1.700395739475542,6.62862251165339,-0.020637739969178674,0.5543767107517472,-1.2915937393158474
1.6962672566465007,6.519331535529986,-0.020647088321236528,0.5385330504823058,-1.326826102875436
1.692135989154178,6.413202639214138,-0.020665586601990044,0.5227559126761898,-1.361115840596253
1.688000245877158,6.31022254986355,-0.02069184616821177,0.50704498082969,-1.394339393862674
1.6838586156577402,6.210378042597277,-0.020724456025965194,0.4914000918330484,-1.4263684042576683
1.679709972132633,6.1136559085933975,-0.02076197922510704,0.4758212482057463,-1.4570691954934099
1.6755534793471143,6.020042920559764,-0.02080294863007681,0.4603086321305768,-1.4863022134151207
1.6713885982847319,5.929525795193982,-0.020845861993749337,0.4448626215272247,-1.5139214197597601
1.6672150944603836,5.842091152197135,-0.020889176249730867,0.4294838084412387,-1.5397736351091011
1.6630330467428642,5.757725469346649,-0.02093130092546338,0.414173020063628,-1.5636978263027055
1.6588428575939627,5.676415033066306,-0.020970590563552965,0.3989313427397969,-1.5855243335189768
1.6546452649354624,5.598145883854954,-0.021005336021448478,0.3837601493737144,-1.6050740323633235
1.6504413558833757,5.522903755849278,-0.021033754499419566,0.3686611306830413,-1.6221574267258194
1.6462325826211377,5.450674009699842,-0.02105397812296103,0.35363633081131357,-1.6365736690383406
1.6420207807211216,5.381441557833661,-0.02106404087719982,0.3386881878505043,-1.6481095060931892
1.6378081902678006,5.315190781062096,-0.02106186365601013,0.3238195798651312,-1.6565381511010298
1.6335974801877045,5.251905435372844,-0.02104523714495121,0.3090338770273923,-1.6616180866286727
1.6293917762530954,5.191568547624563,-0.021011802201138935,0.2943350004554376,-1.6630918091388966
1.625194693301085,5.134162298752177,-0.02095902731896325,0.27972748826843696,-1.6606845350313038
1.6210103723022904,5.079667893006015,-0.020884182668984477,0.2652165691931772,-1.6541029017744238
1.6168435230300293,5.028065411715012,-0.02078431005362484,0.25080824371683386,-1.643033717989583
1.6126994732333189,4.979333650124662,-0.02065618791348182,0.23650937218664891,-1.62714284619901
1.60858422542166,4.933449936079093,-0.020496290203106397,0.2223277682690584,-1.6060743457427402
1.6045045226542918,4.890389929793422,-0.02030073747057475,0.20827229458763977,-1.5794500673999987
1.6004679251357519,4.850127404849751,-0.020065237714824456,0.19435295484906226,-1.5468699845463225
1.5964829000260403,4.812634012076231,-0.019785013382290946,0.18058097288613215,-1.5079136809714744
1.5925589277970773,4.777879030471599,-0.019454708907339736,0.16696884316018576,-1.4621436102547263
1.5887066299049062,4.745829113303209,-0.019068270014372616,0.15353032852372794,-1.4091110186644935
1.5849379248251723,4.716448043607464,-0.018618780782965708,0.14028036843372224,-1.3483658098690525
1.5812662231546382,4.689696522424445,-0.018098235922373723,0.12723484339648317,-1.279472150020663
1.5777066783923137,4.665532026170492,-0.0174972117008716,0.11441011914303459,-1.202032269316109
1.5742765196013817,4.6439087872947304,-0.016804376208448078,0.10182226961459862,-1.115721644869093
1.5709955076811042,4.6247779742100406,-0.016005742994326454,0.08948586123231475,-1.020339307015379
1.567886582000201,4.60808816826561,-0.015083513814704621,0.07741219821200776,-0.915876765092379
1.5649768042899663,4.593786244682889,-0.014014263287644374,0.06560703761520403,-0.8026066276626129
1.5622987717515622,4.58181873156563,-0.012766062096396268,0.05406809355740485,-0.6811849248917865
1.5598927831375493,4.57213358832497,-0.011293824043732116,0.042783338849190236,-0.5527461882731863
1.5578102679056878,4.564682011999402,-0.009531328274883172,0.03173242440649922,-0.4189463327828139
1.5561195968437063,4.559419164932468,-0.007375382344930714,0.020896046262824212,-0.2818831764402092
1.5549176909607803,4.5563009761607915,-0.0046436764843321605,0.010285841453952175,-0.14382017014592544
1.5543650681736703,4.555265669380191,-0.0008825513867668795,6.722635204950075e-05,-0.006721669670261027
