x,y,v_x,v_y,omega
2.375,32.48,0.0,3.3846153846153846,-7.387755102040816
2.372501718750345,31.712687961621818,-0.021724184779608278,3.2876632099774676,-6.799028908781587
2.365457645951969,30.96708392212226,-0.0395286221627915,3.195850176975208,-6.281417464073363
2.354690515633145,30.242057104463676,-0.054098598000896274,3.1087308461429157,-5.823883304421648
2.340880462818661,29.53657272936418,-0.06598881777722357,3.0259158938526864,-5.417413042769154
2.3245918813972537,28.849680226618833,-0.07565102066979727,2.947062390889477,-5.054593144039043
2.3062946788077854,28.180503434170127,-0.08345508880383985,2.871866239099264,-4.729285664788158
2.2863812272874258,27.528232354292165,-0.0897053591992875,2.800056194622154,-4.436377738928409
2.2651799759982256,26.892116148025902,-0.09465334766332219,2.731389077258392,-4.171586184045291
2.2429664490495833,26.271457127869034,-0.0985077562379182,2.6656458806274177,-3.9313037870061276
2.219972180834013,25.665605565292857,-0.10144240215834315,2.6026285765567385,-3.712477432826057
2.196392012306833,25.073955170870335,-0.10360254155626665,2.5421574618999787,-3.512510789303869
2.1723900765716717,24.49593913527029,-0.1051099430973102,2.4840689346221563,-3.3291860879475736
2.1481047303098206,23.931026642220004,-0.1060669809187856,2.4282136136411894,-3.1606008701301462
2.123652632905379,23.37871978189948,-0.10655995303287884,2.374454736972061,-3.005116544189124
2.099132133113223,22.838550806589872,-0.10666178429021612,2.322666787459309,-2.8613163250546267
2.074626090597364,22.310079680801785,-0.10643423758681932,2.2727343063501384,-2.7279706726274457
2.0502042343116456,21.79289188630146,-0.1059297301150819,2.2245508632179227,-2.6040087573877146
2.025925139796544,21.28659644897241,-0.10519283088580134,2.178018157034673,-2.4884947962942237
2.001837891757696,20.790824159689635,-0.10426149988678582,2.1330452280329304,-2.380608343866413
1.977983485823457,20.305225965632964,-0.10316811693268609,2.089547763764215,-2.2796278105302608
1.9543960134318186,19.82947151194224,-0.10194033864677966,2.04744748572033,-2.184916626131287
1.9311036658239686,19.363247816482918,-0.10060181446495782,2.006671605230319,-2.095911580794709
1.908129586702535,18.906258062870787,-0.09917278659098809,1.9671523392229724,-2.0121129653713195
1.8854925979227755,18.45822049889488,-0.09767059410257296,1.9288264779588338,-1.9330762050556187
1.8632078183726044,18.01886742915198,-0.09611009763804622,1.8916349980663796,-1.8584047365696013
1.8412871927654997,17.587944292123495,-0.0945040380759066,1.8555227152247802,-1.787743924748986
1.8197399442644766,17.16520881313101,-0.09286334019385946,1.8204379716664136,-1.7207758508851194
1.7985729625534432,16.750430225637793,-0.09119737033686648,1.7863323543615484,-1.6572148346446383
1.777791137077762,16.343388554249092,-0.08951415553862187,1.753160440322833,-1.596803575267695
1.757397643611769,15.943873953527717,-0.08782057025261984,1.7208795659499765,-1.5393098171703574
1.737394191015897,15.551686097403117,-0.0861224957984428,1.689449617742215,-1.4845234609377638
1.7177812339705885,15.166633614526859,-0.08442495676945627,1.658832842051328,-1.432254053692336
1.6985581565786778,14.788533565429141,-0.08273223794280918,1.6289936718418612,-1.382328603509663
1.6797234309802591,14.41721095776953,-0.08104798465213642,1.5998985686764915,-1.3345896713732963
1.6612747544982809,14.052498296360312,-0.0793752891041977,1.5715158783601824,-1.2888937014591968
1.6432091683080285,13.694235164979691,-0.07771676472408232,1.543815698862608,-1.2451095566014276
1.6255231601820457,13.342267837291107,-0.07607461028446445,1.5167697592989946,-1.203117230838303
1.608212753489771,12.996448914449502,-0.07445066530053203,1.4903513088888831,-1.1628067151541792
1.591303248250995,12.656641550007773,-0.07258851068882552,1.4644953384305053,-1.1166409597738551
1.57481702910753,12.32271423441335,-0.07076991664565228,1.4392204493470717,-1.0728327194138811
1.5587440831719248,11.994535966242523,-0.06899483062048034,1.4145036217036002,-1.0312310881084354
1.5430744298344103,11.671980902671233,-0.06726302448834125,1.3903230180467505,-0.9916966552670063
1.5277981578166124,11.354928096269646,-0.06557412349251054,1.3666579071844345,-0.9541004920536634
1.5129054560321635,11.043261248652282,-0.06392763115487227,1.3434885938361112,-0.9183232389842417
1.498386639117726,10.736868479694067,-0.06232295070980032,1.3207963536266247,-0.8842542834781798
1.4842321683791853,10.435642111137689,-0.06075940353838126,1.298563372950562,-0.8517910174809191
1.4704326687958296,10.139478463520948,-0.05923624501253641,1.2767726932819559,-0.8208381664679658
1.456978942637745,9.848277665445668,-0.05775267810124316,1.2554081595465623,-0.7913071821794444
1.4438619801762633,9.561943474293482,-0.05630786504207449,1.2344543722115633,-0.7631156923366704
1.4310729679023952,9.280383107569335,-0.0549009373393885,1.2138966427810247,-0.7361870013789087
1.4186032946121832,9.003507084121765,-0.053531004314629926,1.1937209524152466,-0.7104496369452076
1.4064445556696041,8.731229074550853,-0.05219716040344751,1.1739139134187493,-0.685836937426714
1.3945885557158966,8.463465760170674,-0.050898491367923154,1.1544627333654256,-0.6622866764408807
1.383027310058092,8.200136699943823,-0.049634079569507335,1.1353551816506715,-0.639740720540468
1.3717530449382962,7.941164204851862,-0.04840300842871726,1.1165795582794047,-0.6181447168757768
1.3607581968581994,7.6864732192073895,-0.047204366180819454,1.0981246647160166,-0.5974478078854483
1.3500354111098525,7.435991208451711,-0.04603724902219726,1.0799797766377213,-0.5776023704057566
1.3395775396433998,7.1896480530170095,-0.044900763729564856,1.062134618446643,-0.5585637768660048
1.3293776383848144,6.947375947863669,-0.043794029823351115,1.0445793394085001,-0.5402901764831097
1.319428964101351,6.7091093073325325,-0.04271618133719979,1.0273044912970468,-0.5227422945857588
1.3097249708991208,6.474784674978505,-0.04166636824741197,1.0103010074336434,-0.5058832483911447
1.3002593064256198,6.24434063807627,-0.04064375760911862,0.9935601830205807,-0.48967837772825745
1.291034699380467,6.017823787156907,-0.03957021669655706,0.9761515641043099,-0.49277480291929887
1.282052040564584,5.7952957901382725,-0.03853985996329461,0.9588744969272998,-0.4984120116385172
1.27330142624277,5.576726851377895,-0.037552438487263286,0.9417249705542324,-0.5064513525722871
1.2647730237537476,5.362088078174519,-0.03660758315640928,0.9246991442577213,-0.5167589154367854
1.2564570978238931,5.151351442583678,-0.03570481623362939,0.9077933391409009,-0.5292051910565699
1.2483440343325383,4.944489745087356,-0.03484356195206426,0.8910040303923413,-0.5436647467029836
1.2404243617432336,4.741476579976556,-0.034023156215803235,0.8743278401363692,-0.5600159152157193
1.2326887703988127,4.542286302313602,-0.033242855474812656,0.8577615308458454,-0.5781404965087718
1.225128129862939,4.346893996348189,-0.03250184483713267,0.8413019992881944,-0.5979234701293232
1.2177335044769233,4.155275445267456,-0.031799245476047205,0.8249462709790377,-0.6192527175954209
1.2104961672879058,3.9674071021659287,-0.03113412138497468,0.8086914951211911,-0.6420187532860857
1.2034076124928894,3.7832660621258327,-0.030505485528211678,0.7925349400100813,-0.6661144626960771
1.1964595665325397,3.6028300353023397,-0.02991230543135095,0.7764739888898597,-0.6914348468971933
1.1896439979590518,3.4260773209115243,-0.029353508251153067,0.7605061362476672,-0.7178767720688591
1.182953126193672,3.252986782021324,-0.02882798536084424,0.7446289845366829,-0.7453387229728995
1.1763794292816059,3.0835378210475994,-0.028334596483209913,0.7288402413218025,-0.7737205592507763
1.1699156507449882,2.917710355858407,-0.027872173400423254,0.7131377168450779,-0.8029232734160535
1.1635548056283196,2.7554847963899043,-0.027439523266260413,0.6975193220114629,-0.8328487494002008
1.1572901858252338,2.5968420216767036,-0.027035431543180374,0.681983066798984,-0.8633995204857454
1.1511153647706476,2.4417633571981767,-0.026658664583657163,0.6665270591012521,-0.8944785254267885
1.1450242015782337,2.290230552439887,-0.026307971872116327,0.6511495040143096,-0.9259888615124999
1.1390108446997464,2.142225758566056,-0.025982087940815402,0.6358487035842214,-0.9578335332737675
1.133069735180004,1.9977315060946559,-0.02567973396998791,0.6206230570366574,-0.9899151954659791
1.1271956095793119,1.8567306824612082,-0.0253996190795093,0.6054710615150468,-1.0221358888811372
1.1213835026338046,1.7192065093505988,-0.025140441316205846,0.5903913133598174,-1.0543967674492616
1.1156287497236081,1.5851425196679152,-0.024900888337676102,0.575382509967865,-1.0865978149813404
1.1099269892189152,1.4545225340095413,-0.02467963779008851,0.5604434522788599,-1.118637549782972
1.1042741647750665,1.3273306364839783,-0.02447535737381328,0.545573047943428,-1.1504127152282795
1.0986665276495853,1.2035511497181375,-0.02428670458689289,0.5307703152378027,-1.181817954226794
1.0931006391168898,1.0831686088687427,-0.024112326132198998,0.5160343878004239,-1.2127454653410337
1.0875733730601826,0.9661677344396828,-0.023950856969603314,0.5013645202783553,-1.2430846381190908
1.0820819188248814,0.8525334036843333,-0.023800918989538008,0.4867600949855556,-1.2727216649947963
1.0766237844240156,0.7422506203465034,-0.023661119278859492,0.4722206296912139,-1.3015391268790348
1.0711968001934018,0.6353044824644059,-0.023530047943870112,0.4577457866748515,-1.3294155493218665
1.0657991230032686,0.5316801479281104,-0.02340627544859251,0.44333538320599053,-1.3562249258706471
1.060429241143517,0.43136279744194894,-0.02328834941881259,0.4289894036302263,-1.3818362049916173
1.0550859800121588,0.33433759449832934,-0.023174790853867394,0.4147080132708153,-1.406112736673009
1.0497685087509383,0.24058964191782906,-0.023064089678484105,0.4004915743856804,-1.4289116746043955
1.0444763479889765,0.15010393445123782,-0.0229546995559657,0.3863406644542185,-1.450083329656488
1.0392093788748291,0.06286530687175684,-0.022845031871403458,0.3722560971064792,-1.4694704703075308
1.033967853600029,-0.021141623091111228,-0.022733448779032446,0.3582389460488775,-1.4869075657350628
1.0287524076434897,-0.10193251771098488,-0.02261825519087336,0.34429057238480604,-1.5022199676000458
1.0235640739967038,-0.17952338894921382,-0.022497689563787334,0.33041265577372203,-1.5152230272176725
1.018404299665286,-0.25393067580348827,-0.022369913318105637,0.31660722991559676,-1.5257211460145192
1.0132749647841512,-0.3251713303754542,-0.022232998691761634,0.3028767228841272,-1.5335067591743374
1.0081784047329012,-0.393262913835315,-0.022084914797368262,0.28922400285379135,-1.538359255550028
1.0031174356968677,-0.4582237035858867,-0.021923511602922365,0.2756524297598585,-1.5400438418110534
0.9980953841905988,-0.520072813046589,-0.0217465014950678,0.26216591337669454,-1.538310366192296
0.9931161211487027,-0.5788303255740956,-0.021551437999681393,0.2487689781668175,-1.532892128256806
0.9881841013003878,-0.6345174440874715,-0.02133569111610113,0.2354668349929556,-1.5235047174434135
0.9833044086888449,-0.6871566579339401,-0.02109641854948943,0.22226545932419248,-1.5098449472553663
0.9784828093906501,-0.7367719283574772,-0.02083053186959676,0.2091716747935209,-1.491589987259792
0.973725812758865,-0.783388893525391,-0.020534656232881383,0.19619323971007518,-1.4683968466706514
0.9690407428971199,-0.827035093288849,-0.02020508169533631,0.183338932146104,-1.4399024384407944
0.9644358226366423,-0.8677402124921443,-0.019837703178382494,0.17061862614343382,-1.4057245617734555
0.9599202731417149,-0.9055363393923486,-0.0194279446035952,0.15804334690181904,-1.3654642980049698
0.9555044335880509,-0.9404582321558763,-0.018970660210873926,0.14562528582450968,-1.3187105387843963
0.9511999074330495,-0.9725435808314558,-0.018460002006529985,0.1333777461370227,-1.2650476794921406
0.9470197451019022,-1.0018332438283082,-0.01788923565561964,0.1213149755747484,-1.2040679384223991
0.9429786782227505,-1.028371425772903,-0.0172504763370049,0.10945182394343742,-1.135390314847408
0.9390934291039403,-1.0522057468078145,-0.016534298609170932,0.09780314157752841,-1.0586888435531128
0.9353831329327542,-1.0733871319388513,-0.01572914635766541,0.08638281608368936,-0.9737333873817213
0.9318699322629769,-1.0919694256593786,-0.014820424683877441,0.07520234670349657,-0.8804463073310118
0.9285798385074682,-1.1080086211561095,-0.013789086233589837,0.06426891848547714,-0.7789769921566426
0.9255440111456572,-1.121561608185786,-0.012609412564766144,0.0535831426421428,-0.6697915564067178
0.9228006978028109,-1.1326844373429452,-0.011245486068679518,0.043137110898352246,-0.5537642540306627
0.920398251124241,-1.1414303566511421,-0.009645354614538115,0.03291436134682391,-0.43223816787861435
0.9184000538073698,-1.147848443496045,-0.007730274227820718,0.022895089478409902,-0.30699901751760383
0.9168935675162941,-1.1519849010820096,-0.005369606564141946,0.013074106921282181,-0.18009302533456767
0.9160125601449203,-1.1538933958225854,-0.002291327099978613,0.0035214995185144007,-0.05344543682013911
