x,y,v_x,v_y,omega
2.375,32.48,0.0,3.6923076923076925,-5.918367346938775
2.373503704356001,31.787592696572037,-0.01575048046314512,3.5961902385129383,-5.491621459820081
2.3692617433496936,31.11302050692438,-0.028901740655880744,3.5045696525150363,-5.1113191021110636
2.362728685872381,30.455460997183305,-0.039867285421099505,3.4171093973910094,-4.770952422366711
2.354287314159636,29.814152316542888,-0.048989258923583454,3.3335082935607443,-4.465089025076899
2.344260893827933,29.18838695503708,-0.05655200772591923,3.2534955117635835,-4.189169774543957
2.3329231368023007,28.577506365667695,-0.06279280307021189,3.1768264815983387,-3.939349066252146
2.3205063346719323,27.98089629638964,-0.06791037724945431,3.1032795108022126,-3.712367708528746
2.3072080313471606,27.397982711321703,-0.07207176301129879,3.0326529635971333,-3.5054510673698256
2.2931965223750077,26.828228205778384,-0.07541780511662598,2.964762884227299,-3.3162269403036095
2.278615406469148,26.27112883876629,-0.07806762547137129,2.89944097905788,-3.1426589509939302
2.2635873675133125,25.726211321157727,-0.08012225827426751,2.83653289050594,-2.982992236740524
2.248217328795538,25.193030509034134,-0.08166762296546455,2.77589671079505,-2.8357089334512224
2.2325950928465272,24.671167160526757,-0.08277696597148931,2.717401694545792,-2.6994915148499934
2.2167975580316863,24.16022592147658,-0.08351287418473206,2.6609271375613,-2.573192462511966
2.200890585536854,23.659833510830133,-0.08392894155034297,2.606361395559221,-2.455809064986958
2.184930576512774,23.169637081204865,-0.08407115343997326,2.5536010215488347,-2.3464623925014565
2.1689658080898555,22.689302733737847,-0.08397904048548609,2.502550004419785,-2.244379686555662
2.153037568125338,22.21851416935361,-0.08368664335153905,2.453119094361602,-2.1488795544487984
2.137181121427244,21.756971461088632,-0.08322332189155902,2.405225203164519,-2.0593594772501884
2.121426534449692,21.30438993419452,-0.08261443576687834,2.35879086940505,-1.9752852333847943
2.105799380790306,20.860499142491427,-0.08188191854244721,2.3137437801011984,-1.89618191440378
2.0903213460227326,20.425041930919143,-0.0810447632214879,2.2700163417123247,-1.8216262689057992
2.0750107472934887,19.99777357548669,-0.08011943392844727,2.2275452944187575,-1.751240158207619
2.059882980566731,19.578460992890076,-0.0791202158268977,2.1862713644929626,-1.6846849457293904
2.044950906305716,19.166882012984395,-0.07805951323641641,2.1461389503037,-1.6216566730915534
2.0302251826503652,18.76282470808554,-0.0769481041883276,2.107095838105287,-1.5618819011191203
2.0157145537182637,18.36608677375913,-0.0757953582548481,2.069092944277987,-1.5051141144892004
2.0014260994670496,17.9764749563463,-0.07460942333687637,2.0320840811201646,-1.4511306055615036
1.9873654525655342,17.59380452299198,-0.07339738615276103,1.9960257436621767,-1.3997297667270605
1.9735369868935497,17.2178987703918,-0.07216541039444255,1.960876915287139,-1.3507287319743282
1.9599439815977688,16.848588568869204,-0.07091885587693614,1.9265988902138118,-1.3039613177632696
1.9465887640491406,16.48571193874162,-0.06966238147704633,1.8931551111291873,-1.2592762210836392
1.9334728345581815,16.129113656240747,-0.06840003421725936,1.8605110204589477,-1.2165354390477265
1.9205969752914993,15.778644886523065,-0.06713532648465852,1.82863392393771,-1.175612879766952
1.9079613454838755,15.434162841546247,-0.06587130306927537,1.7974928652919617,-1.136393138777223
1.895565564744464,15.095530460800394,-0.0646105994508443,1.7670585109801753,-1.0987704190648562
1.8834087860045003,14.762616113072564,-0.06335549254877566,1.7373030440496082,-1.0626475759291847
1.8714897594401962,14.435293317592194,-0.062107944970213935,1.708200066270074,-1.0279352706025275
1.8598068885222736,14.113440483056152,-0.06086964363949785,1.6797245077935223,-0.9945512188171174
1.8483582791879005,13.796940663167476,-0.059642033564430035,1.651852543666231,-0.9624195224309056
1.8371417829975547,13.485681327443206,-0.05842634738657787,1.6245615165892446,-0.9314700738567065
1.826155035025072,13.179554146155791,-0.057223631271135965,1.5978298653835563,-0.9016380244287925
1.8153954871309828,12.878454788370657,-0.056034767614013506,1.5716370586704935,-0.8728633090266105
1.8048604371847836,12.58228273213102,-0.054860494977554984,1.5459635333256743,-0.8450902202889523
1.7945470547289828,12.290941085920863,-0.0537014256098217,1.5207906373075377,-0.818267026620448
1.784452403514908,12.0043364206092,-0.052558060854124476,1.4961005764994482,-0.7923456289379954
1.7745822421346582,11.722380301219921,-0.05133837472745056,1.4718585749666517,-0.7647417949787364
1.7649412141634944,11.444987344591496,-0.05014613023216835,1.4480672842799454,-0.7383512336915732
1.7555241366352807,11.172073395630544,-0.048981001643766814,1.4247111258353444,-0.7131066287871646
1.7463258930616539,10.903557194043806,-0.04784261492072581,1.4017752066566291,-0.6889451061617778
1.7373414418222375,10.639360247681012,-0.046730556020498804,1.379245281372772,-0.6658078940021124
1.7285658230765528,10.379406712863833,-0.04564437814460197,1.357107716702777,-0.6436400123743129
1.7199941643884613,10.123623281242775,-0.04458360804583539,1.3353494582557277,-0.6223899894438331
1.7116216852302992,9.871939072758774,-0.04354775151376677,1.3139579994706083,-0.6020096017769682
1.7034437005131964,9.624285534318187,-0.04253629813994856,1.2929213525355816,-0.5824536364436873
1.6954556232719986,9.380596343819,-0.04154872545160525,1.2722280211400756,-0.5636796728792919
1.687652966617408,9.140807319192781,-0.0405845024914538,1.2518669749253855,-0.5456478826732651
1.6800313450541102,8.904856332151354,-0.039643092911680396,1.2318276255106846,-0.5283208456407763
1.6725864752515396,8.672683226349598,-0.038723957641695915,1.2120998039814852,-0.5116633806985587
1.665314176343292,8.444229739696361,-0.03782655718196522,1.1926737397367932,-0.4956423902148014
1.6582103698218735,8.219439430564407,-0.036950353569807276,1.1735400405995717,-0.48022671663447225
1.651271079087282,7.998257607667689,-0.036094812057472045,1.1546896741027315,-0.465387010299023
1.6444924287007208,7.780631263390298,-0.03525940253790929,1.1361139498698039,-0.4510956074843901
1.6378706433884298,7.566509010366168,-0.03444360074936306,1.1178045030157597,-0.43732641777504627
1.6314020468350536,7.355841021122245,-0.033646889286174174,1.0997532784992103,-0.42405481997585454
1.6250830603010784,7.148578970610384,-0.032868758439883614,1.0819525163624815,-0.411257565838747
1.6189102010945642,6.944675981464865,-0.03210870689184326,1.0643947378008742,-0.3989126909487758
1.6128800809236186,6.744086571833133,-0.03136624227600532,1.0470727320068212,-0.38699943217472405
1.6069894041527064,6.546766605637309,-0.030640881628334393,1.029979543738687,-0.3754981511439849
1.6012349659829685,6.352673245133207,-0.029932151737327148,1.0131084615676575,-0.36439026325047846
1.5956136505741245,6.161764905642123,-0.02923958940840091,0.9964530067595565,-0.35365817174858083
1.5901284753621137,5.974201368785856,-0.02849909703381579,0.9779000127800918,-0.38533571092020746
1.5847795227321178,5.790152631940515,-0.027805667492456443,0.9594551119077219,-0.41846205575308787
1.5795579809288425,5.609598424470743,-0.027157930436758092,0.9411154930372284,-0.45293034040886604
1.5744553009953886,5.432518999422033,-0.02655448991538977,0.9228784548439339,-0.4886357099491193
1.5694632012684677,5.258895112991517,-0.025993928262722857,0.904741402319397,-0.5254750856159173
1.5645736711724103,5.088708004621044,-0.025474809590514205,0.8867018436855975,-0.5633469335295559
1.5597789743850456,4.921939377641117,-0.02499568290805856,0.8687573876820512,-0.6021510358112674
1.5550716514438307,4.758571380395136,-0.024555084894205197,0.850905741223021,-0.6417882631317396
1.5504445218564025,4.5985865877735925,-0.024151542341881986,0.8331447074248114,-0.6821603476714888
1.545890685776079,4.4419679830876575,-0.023783574293102034,0.8154721840061004,-0.7231696554561857
1.5414035252996516,4.288698940210676,-0.023449693879819166,0.7978861620673919,-0.7647189569985032
1.5369767054421435,4.138763205914664,-0.023148409883424124,0.7803847252590371,-0.8067111951374246
1.5326041748410228,3.99214488232672,-0.022878228023107537,0.7629660493509057,-0.8490492489156006
1.5282801662406582,3.848828409427412,-0.02263765198073188,0.7456284022207568,-0.8916356922745433
1.5239991968066022,3.7087985475095806,-0.0224251841672242,0.7283701442827276,-0.9343725462753724
1.5197560683186004,3.572040359511412,-0.02223932623279437,0.7111897293822056,-0.9771610234685302
1.5155458672910407,3.438539193132172,-0.022078579320467303,0.6940857061887568,-1.0199012629383124
1.5113639650699477,3.3082806626323773,-0.02194144405945655,0.6770567201248597,-1.0624920544360528
1.507206017956582,3.1812506302123857,-0.021826420291762356,0.6601015158750474,-1.1048305498881008
1.503067967409274,3.0574351868541143,-0.02173200652200659,0.6432189405278279,-1.1468119604200144
1.4989460403773804,2.9368206324998702,-0.021656699076872846,0.6264079474115916,-1.1883292368752727
1.4948367498242052,2.819393455429669,-0.021598990956549182,0.6096676006957912,-1.2292727316239613
1.4907368954994928,2.705140310683749,-0.021557370356214342,0.5929970808402104,-1.2695298392530387
1.4866435650267267,2.594047997360036,-0.0215303188307991,0.5763956909883443,-1.308984613503944
1.4825541353760636,2.486103434596618,-0.0215163090709167,0.5598628644160712,-1.3475173575748993
1.4784662748003956,2.381293636026495,-0.02151380225190496,0.5433981731641921,-1.3850041846344268
1.474377945319895,2.2796056824655757,-0.021521244911258747,0.5270013380033934,-1.4213165451006404
1.4702874058496125,2.1810266925644584,-0.021537065302243058,0.5106722399031124,-1.4563207169308363
1.4661932160754112,2.08554379111947,-0.021559669163032816,0.49441093320204726,-1.4898772548434331
1.4620942411959617,1.9931440746980087,-0.021587434831172984,0.4782176607080641,-1.5218403940689702
1.4579896576628808,1.9038145741867503,-0.0216187076223102,0.4620928709894058,-1.5520574039138353
1.4538789600676807,1.8175422138177701,-0.02165179337979604,0.4460372381577467,-1.5803678861431691
1.449761969343275,1.7343137661665224,-0.02168495108763235,0.430051684486978,-1.606603012983415
1.4456388424697666,1.6541158025455935,-0.021716384422980278,0.41413740625964246,-1.6305846994630673
1.4415100838995474,1.5769346381388303,-0.021744232105643073,0.3982959032852255,-1.6521247049301813
1.4373765589459149,1.5027562711306892,-0.021766556879963008,0.38252901258994015,-1.671023659021286
1.4332395094131496,1.4315663149854174,-0.021781332938618985,0.3668389468339709,-1.6870700082751053
1.429100571785145,1.3633499229199835,-0.021786431566690377,0.3512283380653424,-1.7000388812286558
1.424961798335409,1.2980917034948085,-0.02177960474632094,0.335700287462823,-1.7096908725560478
1.4208256815751086,1.235775626120315,-0.021758466414737165,0.32025842174237334,-1.7157707511257279
1.416695182520027,1.176384915150745,-0.02172047100717406,0.3049069568846768,-1.7180061035084988
1.4125737633350175,1.1199019311197915,-0.021662888835030137,0.2896507697569457,-1.7161059345575986
1.4084654250105713,1.066308037582278,-0.02158277773808747,0.2744954780063635,-1.7097592617954798
1.4043747508477715,1.0155834519901141,-0.021476950291384328,0.2594475282269425,-1.698633762804103
1.400306956686626,0.9677070790931062,-0.021341935615409806,0.2445142917415771,-1.682374568019246
1.3962679490267542,0.922656325585109,-0.02117393448850401,0.22970416623735726,-1.6606033402174936
1.392264392487981,0.8804068952206023,-0.020968765919635715,0.2150266797048134,-1.6329178537270252
1.3883037884893739,0.8409325645697621,-0.020721802486755123,0.20049259030401861,-1.5988923912996955
1.3843945676671732,0.8042049412085497,-0.02042789037851375,0.1861139713929372,-1.5580794292444706
1.3805461995347001,0.7701932088202064,-0.020081247858046738,0.1719042642738487,-1.5100133019202748
1.3767693244258732,0.7388638679438486,-0.019675332234869194,0.15787827126677567,-1.4542168512517188
1.3730759152154954,0.710180487675963,-0.019202659453316773,0.1440520473425522,-1.3902125064130422
1.3694794802647763,0.6841034934515626,-0.01865455055425371,0.13044262870377882,-1.3175398308498922
1.3659953254704096,0.6605900301396304,-0.018020763070660008,0.11706751142181901,-1.2357823192606971
1.3626409037759004,0.6395939587819441,-0.01728893897680455,0.1039437660275181,-1.1446070411887987
1.3594362975516652,0.621066068574283,-0.01644375812040781,0.09108665721102455,-1.0438213080874175
1.3564049068288098,0.6049546080848742,-0.015465617909648637,0.07850766373013471,-0.933450106850633
1.3535744608057412,0.5912062463859762,-0.014328550754230493,0.06621193310038087,-0.8138349165813393
1.3509785425928882,0.5797675314838955,-0.012996904117905493,0.05419559218466545,-0.6857457414431954
1.3486589441656422,0.5705867533076763,-0.011419921432052837,0.04244417809131868,-0.5504800866505871
1.3466694359616525,0.5636157268588846,-0.009522270188892255,0.030935047685435486,-0.40989465686029086
1.3450822975444023,0.5588101672911421,-0.007184449992687763,0.019649789869748753,-0.26628889098128583
1.3440020593666042,0.5561251154165561,-0.004186478194661298,0.008613914073249115,-0.12206130610452615
