x,y,v_x,v_y,omega
2.375,32.48,0.0,2.564102564102564,-5.673469387755102
2.37358769909157,31.89709711861298,-0.012280877464608205,2.5046181436106316,-5.3224116081900545
2.369552959957962,31.32760037313727,-0.022803810653722403,2.447527469221631,-5.0036766875297385
2.3632724239104874,30.770977809393322,-0.031809546280839936,2.392668737247454,-4.71337200253704
2.355071508148152,30.2267328574736,-0.03950276469598685,2.339896062054493,-4.448164571642232
2.3452320069582306,29.69440091980828,-0.0460581152163742,2.2890773089482948,-4.205188374926087
2.3339984351308223,29.173546413845408,-0.05162511806543822,2.2400923081201687,-3.981969058918927
2.32158334676746,28.663760190968762,-0.0563321720507543,2.192831369068032,-3.776362369378962
2.308171814168342,28.164657269580555,-0.06028985055027598,2.147194034307679,-3.5865035109535808
2.29392521428308,27.675874832707684,-0.06359362671286828,2.1030880254564055,-3.4107652674001585
2.278984441376588,27.197070450063222,-0.06632613769140931,2.060428345365018,-3.24772319223315
2.2634726420026676,26.72792049193576,-0.06855907425572752,2.0191365079172763,-3.096126540588601
2.2474975505778416,26.268118708115804,-0.07035476422101944,1.97913987312581,-2.9548738892528528
2.231153489695156,25.81737494968612,-0.07176750432407161,1.9403710697410088,-2.822992604939272
2.2145230879864646,25.375414015187022,-0.07284468444715714,1.9027674911207062,-2.6996214867143706
2.197678759212218,24.941974605630502,-0.07362773967672907,1.8662708528490197,-2.583996038431301
2.1806839788597223,24.51680837523818,-0.0741529590406236,1.8308268027363819,-2.475435929575216
2.163594388504196,24.099679066738425,-0.07445217448569089,1.796384575522393,-2.3733342843543177
2.146458753253613,23.69036172166971,-0.07455334943242499,1.7628966859446842,-2.277148503911078
2.1293197935418617,23.288641957471444,-0.07448108284367308,1.7303186549097906,-2.186392378762719
2.112214909185405,22.894315304254743,-0.07425704199508112,1.698608764365883,-2.100629290744505
2.095176810842416,22.507186595077265,-0.07390033490047421,1.6677278371774122,-2.0194663379280593
2.078234071703918,22.127069404331472,-0.07342783152124599,1.637639038872955,-1.9425492438494611
2.0614116103187277,21.753785529521345,-0.07285444139345454,1.6083076986064344,-1.8695579351784528
2.044731113839781,21.38716451226981,-0.07219335407564752,1.5797011470590745,-1.8002026906864006
2.0282114096236326,21.027043194884953,-0.0714562478039027,1.5517885693309785,-1.734220779811785
2.011868791972912,20.673265309230825,-0.0706534708980165,1.5245408711397084,-1.671373521900053
1.9957173098469918,20.32568109500987,-0.06979419976215748,1.4979305568686014,-1.611443707805164
1.9798003878237598,19.984152854755088,-0.06861381783116548,1.4718802279555747,-1.5470750744774036
1.9641566161510298,19.648548311958564,-0.06741897932300726,1.446420144188114,-1.486021029239137
1.9487887636225811,19.318734424128536,-0.06621452092437431,1.4215267065077797,-1.4280677244611277
1.9336985579521886,18.994583435173602,-0.06500465881816975,1.3971775452742592,-1.3730177293880093
1.918886820072943,18.675972601935275,-0.06379306187092075,1.3733514394068564,-1.3206885711019312
1.9043535826197917,18.362783938580733,-0.06258291598256942,1.3500282419369902,-1.270911422421107
1.8900981944987245,18.054903977450135,-0.06137698072236321,1.3271888113725425,-1.2235299202239203
1.8761194132050325,17.752223545083226,-0.06017763922278485,1.30481494833973,-1.1783990997343878
1.8624154863444584,17.45463755226628,-0.05898694217351098,1.2828893370249896,-1.135384432073154
1.8489842236302234,17.162044797044636,-0.057806646645924546,1.261395490989298,-1.0943609539104022
1.8358230604719052,16.874347779739168,-0.05663825038292907,1.240317702971316,-1.0552124793873483
1.8229291141356352,16.59145252908899,-0.05548302210637432,1.2196409983345804,-1.0178308856301521
1.8102992333362193,16.31326843871796,-0.05434202832332986,1.1993510918483077,-0.9821154641885763
1.7979300420181632,16.039708113190393,-0.053216157051069905,1.1794343475218383,-0.9479723316122407
1.7858179779921213,15.770687222982804,-0.052106138827555624,1.1598777412398058,-0.9153138931474516
1.773959327014206,15.506124367753767,-0.05101256532823014,1.1406688259692093,-0.8840583542123308
1.7623502528264017,15.245940947344238,-0.0499359058700677,1.121795699331049,-0.8541292749001245
1.7509868236156874,14.990061039986102,-0.04887652204918612,1.1032469733483812,-0.8254551632810823
1.7398650352962868,14.738411287238058,-0.047834680728210274,1.0850117461998336,-0.7979691037315584
1.7289808319727582,14.490920785205429,-0.04681056556334289,1.0670795758230216,-0.7716084169230557
1.718330123900578,14.247520981634775,-0.04580428723822551,1.0494404552261396,-0.7463143484607514
1.7079088032247363,14.008145578505246,-0.044815892551703145,1.0320847893784448,-0.7220317834765962
1.697712757745038,13.772730439767148,-0.04384537248915107,1.0150033735615496,-0.6987089847615293
1.6877378829287346,13.54121350390411,-0.04289266939174698,0.99818737307355,-0.6762973522691753
1.6779885135961055,13.313643376101826,-0.04188445523981099,0.9806833034680512,-0.6738404195530525
1.6684669630267042,13.090083564386454,-0.04091163666802602,0.9633150592742992,-0.6740940102771958
1.6591650616696938,12.870503311974566,-0.03997446208858595,0.946078439959503,-0.6769125461997698
1.6500746002915547,12.65487280737571,-0.039073028156101565,0.9289694261175127,-0.682155519309632
1.6411873633230678,12.44316314377107,-0.038207293309002126,0.911984170444574,-0.6896871342177534
1.6324951592181143,12.235346280389855,-0.03737709021233386,0.8951189893920704,-0.6993759670062456
1.6239898480672994,12.031395005732332,-0.03658213718605562,0.8783703554559454,-0.7110946389804673
1.615663366690863,11.831282902497222,-0.0358220486959995,0.8617348900667496,-0.7247195038551535
1.6075077514183214,11.634984314078999,-0.0350963449782749,0.8452093570482395,-0.7401303469798867
1.5995151587466907,11.442474312507585,-0.03440446086199232,0.8287906566162406,-0.7572100952731559
1.591677884054844,11.253728667709012,-0.03374575384971761,0.8124758198930849,-0.7758445365882618
1.5839883785384774,11.06872381797092,-0.03311951150999209,0.796262003916404,-0.7959220472788567
1.5764392645182026,10.887436841501223,-0.03252495823152662,0.7801464871244299,-0.8173333267672741
1.5690233492623875,10.709845428972038,-0.031961261384259,0.7641266653032658,-0.8399711379452232
1.5617336374564412,10.535927856943903,-0.03142753692831741,0.7482000479848755,-0.8637300522540357
1.554563342441262,10.365662962067539,-0.030922854508023408,0.7323642552878454,-0.8885061983004732
1.5475058963354376,10.199030115961857,-0.030446242064363645,0.716617015196331,-0.9141970128640834
1.5405549591485155,10.036009200667532,-0.02999668999582799,0.700956161276062,-0.9407009931430774
1.533704426986171,9.876580584575347,-0.02957315489412285,0.6853796308298837,-0.9679174490674455
1.526948439442378,9.720725098727513,-0.029174562877991576,0.6698854634991189,-0.9957462544801989
1.5202813862687132,9.568424013388189,-0.028799812545178848,0.6544718003210855,-1.0240875959498044
1.513697913406683,9.419659014776652,-0.02844777755943237,0.63913688325748,-1.0528417179285512
1.5071929284654224,9.274412181852536,-0.02811730888631188,0.6238790552130887,-1.0819086629121684
1.500761605724326,9.132665963037539,-0.02780723668843991,0.6086967605695073,-1.1111880051848275
1.494399390738076,8.994403152751648,-0.02751637188764721,0.5935885462643157,-1.140578576649995
1.4881020046202034,8.859606867634206,-0.027243507398202207,0.5785530634525787,-1.1699781831506726
1.481865448080738,8.728260522310766,-0.0269874190319297,0.5635890697947245,-1.1992833095716202
1.4756860052937313,8.600347804555735,-0.026746866072477674,0.548695432422936,-1.2283888118904505
1.469560247671489,8.475852649687656,-0.026520591512236874,0.5338711316473163,-1.257187594203428
1.46348503762432,8.35475921401877,-0.026307321941405403,0.5191152654734159,-1.2855702685949995
1.4574575323875067,8.237051847162668,-0.02610576707436443,0.5044270550144421,-1.3134247955475356
1.4514751880011645,8.122715062983104,-0.025914618893828345,0.4898058508947968,-1.3406361024000855
1.4455357635337447,8.011733508943177,-0.025732550388082757,0.4752511407567528,-1.3670856771636515
1.4396373256462565,7.90409193358623,-0.02555821385094564,0.4607625579993116,-1.3926511347885233
1.4337782536020023,7.799775151848056,-0.025390238707787578,0.44633989189786194,-1.4172057527614847
1.4279572448358562,7.69876800786313,-0.025227228823916762,0.43198309927541895,-1.4406179726951296
1.4221733212080752,7.601055334885515,-0.025067759243743284,0.4176923179212226,-1.4627508643702132
1.4164258360805186,7.5066219118968185,-0.024910372300227187,0.4034678819804862,-1.483461548523155
1.4107144823682338,7.415452416418489,-0.024753573023989575,0.38931033957020467,-1.5026005745614148
1.4050393017369391,7.327531372983259,-0.024595823769875822,0.37522047291004523,-1.5200112493788587
1.399400695137385,7.242843096649789,-0.024435537965376817,0.36119932129404775,-1.5355289135885282
1.3937994348913518,7.1613716308652435,-0.02427107286969605,0.34724820726722855,-1.548980161873888
1.3882366785717517,7.083100678892421,-0.024100721213782723,0.3333687664095009,-1.5601820049003443
1.3827139849516792,7.0080135279213955,-0.023922701569456563,0.319562981164629,-1.5689409714971485
1.377233332335309,6.936092964881841,-0.023735147268544837,0.3058332191793398,-1.575052151860653
1.3717971396286623,6.867321182863833,-0.02353609365881666,0.29218227662941076,-1.5782981856949956
1.3664082905623547,6.801679676947227,-0.023323463439510972,0.27861342699325603,-1.5784482040011665
1.3610701615443082,6.739149128140927,-0.023095049760894472,0.26513047567023534,-1.5752567403771063
1.3557866537021699,6.679709274058183,-0.022848496692481127,0.25173782070144224,-1.5684626382466151
1.3505622297790418,6.623338764924583,-0.02258127655210981,0.23844051959074192,-1.5577879959006946
1.345401956681655,6.570015003567367,-0.02229066342516701,0.22524436177635046,-1.5429372137813373
1.3403115546622235,6.519713968222774,-0.021973701961194275,0.2121559455679355,-1.5235962411826374
1.335297454367409,6.47241001740537,-0.02162717016762724,0.1991827571921159,-1.4994321669489081
1.3303668633476131,6.428075676835654,-0.021247534352337047,0.18633324776194699,-1.4700933671475078
1.3255278441473874,6.386681409706284,-0.02083089347571239,0.17361690118909628,-1.4352105209491488
1.3207894068902755,6.348195373656658,-0.020372908760043152,0.16104428185112377,-1.394398946163951
1.3161616204862097,6.312583171111996,-0.0198687121448778,0.14862704462421444,-1.3472629038725183
1.3116557484816456,6.279807604667592,-0.019312783546983077,0.13637788097930725,-1.2934027963414638
1.3072844185541297,6.249828456666524,-0.01869878104011177,0.12431036250822941,-1.2324265526302127
1.3030618393862308,6.222602322848189,-0.01801929868074912,0.11243862721643298,-1.1639669698327364
1.2990040861912564,6.19808254464553,-0.01726551171033239,0.10077683541537573,-1.0877073251532081
1.2951294881510511,6.176219303355747,-0.016426645161018754,0.08933830623490616,-1.003418068328855
1.2914591699927063,6.156959959763835,-0.015489164911544158,0.0781342467382521,-0.9110075013537571
1.2880178297335727,6.140249737322545,-0.01443553299396535,0.06717203535991165,-0.8105882825126114
1.2848348814418686,6.126032837205145,-0.013242278238243766,0.056453183052255634,-0.7025578885545235
1.2819461676186865,6.11425400145027,-0.011876972398121782,0.04597147568578398,-0.587682620891452
1.279396582270333,6.104860338521682,-0.010293334978865714,0.03571254978019191,-0.46715944605896886
1.277244254294643,6.097802783215421,-0.008422560461917484,0.025657496361217894,-0.3426099225695819
1.2755678875974805,6.09303563339984,-0.0061545412525382745,0.01579598029601078,-0.21594691830533308
1.2744829599228555,6.090509897736563,-0.003279612439853112,0.006166938515082833,-0.08906760598416333
