x,y,v_x,v_y,omega
2.375,32.48,0.0,2.5128205128205128,-8.0
2.373867343261919,32.0321073672611,-0.012585074867566376,2.4637642953894683,-7.607104141391508
2.3706009705055284,31.592902379598787,-0.023707955758997583,2.4162911230806476,-7.242322851266722
2.3654496137118874,31.162108429801723,-0.03352934194812388,2.3703083191089482,-6.902957301890231
2.358634847984915,30.739464854123632,-0.04219027724045801,2.3257314106476397,-6.586624647086114
2.350354381196992,30.32472554686465,-0.04981490929202078,2.2824831144521647,-6.291214499804611
2.3407848872752908,29.917657743244,-0.056512800949103506,2.2404924813328093,-6.0148523486918295
2.330084456215506,29.518040944602518,-0.06238087749294534,2.1996941702392228,-5.755868648403769
2.3183947204212663,29.12566596469219,-0.06750507577638622,2.160027828764423,-5.512772578954907
2.3058427063160805,28.74033407956381,-0.07196174761456978,2.1214375615509193,-5.2842296701906735
2.2925424516920025,28.3618562665692,-0.0758188593196305,2.0838714717225333,-5.069042643564641
2.2785964224499704,27.99005252041539,-0.07913702114739077,2.047281263319781,-4.86613494572401
2.264096756880328,27.62475123616947,-0.08197037407085807,2.0116218949682447,-4.674536544996292
2.2491263611482797,27.265788650710693,-0.08436735628523652,1.9768512767959416,-4.493371638684416
2.2337598759744894,26.913008335435336,-0.08637136786798484,1.94293000404137,-4.321847980575104
2.218064531471583,26.56626073409722,-0.08802134883098152,1.9098211219376877,-4.1592475876107216
2.2021009045857274,26.225402740558547,-0.08935228323407833,1.8774899173808828,-4.004918624827163
2.1859235914994444,25.890297311966908,-0.09039563994684345,1.8459037336373516,-3.858268300381665
2.1695818055990688,25.560813113493587,-0.09117975894621694,1.8150318049550973,-3.7187566292997905
2.1531199101359766,25.23682419128795,-0.09173019064369584,1.7848451084408357,-3.5858909466380275
2.1365778934653292,24.91820967074056,-0.09206999458571918,1.7553162309746422,-3.459221069009537
2.119991793690026,24.604853477518393,-0.09222000291765309,1.7264192492716564,-3.3383350185816143
2.10339407863873,24.296644079150703,-0.09219905320785632,1.6981296214804507,-3.2228552362996865
2.0868139863392443,23.99347424521279,-0.09202419456420766,1.670424088940812,-3.1124352216824986
2.0702778304908733,23.69524082438545,-0.0917108704176907,1.643280586918529,-3.0067565454337357
2.053809274874321,23.40184453686594,-0.09127308087733726,1.616678163298257,-2.905526188622317
2.037429580150702,23.113189780777308,-0.09072352716287148,1.5905969043532213,-2.808474168536203
2.021157826080528,22.829184451371095,-0.09007374028350468,1.5650178668269208,-2.7153514167072097
2.005011111829096,22.549739771947202,-0.08933419584352371,1.5399230156607586,-2.625927879195789
1.9890047367083297,22.274770135527028,-0.08851441660943246,1.5152951667856225,-2.539990813145196
1.9731523634298336,22.004192956414265,-0.08762306426274533,1.4911179344672965,-2.4573432569710265
1.9574713820798078,21.737936674501725,-0.08661006184865351,1.4672851978943033,-2.3745958322739553
1.9419760472619736,21.47593208370106,-0.08556032501617136,1.4438769221130505,-2.2953569167760755
1.9266724996122286,21.218104085283578,-0.08447909331432661,1.4208786158589837,-2.219438001163757
1.9115659821473492,20.96438013149315,-0.08337110073989089,1.398276426256848,-2.1466626342046267
1.8966609269978734,20.714690113907363,-0.08224062314317421,1.3760571024741592,-2.076865525844193
1.8819610340260966,20.468966258113134,-0.08109152098767757,1.3542079619061498,-2.009891726220299
1.8674693421217587,20.22714302426032,-0.07992727794940925,1.332716858680647,-1.9455958733860705
1.8531882938854787,19.98915701309278,-0.0787510357870362,1.3115721542920873,-1.8838415032918758
1.8391197943367015,19.754946877089186,-0.07756562586604372,1.2907626901922638,-1.8245004162485017
1.8252652642177518,19.52445323637552,-0.07637359767784117,1.270277762181766,-1.767452094688432
1.8116256884075685,19.297618599097706,-0.07517724465753024,1.2501070964606444,-1.712583167569479
1.7982016599069826,19.07438728596736,-0.07397862757120287,1.230240827209834,-1.6597869172333717
1.7849934198112598,18.85470535871569,-0.07277959571460378,1.2106694755865095,-1.6089628249484798
1.7720008936444085,18.63852055221048,-0.07158180613930044,1.1913839300269586,-1.5600161517368831
1.759223724392895,18.42578221000966,-0.07038674109973748,1.172375427759913,-1.5128575514169387
1.7466613025434268,18.216441223141516,-0.0691957238943547,1.1536355374416831,-1.4674027130880576
1.734312793399894,18.010449971916884,-0.06800993325600765,1.1351561428320136,-1.4235720305487247
1.7221771619280655,17.807762270592725,-0.06683041643097573,1.1169294274364,-1.381290296375468
1.7102531953528302,17.60833331471924,-0.06565810107163995,1.0989478600467755,-1.3404864186026633
1.6985395237114096,17.412119631014406,-0.06449380605525536,1.0812041811180586,-1.301093158133511
1.687034638546741,17.2190790296207,-0.06333825132995093,1.0636913899230995,-1.2630468851836678
1.675736909907935,17.02917055860864,-0.06219206687900631,1.046402732433155,-1.226287353212979
1.6646446018091345,16.842354460600887,-0.06105580088544115,1.0293316898751845,-1.1907574889394361
1.6537558862840651,16.658592131399228,-0.05992992717088842,1.0124719679210485,-1.1564031971545103
1.64306885616089,16.47784608050429,-0.05881485197550125,0.9958174864671449,-1.1231731791718553
1.632590596693197,16.300315620250263,-0.05761025322108714,0.9767431830220421,-1.142560167167248
1.6223248684851028,16.1262083642036,-0.05645339353551459,0.9577818841631128,-1.1635667483218564
1.612263203584321,15.955504232121886,-0.05534288313983923,0.9389306945225998,-1.186070747765171
1.6023973873668629,15.788183653683912,-0.05427729705413767,0.9201868436771198,-1.2099521783739156
1.5927194644851423,15.624227546316746,-0.05325517940942461,0.9015476826247237,-1.2350929718336068
1.5832217440778011,15.463617293616338,-0.05227504733881263,0.8830106807131511,-1.2613767135058216
1.5738968043146147,15.30633472428076,-0.051335394474368815,0.8645734230155084,-1.2886883799661675
1.5647374963453236,15.152362091475599,-0.050434694073308986,0.846233608152926,-1.316914078074486
1.5557369477172247,15.001682052550787,-0.0495714017944581,0.8279890465672036,-1.34594078442708
1.5468885653228288,14.854277649027232,-0.048743958143273425,0.8098376592500861,-1.3756560840205991
1.5381860379358305,14.710132286770154,-0.04795079060115226,0.7917774769396595,-1.4059479069283969
1.5296233383910283,14.56922971626372,-0.047190315452206304,0.7738066397984851,-1.4367042617524364
1.5211947254616955,14.431554012898527,-0.04646093931815729,0.7559233975925446,-1.4678129645668119
1.5128947454862092,14.297089557179653,-0.045761060409469104,0.7381261103949239,-1.4991613620123603
1.504718233794514,14.165821014758198,-0.04508906949825536,0.7204132498434839,-1.530636047135267
1.4966603159842433,14.037733316183395,-0.04444335061586266,0.7027834009876349,-1.5621225664857021
1.4887164090960388,13.912811636265584,-0.043822281475298826,0.6852352647658403,-1.593505116905069
1.4808822227378378,13.791041372932014,-0.043224233615824025,0.6677676611627132,-1.6246662303322252
1.473153760208652,13.67240812544813,-0.04264757226401555,0.6503795331026643,-1.6554864448500917
1.465527319673673,13.556897671865741,-0.04209065590241967,0.6330699511461104,-1.6858439600746764
1.4579994954444424,13.444495945546795,-0.0415518355334749,0.6158381190644182,-1.7156142748595287
1.4505671794203878,13.335189010596693,-0.04102945362268543,0.5986833803811528,-1.744669805151365
1.443227562751257,13.22896303602419,-0.04052184270099025,0.5816052259800026,-1.772879479689495
1.435978137784001,13.125804268425522,-0.04002732360185319,0.5646033028940963,-1.8001083110963854
1.4288167003624994,13.02569900296838,-0.03954420330372388,0.5476774244074721,-1.8262169397648491
1.4217413525542844,12.928633552426149,-0.03907077234310722,0.5308275816173426,-1.851061147817169
1.414750505885236,12.834594213984282,-0.038605301757431924,0.514053956625608,-1.8744913403048742
1.4078428851711577,12.74356723350849,-0.03814603951010513,0.4973569375498528,-1.896351990751969
1.4010175330444299,12.655538766927908,-0.0376912063424272,0.48073713556772674,-1.9164810481433714
1.3942738152846714,12.570494838345759,-0.03723899098822001,0.46419540423392697,-1.9347093025583062
1.387611427074817,12.488421294444517,-0.03678754467683052,0.4477328613354099,-1.9508597068933868
1.3810304003184597,12.409303754702396,-0.03633497483825112,0.43135091357705047,-1.9647466525793125
1.3745311121711214,12.333127556883099,-0.035879337909952624,0.41505128441512346,-1.9761751979625046
1.3681142949577103,12.25987769720179,-0.035418631127948866,0.39883604537718353,-1.9849402492299857
1.3617810476714722,12.189538764508026,-0.03495078316358538,0.3827076512202182,-1.990825695585993
1.3555328492770529,12.122094867763156,-0.03447364344107367,0.3666689792783149,-1.9936035030989543
1.3493715740730572,12.057529556028637,-0.033984969936656124,0.3507233733274394,-1.9930327755866768
1.343299509409395,11.995825730128043,-0.033482415215146645,0.33487469223472166,-1.988858796598726
1.337319376104177,11.936965545108063,-0.03296351039838618,0.3191273635428314,-1.9808120746921771
1.3314343519675595,11.880930302614868,-0.032425646675142875,0.3034864419371238,-1.9686074257665653
1.3256480989210826,11.827700332341522,-0.031866053841268525,0.2879576722111634,-1.9519431426063794
1.319964794308801,11.777254861818491,-0.03128177518408236,0.2725475558225078,-1.9305003249026589
1.3143891671431696,11.729571874055186,-0.03066963776737988,0.25726341932532965,-1.903942475570292
1.308926540233135,11.684627952958259,-0.03002621678856092,0.24211348175162448,-1.8719155148453626
1.3035828794333921,11.642398117141784,-0.029347792097471313,0.227106916209192,-1.8340484274826685
1.2983648516775308,11.602855643833507,-0.028630294078766688,0.21225389832723637,-1.7899548471136713
1.2932798940842047,11.565971886249248,-0.027869234735966926,0.1975656303867698,-1.7392360041522392
1.2883362973639212,11.531716090298115,-0.027059617711627716,0.1830543246258267,-1.6814856300523686
1.2835433081744936,11.500055220112522,-0.026195817726456516,0.1687331218807551,-1.6162976323821434
1.2789112572381833,11.470953807054432,-0.025271414899213775,0.15461591209803188,-1.5432776402557498
1.2744517233452708,11.444373843932496,-0.024278961688704533,0.1407170114790422,-1.462059864400594
1.2701777484353276,11.420274755432427,-0.02320964842177437,0.127050638521715,-1.372331085137695
1.2661041266721045,11.39861348695803,-0.022052815614037467,0.11363012230490731,-1.273863868099348
1.2622478021280443,11.37934476563882,-0.020795234875520974,0.10046678124187951,-1.1665610609077819
1.2586284272824102,11.362421594797997,-0.019420041187080864,0.08756845032282154,-1.050512735152981
1.2552691609372861,11.347796036926866,-0.017905140425407785,0.07493774824530178,-0.9260641096416588
1.2521978247222731,11.335420301393498,-0.01622081751917974,0.06257042434768326,-0.79388734099192
1.2494486052722933,11.325248049985753,-0.01432606525837345,0.05045459129391239,-0.6550402777233899
1.2470646259162261,11.317235617230235,-0.01216259425348329,0.03857243932295271,-0.5109821380965635
1.2451020673896098,11.311342426771166,-0.009643611597808244,0.026907454666711683,-0.36350512481651465
1.243637723694955,11.307528968180002,-0.006626873898356061,0.01546430745732947,-0.21454291576731616
1.2427876978293066,11.305747191981133,-0.0028178579421815142,0.004333205863430879,-0.0658488404865363
