x,y,v_x,v_y,omega
2.375,32.48,0.0,2.1538461538461537,-8.0
2.374074735174506,32.09582613794048,-0.010280720283264691,2.114752313481807,-7.6520724691934054
2.3713966467032543,31.71858943461226,-0.019475818286199046,2.076766612387317,-7.325701771182419
2.367151561105625,31.348095806609397,-0.027691799465238608,2.03982925431115,-7.019063709186864
2.3615071882462058,30.984161492377932,-0.03502345452830878,2.003885348260667,-6.730525037190232
2.3546150950712894,30.626612219678137,-0.0415553585263177,1.9688843484037595,-6.458619687875777
2.3466124297184647,30.27528246664208,-0.04736314539395521,1.9347795742191114,-6.20202845961732
2.337623432901605,29.930014803191348,-0.05251459701559808,1.9015277974556468,-5.959561582688669
2.3277607671383365,29.59065930177142,-0.057070578131831085,1.8690888849880145,-5.730143695108793
2.3171266892938216,29.257073008143138,-0.06108584236277648,1.8374254886595536,-5.512800845398868
2.305814087791223,28.929119464431416,-0.0646097298883201,1.8065027748040479,-5.306649208446009
2.2939074024787174,28.606668277831126,-0.06768677358396571,1.7762881874213976,-5.110885255722273
2.2814834423870294,28.28959472936159,-0.07035722743478978,1.7467512400178906,-4.924777165367119
2.2686121143379143,27.977779417883475,-0.07265752866648614,1.7178633319611507,-4.747657293438825
2.2553570734778954,27.671107935277462,-0.07462070311150511,1.6895975858834318,-4.578915556759346
2.2417763052385062,27.3694705692576,-0.07627672177059444,1.66192870322612,-4.4179936015924754
2.2279226469057916,27.07276203077426,-0.07765281525956759,1.6348328354776906,-4.26437965197323
2.213844255871409,26.780881203367997,-0.078773751789131,1.608287469036321,-4.117603947679747
2.1995850306984046,26.49373091217993,-0.07966208346647118,1.5822713219421978,-3.9772346952616906
2.1851849903368397,26.211217710616445,-0.08033836499536427,1.556764250985445,-3.842874466728053
2.1706806161439673,25.933251682915557,-0.08082134825877062,1.531747167913294,-3.714156989863099
2.156105160781196,25.659746261075547,-0.081128155772022,1.5072019636423954,-3.5907442820101525
2.141488927559681,25.39061805478955,-0.08127443557814427,1.4831114395353355,-3.472324085802591
2.126858976615165,25.12579741205375,-0.08128057491647891,1.459340146418004,-3.35554115286945
2.1122378746631734,24.865217141707827,-0.08117611343898594,1.4359961907589143,-3.243713777569243
2.097644604767523,24.60880166753243,-0.08097132984601618,1.4130646334121881,-3.136574938796697
2.0830963787154,24.356478040472034,-0.08067562628867928,1.3905312228144022,-3.0338747953051968
2.0686087878040507,24.108175818631523,-0.080297606059651,1.3683823531913075,-2.9353793941155355
2.0541959403123755,23.863826954510017,-0.07984514384785141,1.3466050259365214,-2.840869490190301
2.0398705869257374,23.623365688927436,-0.07932544933701781,1.3251868138699405,-2.750139466522566
2.0256442352500077,23.38672845114877,-0.07874512483775677,1.3041158281152399,-2.662996344974732
2.0115272544338616,23.15385376475568,-0.07811021756386403,1.2833806873635407,-2.5792588792459474
1.9975289708145743,22.924682158854637,-0.07742626709488575,1.2629704893146843,-2.4987567222639266
1.9836577554104353,22.69915608424651,-0.07669834850665662,1.242874784108981,-2.4213296611058843
1.9699211040009528,22.477219834214388,-0.07593111159870562,1.223083549581234,-2.346826913267789
1.9563257104629825,22.25881946961538,-0.07512881660096375,1.2035871681855532,-2.2751064787334556
1.9428775339657798,22.043902747987794,-0.07429536670128836,1.1843764054543018,-2.2060345428555164
1.9295818605697352,21.832419056408813,-0.0734343376992062,1.1654423898676722,-2.1394849255580546
1.9164433597214652,21.624319347858737,-0.0725490050593506,1.1467765940220893,-2.0753385728133793
1.9034661360912422,21.419556080867103,-0.07164236860979425,1.128370816996068,-2.013483086739786
1.890653777156875,21.218083162233526,-0.07071717510539773,1.1102171678214596,-1.953812291018986
1.878009396900528,21.01985589263172,-0.06977593885401102,1.092308049976349,-1.8962258286462463
1.8655356759511488,20.82483091491975,-0.06882096058353906,1.0746361468233214,-1.8406287893075441
1.8532348984747107,20.632966164992535,-0.06785434471021554,1.0571944079235158,-1.7869313639300428
1.8411089860870513,20.444220825024757,-0.06687801515266696,1.039976036162892,-1.7350485241782878
1.8291595290393072,20.258555278963165,-0.06589372982226607,1.022974475632563,-1.6848997248716049
1.8173878149036127,20.075931070137344,-0.0649030939076762,1.0061834002099264,-1.6364086274808545
1.805794854966503,19.896310860867192,-0.06390757206020577,0.9895967027917403,-1.5895028430271865
1.7943885182315038,19.719906442750634,-0.06282950277312023,0.9704523873922564,-1.5971512851169263
1.7831733038810644,19.546937307252367,-0.061783990009541136,0.951426895921794,-1.6066531167219746
1.7721434068583404,19.377382343732158,-0.06077042135405841,0.9325171431916142,-1.6178757423644492
1.7612931394349847,19.21122098439796,-0.05978810557211442,0.9137201827439407,-1.63068907354147
1.7506169447980686,19.048433179694783,-0.058836279282508064,0.8950332028468939,-1.6449652413621338
1.74010940948564,18.888999374369746,-0.05791411307781302,0.8764535229868478,-1.6605783138978043
1.729765274767192,18.73290048412418,-0.05702071712716346,0.8579785908527772,-1.677404017070224
1.7195794470594132,18.58011787276447,-0.05615514629260069,0.839605979810685,-1.6953194579055633
1.7095470074622439,18.430633329763225,-0.0553164047870588,0.82133338686983,-1.7142028489782442
1.6996632204954922,18.284429048141774,-0.05450345039907169,0.8031586311462647,-1.7339332328561952
1.689923542112001,18.141487602583624,-0.053715198306384784,0.7850796528331758,-1.7543902053390728
1.680323627059622,18.001791927686384,-0.05295052449782759,0.7670945126917592,-1.7754536362528597
1.670859335661015,17.86532529625684,-0.052208268820024994,0.7492013920808962,-1.7970033865280668
1.6615267400775635,17.73207129755017,-0.05148723766277162,0.731398593548798,-1.8189190202444685
1.6523221301214415,17.60201381534942,-0.050786206294139574,0.7136845420151108,-1.841079510272914
1.643242018678144,17.47513700577606,-0.05010392085361026,0.6960577865777928,-1.8633629360843766
1.634283146800537,17.351425274715368,-0.049439100008688175,0.6785170029854635,-1.8856461722282951
1.6254424885347767,17.230863254732608,-0.04879043627753974,0.6610609968229658,-1.9078045659069252
1.6167172555382525,17.11343578134663,-0.04815659701717199,0.6436887074656659,-1.9297116019906715
1.608104901550093,16.999127868516723,-0.04753622507348963,0.6263992128666221,-1.951238553732561
1.5996031267757203,16.887924683186203,-0.046927939086206384,0.6091917352502956,-1.9722541173501171
1.5912098822485423,16.779811518711945,-0.04633033343799362,0.5920656477970293,-1.9926240285528798
1.5829233742341189,16.674773766992935,-0.045741977833376676,0.5750204824141874,-2.0122106590079336
1.5747420687451341,16.572796889092416,-0.04516141648867685,0.5580559387026856,-2.030872590660125
1.5666646962392825,16.47386638412742,-0.044587166909675624,0.541171894241715,-2.048464165766699
1.5586902565768415,16.377967756175988,-0.044017718228559335,0.5243684163297436,-2.064835010479768
1.5508180243203329,16.285086478926043,-0.04345152906598068,0.5076457753363158,-2.079829529830856
1.5430475544654096,16.195207957760484,-0.042887024877608156,0.4910044598365509,-2.093286372062545
1.535378688700082,16.108317488940557,-0.0423225947371459,0.47444519371820393,-2.1050378604444138
1.527811562298806,16.024400215513705,-0.041756587499251104,0.4579689554690614,-2.114909391047101
1.5203466117690585,15.943441079533255,-0.04118730727572392,0.4415769998692833,-2.1227187954888147
1.5129845833810731,15.865424770135544,-0.040613008146336144,0.4252708823274879,-2.1282756684940787
1.505726542726908,15.790335666976304,-0.040031888011052,0.4090524861085084,-2.1313806613266015
1.498573885473411,15.718157778483427,-0.039442081472249466,0.3929240527012506,-2.1318247439298452
1.4915283494957807,15.648874674339762,-0.038841651612531496,0.3768882155616748,-2.129388441140264
1.4845920286053054,15.582469411570429,-0.03822858050386021,0.3609480374309112,-2.123841051917983
1.477767388117984,15.518924453579181,-0.037600758244157435,0.34510705136072667,-2.1149398655645406
1.4710572825522596,15.458221581465143,-0.036955970263889804,0.3293693054619112,-2.1024293959124636
1.464464975797114,15.40034179696534,-0.0362918825710623,0.3137394112025918,-2.0860406642258096
1.4579941641608252,15.345265216425986,-0.03560602449881247,0.29822259479020224,-2.0654905750714794
1.451649002802557,15.292970955329487,-0.03489576837083299,0.28282475072643354,-2.040481448112223
1.445434136173618,15.243437003127355,-0.03415830528404582,0.2675524959639334,-2.010700794543099
1.4393547332677974,15.196640088499194,-0.033390615891740104,0.25241322212674894,-1.9758214623163395
1.4334165287232943,15.152555535740301,-0.03258943460273845,0.2374151418609524,-1.935502322791951
1.4276258711666516,15.111157113867264,-0.0317512049155133,0.22256732339503094,-1.8893897374451376
1.4219897806935933,15.07241688134728,-0.03087202256291083,0.20787970460481056,-1.8371201322846817
1.416516018121119,15.036305031268288,-0.02994756157569491,0.19336307405065717,-1.7783241261118958
1.411213169737901,15.002789744483398,-0.028972976015615586,0.17902900133700947,-1.712632813115198
1.4060907529035833,14.971837062031192,-0.027942766587912254,0.16488969257639371,-1.6396869946325427
1.4011593502663615,14.94341079320126,-0.026850596047886845,0.15095773886730482,-1.5591503855443967
1.3964307839709722,14.917472482135256,-0.025689029456438025,0.13724571742161695,-1.4707280650269772
1.39191834657808,14.893981463671057,-0.024449163797919768,0.12376559884725451,-1.3741916360895177
1.3876371133100798,14.872895047346006,-0.023120094735418838,0.11052791587554081,-1.2694125616458767
1.3836043718055828,14.854168874610714,-0.021688144203435754,0.09754067007213041,-1.1564046775234675
1.3798402224558757,14.837757492992086,-0.02013573745997579,0.08480801457930542,-1.0353754582732095
1.376368427383754,14.823615171947907,-0.018439763341374645,0.0723288859115781,-0.906782513624051
1.3732176252211181,14.811696931146802,-0.016569149576802628,0.060096011878464986,-0.7713862671999185
1.370423098773258,14.801959636477033,-0.014481144288309936,0.04809615111897441,-0.630281732226539
1.3680294372131427,14.794362801940895,-0.012115095268524917,0.036313121504787556,-0.4848837546405884
1.3660948654454705,14.788868324981731,-0.009380146594498566,0.02473662248590887,-0.3368363162993019
1.364699543421096,14.785437365047077,-0.006123431454107535,0.013385154565791249,-0.18782433817951222
1.3639681744703267,14.784017802632725,-0.002002890221106562,0.0023877611492102626,-0.03931168962776593
