x,y,v_x,v_y,omega
2.375,32.48,0.0,2.8205128205128203,-4.938775510204081
2.373620884078216,31.839304669745495,-0.011992312363340857,2.7507509208306637,-4.606264121089668
2.369697354393431,31.21430570595458,-0.022125337069571406,2.6840226773512157,-4.307287796959834
2.3636252409731098,30.604330036252243,-0.030675649194088966,2.6201135809299894,-4.03746217128528
2.355741904355479,30.008751455067827,-0.037875104002703275,2.5588306032823174,-3.7930818416244385
2.34633560192544,29.426986019270604,-0.04391883017154584,2.49999927321527,-3.5710002886218146
2.3356531977352044,28.858488057020388,-0.04897164104789513,2.443461268090967,-3.368533615971726
2.323906539808697,28.30274668407342,-0.05317321048695272,2.3890724097087626,-3.1833828667018196
2.311277758877983,27.759282744103988,-0.05664227586708227,2.3367009813297486,-3.013570943411538
2.2979236891755646,27.227646106462746,-0.05948006937133746,2.286226302507133,-2.8573910944357164
2.283979570907613,26.707413267679666,-0.061773132958675286,2.2375375129979287,-2.713364621950652
2.2695621622290068,26.198185212980867,-0.06359563815964046,2.1905325278611683,-2.5802059889731024
2.254772363671491,25.69958550187113,-0.06501130581875911,2.1451171339626423,-2.4567938969120364
2.2396974383886334,25.211258547976588,-0.06607500098869827,2.1012042042507755,-2.3421472069949116
2.224412896052531,24.732868068237888,-0.06683406280349861,2.058713010868347,-2.2354048112709255
2.2089840958526707,24.2640956804816,-0.06732941719528449,2.017568621795049,-2.1358087392132603
2.193467614116154,23.80463963159236,-0.06759651094833756,1.9777013685461944,-2.0426899268092713
2.177912414064293,23.35421364112141,-0.06766609819828051,1.9390463746794309,-1.9554561857632646
2.162360848739219,22.912545847321063,-0.06756490462845101,1.901543136627955,-1.8735819979938237
2.1468495228628757,22.47937784438276,-0.06731618994844703,1.8651351497920374,-1.796599830215606
2.131410035086117,22.054463801151257,-0.06694022550162855,1.8297695739601982,-1.724092719016822
2.1160696185567858,21.637569652844277,-0.06645470084038103,1.7953969330569992,-1.6556879215026226
2.1008516948322753,21.228472358370983,-0.06587507067710151,1.7619708449716491,-1.5910514625948708
2.0857763537650653,20.826959216747042,-0.06521485164646292,1.7294477778452246,-1.5298834392564107
2.0708607700043054,20.43282723687806,-0.06448587670797208,1.6977868297111325,-1.4719139656394555
2.056119565106864,20.045882555647633,-0.0636985137045631,1.6669495288143295,-1.4168996625347674
2.041565122876529,19.665939899819936,-0.06286185351574106,1.6368996522960784,-1.3646206103786556
2.02720786440113,19.292822087763803,-0.06198387235729509,1.6076030612355163,-1.3148776981357138
2.013056488294545,18.926359567437537,-0.0610715720477889,1.5790275502972393,-1.2674903111537896
1.999118180841596,18.56638998745119,-0.06013110145611546,1.5511427104536095,-1.2222943100118324
1.9853988000623957,18.212757798353636,-0.05916786184128,1.5239198034381225,-1.1791402597932492
1.9719030371373323,17.865313881582324,-0.058186598376661375,1.4973316467472073,-1.1378918753920984
1.958659320908781,17.523918686346363,-0.056976151436828076,1.471322224869827,-1.0925157591579917
1.9456928758521503,17.188438176896188,-0.05577554470778723,1.4458995964360526,-1.0494699784964492
1.9330011940235405,16.85874006906059,-0.0545869059757762,1.421040471699566,-1.0086046186551607
1.9205813175215236,16.534697297498973,-0.05341202012871713,1.396722759271023,-0.9697812370562627
1.9084299123199266,16.21618774897481,-0.05225237292864942,1.3729254887651545,-0.9328718474663018
1.8965433326675383,15.903094012733881,-0.05110918926603095,1.349628739416833,-0.8977580060086334
1.884917677240931,15.595303146676162,-0.049983466617509256,1.3268135741285527,-0.8643299876408862
1.8735488380820378,15.292706458127647,-0.04887600432939051,1.304461978467226,-0.8324860431189566
1.8624325432187825,14.995199298123541,-0.04778742926413496,1.2825568041771724,-0.8021317276804041
1.8515643937518333,14.702680868208919,-0.046718218274552144,1.2610817168195523,-0.7731792937312405
1.8409398960908296,14.415054038848172,-0.045668717908089164,1.2400211471869471,-0.745547140733883
1.8305544899370338,14.132225178611435,-0.04463916169013564,1.2193602461759747,-0.7191593162898734
1.8204035725343997,13.854103993375602,-0.04362968528929127,1.1990848428312517,-0.6939450631053179
1.8104825196459169,13.580603374840376,-0.04264033982794898,1.1791814053011562,-0.6698384071338552
1.8007867036554517,13.311639257716681,-0.04167110356740152,1.1596370044700877,-0.6467777827232546
1.7913115091459733,13.047130484996455,-0.04072189216719202,1.1404392800536136,-0.6247056910576317
1.7820523462620597,12.78699868075962,-0.039792567692928535,1.1215764089623366,-0.603568388596474
1.7730046621270321,12.531168130016809,-0.03888294652470204,1.1030370757577685,-0.5833156025716323
1.7641639505522946,12.279565665125158,-0.03799280629910233,1.0848104450391838,-0.56390027092058
1.755525760247759,12.03212055834998,-0.03712189200120682,1.0668861356145476,-0.5452783043140624
1.747085701717146,11.788764420177351,-0.036269921308472446,1.0492541963213446,-0.5274083681835174
1.738839452999944,11.549431103012314,-0.035436589275891224,1.0319050833746248,-0.5102516828724352
1.7307827644025222,11.314056609924286,-0.034621572440820335,1.0148296391299665,-0.4937718402296905
1.7229114623439479,11.082579008126118,-0.03382453241634777,0.9980190721584581,-0.4779346351348932
1.7152281896114532,10.855040294075327,-0.03298653482273688,0.980578441326678,-0.4806332260781585
1.7077337913212316,10.631497693305661,-0.03218214596179834,0.9632702610182257,-0.48588353596262085
1.7004205100803116,10.411921206561434,-0.03141160395924447,0.946090493279403,-0.49354777151945917
1.6932805504548516,10.19628174373463,-0.030675001479539374,0.929035270431922,-0.5034928192659855
1.6863061109306214,9.984551085661408,-0.02997229873115736,0.9121008867265389,-0.5155899137411836
1.6794894130038072,9.77670184776672,-0.029303335415053377,0.8952837906185704,-0.5297143203790743
1.672822727635901,9.57270744541822,-0.02866784169717477,0.8785805776292613,-0.5457450316136411
1.666298399288622,9.372542060858365,-0.028065448279162786,0.8619879837607938,-0.5635644748808126
1.6599088677384672,9.176180611590695,-0.027495695635227406,0.8455028794363457,-0.5830582312449494
1.653646687855506,8.98359872010241,-0.026958042477478326,0.8291222639400374,-0.6041147634298927
1.6475045475173244,8.794772684810791,-0.026451873506709144,0.8128432603348997,-0.6266251520783189
1.6414752838164706,8.609679452125658,-0.025976506500716992,0.7966631108401858,-0.6504828390981904
1.6355518977083077,8.428296589524003,-0.02553119878765505,0.7805791726524594,-0.6755833769817104
1.6297275672357507,8.250602259536201,-0.02511515314762245,0.7645889141979719,-0.7018241830004895
1.6239956594578833,8.07657519454564,-0.024727523181659373,0.7486899118069154,-0.7291042971906254
1.6183497412008898,7.906194672305471,-0.02436741818350067,0.7328798468032446,-0.7573241430430298
1.6127835887420185,7.7394404920773,-0.024033907545816687,0.7171565030069501,-0.7863852898074348
1.607291196530391,7.576292951296871,-0.023726024729203644,0.70151776464896,-0.8161902153028255
1.6018667850423651,7.416732822671474,-0.023442770818847172,0.6859616147023113,-0.8466420681022286
1.5965048078637856,7.260741331612465,-0.023183117690540496,0.6704861336369077,-0.877644427925394
1.5911999580868488,7.108300133904173,-0.022946010804562742,0.6550894986091195,-0.9091010630283899
1.5859471741054043,6.959391293507423,-0.022730371642781428,0.639769983101761,-0.9409156833238537
1.5807416448893459,6.813997260391737,-0.0225350998012036,0.6245259570346524,-0.9729916878988488
1.575578814816299,6.672100848285073,-0.022359074747028928,0.6093558873711362,-1.0052319055181411
1.5704543881370987,6.533685212223453,-0.022201157246018836,0.5942583392516534,-1.037538326608284
1.5653643331506015,6.3987338257749435,-0.022060190462650592,0.5792319776918992,-1.0698118251111932
1.560304886163213,6.267230457802992,-0.021935000732032285,0.5642755698902976,-1.1019518684738292
1.5552725553091595,6.139159148622873,-0.021824397998868972,0.5493879881976891,-1.133856213902122
1.5502641243090827,6.014504185391829,-0.02172717591484198,0.534568213811381,-1.1654205888513327
1.545276656246999,5.8932500765579015,-0.021642111581537633,0.5198153412662456,-1.1965383535507563
1.5403074974491524,5.775381525174414,-0.021567964921477084,0.5051285838075666,-1.227100143167402
1.5353542815528822,5.660883400865973,-0.021503477654786714,0.49050727974407304,-1.2569934870008739
1.5304149338594257,5.549740710207445,-0.021447371853530704,0.47595089989531253,-1.286102401870699
1.5254876760717138,5.44193856524895,-0.021398348039615486,0.46145905626549893,-1.314306956609543
1.5205710315268406,5.337462149887315,-0.021355082785367664,0.4470315120965287,-1.3414828043146094
1.515663831043173,5.236296683746435,-0.021316225768264672,0.432668193476334,-1.3675006787410922
1.5107652195142096,5.13842738318553,-0.021280396222721706,0.4183692027054537,-1.3922258509557466
1.50587466339555,5.04383941900408,-0.021246178722143363,0.4041348336549667,-1.4155175421208461
1.5009919592479588,4.952517870354715,-0.021212118213431688,0.38996558938298886,-1.4372282880724698
1.4961172435188557,4.86444767430946,-0.02117671421355199,0.3758622023148804,-1.4572032512272461
1.491251003767021,4.77961357044984,-0.02113841406327118,0.3618256573340052,-1.475279475350119
1.4863940915613618,4.698000039766335,-0.021095605116374736,0.34785721817474086,-1.4912850789183012
1.4815477373148385,4.6195912370572785,-0.021046605722958602,0.3339584575561917,-1.5050383833339946
1.4767135673498717,4.544370915911067,-0.020989654841967683,0.32013129154130154,-1.5163469732316217
1.4718936235327142,4.472322345239338,-0.020922900089836754,0.3063780186476397,-1.5250066878278237
1.4670903858627122,4.403428216204254,-0.02084438399713589,0.2927013642661216,-1.5308005450133342
1.4623067984599407,4.337670538254265,-0.02075202820087692,0.27910453095115967,-1.5334976041770045
1.4575462994639536,4.2750305228569445,-0.020643615242490285,0.2655912551125098,-1.5328517802983959
1.4528128554412112,4.215488453407172,-0.02051676756396613,0.25216587053769274,-1.528600631685549
1.4481110010048543,4.15902353971477,-0.020368923186963147,0.23883337896144027,-1.5204641583808451
1.4434458844867533,4.105613755470639,-0.02019730740521967,0.22559952750926832,-1.5081436699113608
1.43882332068203,4.055235657206875,-0.019998899592375816,0.21247089217561857,-1.4913208129222515
1.4342498519325706,4.007864183585529,-0.01977039388118385,0.1994549654013234,-1.4696568959468468
1.4297328191638945,3.9634724344970564,-0.019508151933391345,0.1865602440636374,-1.4427927168344392
1.4252804449967442,3.92203143061289,-0.019208145172261264,0.17379631145086594,-1.410349197736398
1.420901931815258,3.883509855999044,-0.01886588249283784,0.16117390258258896,-1.3719292764281024
1.4166075788426404,3.847873789574546,-0.01847631726905423,0.1487049358912952,-1.3271217092299146
1.4124089241085702,3.8150864361785004,-0.01803372389677136,0.13640248494387638,-1.275507732876361
1.40831892011133,3.7851078755918834,-0.01753152825314524,0.12428065059192477,-1.2166719358430247
1.4043521566729122,3.7578948590333106,-0.016962066863530433,0.11235427600436337,-1.1502192225935013
1.4005251520810569,3.7334006984107475,-0.016316233935211477,0.10063842506139693,-1.075800403325199
1.3968567459110104,3.711575314385488,-0.015582950152147992,0.08914752298432214,-0.9931495997659705
1.3933686467633841,3.692365533436522,-0.014748346783733355,0.0778940504849449,-0.9021369917816235
1.3900862199725843,3.6757157445438295,-0.0137944948753962,0.06688672249500227,-0.8028396350134532
1.387039651252047,3.6615690239016487,-0.012697407042316856,0.05612823961091381,-0.6956295169169753
1.384265705555354,3.6498687698372514,-0.011423859885450097,0.04561310007948671,-0.581268996852897
1.3818104500925652,3.6405606825913566,-0.009926187617062328,0.03532678901525307,-0.46098649734484526
1.3797336445249089,3.6335944445872954,-0.008132991232121273,0.02524919362874744,-0.3364809767860403
1.3781165242946494,3.6289234259566783,-0.0059289238136134076,0.015368359680975677,-0.20978473354374627
1.3770792277582298,3.6264977219883328,-0.003091046068297873,0.005724718304629114,-0.08292536660663538
