x,y,v_x,v_y,omega
2.375,32.48,0.0,2.9743589743589745,-5.918367346938775
2.3732549644632304,31.80472406371651,-0.01517422205886555,2.8976056889757067,-5.4999853395155816
2.3683021509552424,31.146693144479187,-0.027893721488855105,2.824402304392295,-5.126096815785928
2.3606621580239993,30.505121667504586,-0.03854099965239132,2.754480104082499,-4.79058147192024
2.3507750752780034,29.87928249912112,-0.047433632921486446,2.6875996209911124,-4.4883164108460045
2.3390140107174275,29.268500721632005,-0.054836493692215924,2.623546270218602,-4.214990190377662
2.3256961014946564,28.672148315831986,-0.06097141259274837,2.5621268236945984,-3.9669558588684946
2.3110915280686366,28.08963958005935,-0.06602487806829464,2.5031665308500424,-3.7411138783476794
2.2954309323458815,27.520427153749523,-0.07015421517305362,2.4465067414093378,-3.5348181819938587
2.2789115514466296,26.963998542310023,-0.07349257525522691,2.392002923281991,-3.345800295667516
2.261702311627322,26.419873061713893,-0.07615298839092562,2.339522994945201,-3.172107676597805
2.243948075710862,25.88759913754494,-0.07823167175220232,2.288945910871784,-3.012053322720359
2.2257731979643314,25.366751905742554,-0.07981074343502036,2.240160452627236,-2.8641743763096614
2.2072845097509655,24.856931071989028,-0.0809604584203356,2.1930641887077726,-2.727197949412567
2.188573835319758,24.357758994273574,-0.08174105837277111,2.147562574035298,-2.60001278094688
2.169720118206019,23.868878959172186,-0.08220430783365879,2.1035681659767533,-2.4816456279434007
2.1507912237305025,23.389953627178436,-0.08239477456213697,2.060999938316729,-2.371241519088339
2.1318454711271637,22.920663626285624,-0.08235090024950203,2.019782678142526,-2.268047174025193
2.112932939237208,22.46070627616298,-0.08210589879359534,1.979846453358707,-2.171397028949358
2.094096581974048,22.009794427843698,-0.08168851219040273,1.9411261407220242,-2.0807014168713622
2.07537318350104,21.567655405968846,-0.08112364844444667,1.9035610060158126,-1.995436536256722
2.0567941779700947,21.13403004239969,-0.08043292138986108,1.8670943293681586,-1.9151359096335254
2.038386354509681,20.708671791491085,-0.07963510870069392,1.831673069837088,-1.8393830880336413
2.020172464741113,20.291345918565717,-0.07874654146076868,1.797247564296577,-1.7678054007343091
2.0021717472971456,19.88182875418522,-0.0777814363128576,1.7637712564033543,-1.7000685849505273
1.9844003815017246,19.47990700771424,-0.07675217929950018,1.7312004520399877,-1.6358721586410772
1.9668718804525513,19.085377134443462,-0.07566956895418005,1.6994940981406592,-1.574945422790849
1.9495974321556837,18.698044751200534,-0.07454302493162605,1.6686135822326285,-1.5170439984821336
1.932586196034738,18.31772409594956,-0.07338076742442468,1.638522550384541,-1.4619468196033536
1.9158455610289773,17.944237527376515,-0.07218997175610187,1.609186741555007,-1.4094535148254403
1.899381370566175,17.5774150608897,-0.07097690183348324,1.5805738365912259,-1.3593821230275704
1.8831981189164293,17.217093937841934,-0.06974702555561037,1.5526533203458395,-1.3115670950927516
1.867299122776635,16.863118225111947,-0.06850511479042735,1.5253963555670746,-1.2658575422538925
1.8516866713812616,16.515338442473286,-0.06725533212586168,1.4987756673777932,-1.22211569722089
1.8363621579663965,16.173611215435628,-0.06600130626426996,1.4727654372975247,-1.180215559375363
1.8213521847909369,15.837803093765906,-0.06452019960929088,1.447305185917453,-1.1336947422064025
1.8066802647471556,15.507785812145087,-0.0630617138148947,1.4224103064374989,-1.0895311610122074
1.7923410455147242,15.18343188944483,-0.06162714907581315,1.3980585866082291,-1.0475750708141416
1.778328907376845,14.864618823333984,-0.06021753038400775,1.3742289447904237,-1.0076880445114282
1.7646380222484588,14.551228838549768,-0.05883364464543559,1.350901357681022,-0.9697419827518476
1.7512624047155292,14.243148651156556,-0.057476073032211854,1.3280567935643053,-0.9336182218985163
1.7381959561092433,13.940269247578218,-0.056145219196362166,1.3056771505951463,-0.8992067292610653
1.7254325025048605,13.642485677297543,-0.0548413338852268,1.28374519967159,-0.8664053760759945
1.7129658274191921,13.349696858212969,-0.053564536424933876,1.262244531498625,-0.8351192798630532
1.7007896998806664,13.061805393729905,-0.052314833475289625,1.241159507484533,-0.8052602087771628
1.6888978984593943,12.778717400742359,-0.05109213540533721,1.2204752141462951,-0.7767460414397962
1.6772842317696584,12.500342347731383,-0.04989627059236595,1.2001774207317522,-0.749500276487775
1.6659425558922112,12.226592902270916,-0.048726997907176196,1.1802525397940389,-0.7234515867363739
1.6548667891072797,11.957384787289556,-0.04758401761396657,1.160687590478648,-0.6985334134304169
1.644050924280071,11.692636645489358,-0.046466980883501124,1.1414701643056864,-0.6746835965627591
1.633489039197825,11.43226991137048,-0.0453754980925521,1.1225883932497798,-0.6518440376836727
1.6231753051202333,11.176208690353892,-0.04430914606041848,1.104030919937922,-0.6299603920152816
1.6131039937725635,10.924379644533847,-0.043267474354100256,1.085786869801592,-0.6089817870293017
1.603269482982482,10.676711884627768,-0.04225001077704371,1.0678458250338894,-0.5888605649499233
1.5936662611368024,10.433136867724098,-0.041256266141908436,1.0501978002154204,-0.5695520469118887
1.5842889306127308,10.193588300458618,-0.040285738415236194,1.0328332194843977,-0.5510143167411186
1.5751322103192176,9.958002047277159,-0.03933791631096695,1.0157428951369953,-0.5332080225354944
1.5661909374674305,9.726316043467744,-0.038412282400223825,0.9989180075535836,-0.5160961944099232
1.5574680131819902,9.498572684416953,-0.03743923312534416,0.9814590276706733,-0.5176861124231178
1.548964522437626,9.274829563000093,-0.03650416465173585,0.9641333324759173,-0.5218718758967783
1.5406717234009282,9.0550564930899,-0.03560713131954973,0.9469368406561945,-0.5285132556454841
1.532580877585162,8.839224207316338,-0.034748049687113286,0.9298656443312883,-0.5374748475000583
1.524683280085537,8.627304318163127,-0.03392671117919135,0.9129160004792581,-0.5486257303063512
1.5169702870249173,8.419269280962624,-0.033142793695762104,0.8960843230033736,-0.5618391393604529
1.5094333404398586,8.215092358645908,-0.03239587226127048,0.8793671754028591,-0.5769921538070735
1.5020639908192264,8.014747588113003,-0.031685428787705104,0.862761264013697,-0.5939653966061024
1.494853917491485,7.8182097480956365,-0.031010861018740996,0.8462634317894946,-0.6126427457401807
1.4877949470419272,7.6254543283913065,-0.030371490716544675,0.8298706525959931,-0.6329110553940691
1.4808790699275498,7.436457500353203,-0.0297665711476049,0.8135800259962085,-0.6546598858851337
1.4740984554448804,7.251196088525393,-0.029195293919086308,0.7973887725064883,-0.6777812411637624
1.467445465194729,7.069647543316844,-0.028656795212665356,0.7812942293069814,-0.7021693127332155
1.460912665177538,6.891789914611326,-0.028150161458559957,0.765293846393178,-0.7277202288604777
1.4544928366436294,6.717601826212903,-0.02767443448847167,0.7493851831583291,-0.7543318079631783
1.4481789858141805,6.547062451028726,-0.02722861620238816,0.7335659053997333,-0.7819033150625518
1.4419643525811354,6.380151486892068,-0.02681167278061252,0.7178337827451184,-0.8103352201886144
1.435842418287434,6.216849132929028,-0.02642253846896377,0.7021866864987008,-0.8395289576110084
1.4298069126828965,6.057136066372028,-0.02606011896179902,0.6866225879100069,-0.8693866847470204
1.4238518201457935,5.900993419722067,-0.025723294404312796,0.6711395568722559,-0.8998110395666958
1.4179713852555667,5.748402758159735,-0.025410922032442048,0.6557357610610691,-0.9307048952732627
1.41216011779829,5.599346057101926,-0.025121838465616202,0.6404094655285696,-0.9619711109846337
1.4064127972833258,5.453805679797288,-0.02485486166450836,0.6251590327726205,-0.9935122770778855
1.4007244770471816,5.311764354848233,-0.024608792562833322,0.6099829233061148,-1.0252304537825352
1.3950904880188633,5.17320515354098,-0.024382416379065717,0.5948796967569513,-1.0570269015192684
1.3895064422200423,5.038111466857323,-0.024174503610679875,0.5798480135357282,-1.0888018013775822
1.3839682360731524,4.906466982032448,-0.02398381071010202,0.5648866371153638,-1.1204539640076197
1.378472053591124,4.778255658512062,-0.023809080437971208,0.5499944369749544,-1.151880525067279
1.3730143695239272,4.653461703148967,-0.023649041885480226,0.5351703922693593,-1.1829766252145928
1.3675919525394493,4.532069544463901,-0.02350241015345853,0.5204135962964301,-1.2136350724665717
1.3622018685195898,4.414063805777559,-0.0233678856714068,0.5057232618456886,-1.243745984558754
1.3568414840568723,4.299429276999838,-0.023244153134831212,0.4910987275258115,-1.2731964087345542
1.3515084702424707,4.188150884838237,-0.023129880033879387,0.47653946518377927,-1.3018699161709761
1.3462008068434326,4.080213661159284,-0.02302371474036467,0.46204508854623483,-1.329646168009281
1.3409167869752172,3.97560270920458,-0.0229242841136821,0.44761536323380535,-1.3564004497095514
1.335655022385587,3.8743031673256425,-0.02283019057875462,0.4332502183221559,-1.3820031701931288
1.3304144494776304,3.7763001698588816,-0.022740008620866798,0.4189497596496891,-1.4063193219868624
1.325194336213449,3.6815788047125118,-0.022652280632884964,0.4047142851013568,-1.4292078983537753
1.3199942900560984,3.590124067180767,-0.022565512039729507,0.39054430213121166,-1.450521263210005
1.3148142671260563,3.5019208094360152,-0.02247816561281082,0.37644054782316466,-1.4701044695231504
1.309654582770171,3.4169536850759314,-0.02238865487314672,0.3624040118297228,-1.4877945219146138
1.3045159237662123,3.335207088019775,-0.02229533646562477,0.34843596257162807,-1.5034195794243232
1.2993993624153706,3.2566650849545518,-0.02219650136778097,0.33453797712595795,-1.516798094951041
1.2943063728090975,3.181311340428568,-0.022090364773723465,0.32071197527390577,-1.5277378889158022
1.2892388495964997,3.1091290335770125,-0.021975054466257343,0.30696025821789247,-1.5360351564421784
1.2841991296254276,3.0401007653440075,-0.021848597456109505,0.2932855525038927,-1.5414734101412153
1.2791900168862442,2.9742084549419765,-0.021708904623746125,0.2796910596876755,-1.5438223649177563
1.2742148112546268,2.9114332241696737,-0.021553753042493528,0.2661805122454079,-1.5428367777835565
1.2692773416124608,2.851755268107393,-0.021380765585036973,0.25275823612225073,-1.538255265493749
1.2643820040296951,2.7951537106424347,-0.021187387308577093,0.23942922009478648,-1.5297991374010036
1.2595338058237602,2.7416064432826417,-0.020970857960421786,0.22619919172950384,-1.5171713024006
1.2547384164906517,2.6910899458428084,-0.020728179718782477,0.21307469905165408,-1.5000553403441155
1.250002226744968,2.6435790879178036,-0.020456078939335667,0.20006319594839703,-1.4781148743477692
1.245332417250259,2.599046910710122,-0.02015096014509068,0.1871731275966553,-1.4509934475079553
1.2407370391229677,2.557464389943295,-0.019808849657442056,0.17441400950619854,-1.4183152048918983
1.2362251090459082,2.5188001825415185,-0.019425324925683603,0.1617964896396847,-1.3796868221581895
1.2318067229826652,2.4830203628920167,-0.018995423450343052,0.14933237687773646,-1.3347013230820617
1.2274931942920142,2.450088159398298,-0.018513521685752335,0.13703461002417244,-1.2829447113958898
1.2232972249103675,2.419963709445465,-0.017973168589437104,0.12491712869609999,-1.2240067314967822
1.2192331228675846,2.392603861772841,-0.01736684917389205,0.1129945901962798,-1.1574975844155484
1.215317086806006,2.3679620705200435,-0.016685638318096156,0.10128185548020455,-1.0830730448271384
1.2115675901033434,2.3459884452422948,-0.015918680835490723,0.08979314693500544,-1.000471046183111
1.208005916347762,2.3266300443332923,-0.01505239529999806,0.07854077401285543,-0.9095631036290618
1.204656928440808,2.3098315187431844,-0.01406923867351696,0.06753336155329902,-0.810423161201442
1.2015502021488766,2.2955362105883985,-0.012945772560667911,0.056773665879614854,-0.7034130320516448
1.1987217338093272,2.283687748081899,-0.011649604304980072,0.04625644287254239,-0.5892750233689255
1.1962165723670517,2.274231981575241,-0.010134408236545846,0.03596761370708133,-0.46920598334507807
1.1940930357655275,2.2671186540909574,-0.008331127428881159,0.025887407895389236,-0.3448639585081794
1.1924301049943038,2.2623012390775834,-0.00612914014697786,0.01600315743830699,-0.21824039370091808
1.1913436064100797,2.2597306604701224,-0.0033186736288841746,0.006349700017864342,-0.09134027913572515
