x,y,v_x,v_y,omega
2.375,32.48,0.0,2.9743589743589745,-6.653061224489796
2.373832901552806,31.950352175534633,-0.012967760524381203,2.910616853033974,-6.276869997957903
2.370485191323283,31.431968057270595,-0.024229019803647875,2.849206683233112,-5.932188045833933
2.3652447659017044,30.924440896458798,-0.03399792932500291,2.7899839924534917,-5.615546675378449
2.3583636239635357,30.42738877524905,-0.042459203321319125,2.7328173543215195,-5.323934481429422
2.3500627572370005,29.940452405481675,-0.049772649195733897,2.6775867542048495,-5.0547277279252105
2.3405362966091294,29.463293197818327,-0.05607691333617087,2.624182219832357,-4.805632765238238
2.3299550408182874,28.995591558169995,-0.06149259545096324,2.572502665149102,-4.574638143856952
2.3184694706421585,28.53704537666144,-0.06612485095046816,2.5224549071681723,-4.359974592176447
2.306212332259067,28.087368680830643,-0.07006557552832948,2.473952824285119,-4.160081411729177
2.2933008582555967,27.646290429842047,-0.07339524673244707,2.4269166311437567,-3.973578139079746
2.2798386826347357,27.2135534305191,-0.07618448238823024,2.3812722502223305,-3.799240552679124
2.265917496448789,26.78891335921785,-0.07849536412228703,2.3369507642359792,-3.6359802817568565
2.2516184828168995,26.372137876150774,-0.08038256512093049,2.29388793650933,-3.4828274149146536
2.237013563691489,25.96300582086651,-0.0818943140502983,2.252023788871347,-3.3389156174032926
2.2221664855078265,25.56130647930143,-0.083073221323732,2.211302228518469,-3.203469354779785
2.2071337665518076,25.166838914222968,-0.08395698929870006,2.171670716797733,-3.0757928917680624
2.191965525330446,24.7794113520452,-0.08457902427198463,2.1330799740663338,-2.9552607924906313
2.176706206284334,24.398840619961362,-0.08496896512926193,2.0954837157541246,-2.8413096947129435
2.1613952167283266,24.024951628144763,-0.08515314104859344,2.058838415541406,-2.7334311685912844
2.1460674868559497,23.65757689244761,-0.08515496864448578,2.0231030922047424,-2.63116550138088
2.1307539629225145,23.29655609360043,-0.08499529728256777,1.9882391172084042,-2.5340962750045666
2.115482042273755,22.94173566940203,-0.08469270992587392,1.9542100405515765,-2.4418456243733933
2.1002759576640124,22.592968436805798,-0.0842637857379328,1.9209814327398977,-2.354070081734468
2.085157117272602,22.25011324116485,-0.08372332972218424,1.8885207410483966,-2.270456926770245
2.070144405947757,21.91303463020614,-0.08308457388720189,1.8567971584927898,-2.1907209742240785
2.0552544524590535,21.581602550569528,-0.08235935376506123,1.8257815041362833,-2.1146017409101745
2.040501866900375,21.255692064978962,-0.08155826355358986,1.7954461135366526,-2.041860942429405
2.02589945183899,20.935183088314638,-0.08069079268401713,1.765764738289152,-1.9722802770372363
2.011458390337726,20.61996014103117,-0.07976544621891747,1.736712453749353,-1.9056594601249033
1.9971884135745932,20.30991211852203,-0.07878985114922513,1.7082655741300536,-1.8418144778666934
1.9830979504375423,20.004932075166835,-0.07777085037356087,1.680401574260978,-1.7805760329076732
1.969194261172924,19.704917021919,-0.07671458589997684,1.6530990173815852,-1.7217881586431174
1.95548355690768,19.409767736397946,-0.07562657260273403,1.6263374884079538,-1.6653069817769608
1.9419711066413994,19.11938858454538,-0.07451176368927459,1.6000975321760966,-1.6109996155275592
1.9286613331101217,18.833687352989948,-0.07337460888047646,1.5743605962175773,-1.5587431681460928
1.9155578987549764,18.55257509134006,-0.07221910617669379,1.5491089776700988,-1.5084238533853258
1.9026637828817972,18.27596596369274,-0.07104884796974209,1.524325773966783,-1.4599361912535782
1.8899813509697463,18.00377710870717,-0.06986706216415664,1.4999948369839797,-1.4131822888520422
1.877512416975102,17.73592850764628,-0.06867664888744528,1.4761007303592906,-1.3680711923577076
1.8652638637801666,17.472346452705175,-0.06741838661183627,1.4525887689862573,-1.322346951260346
1.853240938211373,17.21295964279163,-0.06616967526364902,1.4294868967198013,-1.278538105403804
1.8414418023875938,16.957695490939827,-0.0649318338894538,1.406781457189162,-1.236542994143079
1.8298643974377473,16.706483816372433,-0.0637059988866185,1.3844593713373983,-1.1962663714892425
1.8185064746290913,16.45925674337736,-0.062493143431780265,1.3625081063856477,-1.1576189363198632
1.8073656231814095,16.2159486055911,-0.06129409487579843,1.340915646794978,-1.1205169016249834
1.796439295113261,15.976495855342819,-0.06010955032584974,1.3196704670748436,-1.0848815991657648
1.7857248274290265,15.740836977739058,-0.05894009061008944,1.2987615063002946,-1.0506391162938757
1.7752194619222874,15.508912409192956,-0.05778619279812188,1.278178144211933,-1.0177199620091433
1.7649203628416656,15.280664460123386,-0.05664824143100976,1.257910178783287,-0.9860587596259794
1.7548246326391124,15.056037241569395,-0.055526538597361605,1.2379478051499353,-0.955593963679991
1.7449293259974303,14.834976595483589,-0.0544213129768802,1.2182815958034534,-0.926267598938795
1.7352314623131675,14.617430028484772,-0.05333272795937468,1.1989024819611633,-0.898025019588724
1.7257280367926362,14.403346648865579,-0.0522608889354166,1.1798017360298647,-0.8708146868547113
1.7164160303024563,14.192677106664949,-0.05120584984436282,1.1609709550882477,-0.8445879634767316
1.7072924181014046,13.98537353662833,-0.05016761905620944,1.142402045318624,-0.819298923614978
1.6983541775673476,13.781389503890491,-0.04914616465553551,1.1240872073240287,-0.7949041768894067
1.689598295021383,13.58067995222688,-0.04814141918851702,1.1060189222716643,-0.7713627053791176
1.6810217717409386,13.383201154729694,-0.04715328392752946,1.0881899388081762,-0.7486357125147486
1.6726216292442708,13.188910666774287,-0.0461816327021146,1.0705932606963415,-0.7266864828939881
1.664394913920482,12.997767281150228,-0.04522631533998019,1.0532221351265354,-0.7054802521376099
1.65633870107174,12.809730985239462,-0.044287160757154824,1.0360700416597675,-0.6849840859821589
1.6484500984276829,12.62476292013148,-0.043363979732370335,1.0191306817622499,-0.665166767876465
1.6407262491860275,12.442825341572387,-0.04245656739713323,1.0023979688943496,-0.6459986944133563
1.6331643346280103,12.263881582651145,-0.0415647054697247,0.98586601911944,-0.6274517779859901
1.6257691029354664,12.088126608667949,-0.040604535558539094,0.9669670251382761,-0.6605116004660616
1.6185420484895179,11.915764043994788,-0.039696069396444246,0.9481725823413022,-0.6948365360879192
1.6114740229159112,11.746775303287691,-0.038837548088074166,0.9294800921819805,-0.7303186776701291
1.6045561949260017,11.581142259356593,-0.03802720735536719,0.9108870626079905,-0.7668516757315942
1.5977800510704716,11.418847224231104,-0.037263279928298386,0.8923911054530078,-0.8043304992707587
1.5911373960902204,11.259872930660844,-0.03654399763005092,0.87398993421654,-0.8426511980133294
1.5846203529178289,11.104202513980397,-0.03586759317429983,0.8556813622328766,-0.8817106650722685
1.5782213623800558,10.951819494268438,-0.035232301689843,0.837463301233335,-0.9214063989422802
1.5719331826492822,10.8027077587296,-0.034636361985420965,0.8193337603092994,-0.9616362637208531
1.5657488884897266,10.656851544225923,-0.03407801756519655,0.801290845287097,-1.0022982464086847
1.5596618703425893,10.514235419882421,-0.03355551740299546,0.783332758529599,-1.0432902100934804
1.5536658332930284,10.374844269688232,-0.033067116481013244,0.7654577991836186,-1.0845096417620586
1.5477547959610751,10.238663275010996,-0.03261107609624875,0.7476643638967859,-1.1258533934157122
1.5419230893582265,10.105677896937344,-0.032185663935400774,0.7299509480326793,-1.167217415082085
1.5361653557515704,9.975873858346723,-0.03178915391633367,0.7123161474186694,-1.2084964782225753
1.53047654757787,9.849237125618988,-0.03141982579144743,0.6947586606672963,-1.2495838879265657
1.5248519264511589,9.725753889868209,-0.031075964505343102,0.6772772921191559,-1.2903711821616726
1.5192870623090364,9.605410547585784,-0.03075585929601669,0.6598709554633493,-1.3307478162117714
1.513777832745109,9.488193680565018,-0.030457802525401267,0.6425386781007051,-1.3706008302809571
1.5083204225779003,9.37409003496667,-0.030180088221360833,0.6252796063253768,-1.4098144980711336
1.502911323710153,9.263086499370285,-0.029921010309166732,0.6080930114122444,-1.4482699539532027
1.497547335336788,9.155170081639191,-0.029678860505998887,0.5909782967110181,-1.4858447961469288
1.4922255645650142,9.050327884407505,-0.029451925847041746,0.5739350058632964,-1.5224126631032975
1.4869434275162217,8.94854707897494,-0.02923848580621144,0.5569628322763243,-1.5578427800475498
1.4816986509865093,8.849814877369429,-0.029036808968367394,0.5400616300071185,-1.591999472394661
1.476489274751093,8.754118502307794,-0.02884514920292532,0.5232314262332576,-1.6247416424979282
1.4713136546075418,8.661445154750695,-0.028661741280977572,0.5064724355122726,-1.6559222059451315
1.466170466264026,8.571781978709147,-0.02848479586919629,0.4897850760604761,-1.6853874833901057
1.4610587101916594,8.485116022915406,-0.028312493823767375,0.4731699883144372,-1.7129765437224247
1.455977717574866,8.401434198920427,-0.02814297969615885,0.4566280560742072,-1.7385204942665453
1.4509271575107672,8.320723235122749,-0.027974354349383068,0.4401604305666783,-1.7618417137111937
1.445907045628185,8.242969626168886,-0.027804666568197044,0.42376855780957434,-1.7827530236680509
1.4409177543194467,8.16815957709299,-0.027631903528895364,0.40745420970039437,-1.8010567952439078
1.4359600248042508,8.096278941483128,-0.027453979973282493,0.391219519298058,-1.8165439879231382
1.43103498127511,8.027313152873901,-0.027268725906058704,0.3750670208044592,-1.8289931195994187
1.4261441474092287,7.9612471484710525,-0.027073872603736084,0.3589996947827674,-1.838169169056385
1.4212894655733235,7.898065284216223,-0.026867036684098705,0.34302101915978683,-1.8438224159910621
1.4164733190976273,7.8377512401035645,-0.02664570193474637,0.3271350265364072,-1.8456872293963857
1.4116985580556052,7.780287914572732,-0.02640719853216689,0.31134636825060996,-1.843480823624166
1.4069685290605343,7.725657306738132,-0.026148679190843207,0.2956603854671841,-1.8369020139648786
1.4022871096846694,7.673840385193138,-0.025867091652099734,0.2800831872549784,-1.8256300218701884
1.397658748229925,7.624816942183216,-0.025559146733951266,0.26462173507747483,-1.8093234065431427
1.3930885097444206,7.578565432123916,-0.025221280882763014,0.24928393224809342,-1.7876192381644107
1.3885821294082676,7.535062793825343,-0.02484961174115907,0.23407871551383588,-1.760132683699414
1.3841460747387406,7.494284256489333,-0.024439884586918037,0.2190161437751743,-1.7264572563854677
1.3797876185442977,7.4562031307400325,-0.02398740646244792,0.20410747566148504,-1.6861660948747277
1.375514925277146,7.420790587882866,-0.02348696317257286,0.1893652227514699,-1.6388148015352393
1.3713371545382491,7.38801543361674,-0.022932711704056676,0.17480315798326823,-1.5839465996750655
1.3672645872083447,7.3578438870398735,-0.02231803640599299,0.16043624842634352,-1.5211008879433918
1.3633087823874734,7.330239382624704,-0.021635350492576828,0.14628046729774813,-1.4498266975724026
1.3594827776233867,7.305162422620665,-0.020875813552832172,0.13235242163603375,-1.3697031017853007
1.3558013517472047,7.282570520690559,-0.02002891840474365,0.1186687109207112,-1.280369249400326
1.3522813804978706,7.262418294422549,-0.019081873254523558,0.10524491427938285,-1.1815672454929635
1.3489423322819123,7.244657782576507,-0.018018662478347536,0.09209410623219555,-1.0732011781708868
1.3458069783512534,7.229239075594911,-0.016818603417862975,0.07922486022998185,-0.9554142997923734
1.3429024339479834,7.216111338255907,-0.015454112174025984,0.06663888798118982,-0.8286820331426044
1.3402617152988519,7.205224237183131,-0.013887206149658684,0.05432890171632913,-0.693908585490519
1.3379261202975188,7.196529603062789,-0.012063849420709642,0.04227814406523464,-0.5524974287596074
1.3359490178559905,7.189982760029633,-0.009903955485159117,0.03046455630315666,-0.40634317587721136
1.3344024754882882,7.1855421266272685,-0.00727984860042297,0.018875814834215875,-0.25767734061451486
1.3333917724242266,7.1831633120994205,-0.003950185444704858,0.007555457697417053,-0.10871543385479615
