x,y,v_x,v_y,omega
2.375,32.48,0.0,2.5128205128205128,-4.816326530612245
2.3741250227484856,31.982614712751964,-0.00874977251514405,2.461032359659819,-4.558164985748381
2.3716104281503587,31.495411470097217,-0.016396173466126637,2.411000066887632,-4.3202972192768225
2.3676637465326134,31.018049122602434,-0.023070642711324245,2.362623408060219,-4.100618677054528
2.3624679274637206,30.550205750144386,-0.028887547977604344,2.3158103165202517,-3.8972860783217147
2.3561845073520105,30.09157712113534,-0.03394665313949534,2.2704759735701936,-3.7086800746792887
2.348956323234943,29.641875320855206,-0.03833518803118039,2.2265420292311804,-3.533373942003257
2.3409098452650867,29.200827524730293,-0.042129591667380756,2.1839359320179197,-3.3701072148957536
2.332157187471046,28.768174896627976,-0.04539698627303078,2.1425903490052467,-3.2177633921430444
2.3227978460147956,28.343671595607496,-0.04819642828947348,2.10244266119955,-3.0753510120553558
2.312920205812476,27.927083877274235,-0.05057997373372137,2.0634345221330967,-2.9419875302553318
2.3026028496039626,27.518189278073606,-0.05259358835141375,2.025511469873192,-2.8168855381187505
2.2919156980196695,27.11677587264323,-0.05427792749151549,1.9886225844305334,-2.69934094409245
2.2809210046485493,26.722641595802827,-0.05566900621968585,1.9527201839735318,-2.5887228073540722
2.2696742263630383,26.335593621966314,-0.05679877663542309,1.9177595543915706,-2.484464567396092
2.2582247860513296,25.95544779576081,-0.057695626481663195,1.8836987076634457,-2.3860564569059948
2.2466167423238,25.58202810847188,-0.058384810793631205,1.850498165225876,-2.293038920923543
2.234889378602671,25.215166215635502,-0.05888882641766453,1.8181207631379237,-2.2049968943484513
2.2230777221953186,24.854700991688816,-0.05922773765585503,1.7865314763289113,-2.1215548137445266
2.2112130024304912,24.500478118093717,-0.05941945999242065,1.7556972596220872,-2.0423722590569184
2.199323055653203,24.1523497017754,-0.059480007780462314,1.7255869035610754,-1.967140137130463
2.187432683787984,23.810173921084832,-0.05942371087172983,1.6961709033445915,-1.895577332426286
2.1755639722583973,23.473814696809608,-0.05926340442413318,1.6674213394076642,-1.8274277615889127
2.1637365722664383,23.14314138603053,-0.05901059549545763,1.639311768383111,-1.7624577779243988
2.1519679517663244,22.818028496858016,-0.058675609505682645,1.611817123342028,-1.7004538797392699
2.140273618895042,22.49835542228862,-0.05826771920713953,1.5849136223519447,-1.641220683125563
2.1286673211315903,22.184006191602382,-0.05779525842737944,1.5585786845104168,-1.5845791253742585
2.1171612230355974,21.87486923787997,-0.05726572253254961,1.53279085271368,-1.530364869933435
2.105766065053357,21.570837180357863,-0.05668585728985427,1.5075297225074367,-1.4784268878421858
2.0944913055665175,21.271806620462897,-0.05606173757854031,1.4827758764422019,-1.4286261939846367
2.0833565791135182,20.977681439435344,-0.05528552695145054,1.458475933833345,-1.3773810437250054
2.0723789045593306,20.6883689352319,-0.05449121859042708,1.4346491082010753,-1.328475625517835
2.0615615520864568,20.4037761766253,-0.053682306138312756,1.4112784778649474,-1.2817753935396303
2.0509071311890303,20.123813538879887,-0.05286190283594931,1.3883478995891472,-1.2371550058365965
2.0404176628174877,19.848394552597895,-0.052032780879480524,1.3658419632307863,-1.1944975944665157
2.030094644073288,19.57743576131842,-0.05119740656251497,1.3437459495639763,-1.1536941012789124
2.0199391062489322,19.310856587260236,-0.05035797168104,1.3220457910178554,-1.1146426727416008
2.0099516669187043,19.04857920464928,-0.049516421621240946,1.3007280350916979,-1.0772481079521665
2.0001325767065716,18.790528420116864,-0.048674480500085604,1.279779810232477,-1.0414213546148996
1.9904817612880972,18.536631559695607,-0.04783367368465903,1.2591887939801125,-1.007079048328813
1.9809988591218408,18.286818361977254,-0.04699534797790569,1.2389431832033986,-0.9741430910306258
1.9716832553515595,18.041020877030363,-0.04616068972490696,1.2190316662655325,-0.9425402648765498
1.9625341122726234,17.799173370706562,-0.04533074106445265,1.1994433969724478,-0.9122018782357846
1.9535503967136876,17.561212233992315,-0.04450641452490645,1.180167970170012,-0.8830634408131903
1.9447309046471224,17.327075897088545,-0.04368850614074483,1.161195398867716,-0.8550643652241833
1.936074283308422,17.09670474792408,-0.042877707246260666,1.1425160927769173,-0.8281476926162714
1.9275790510752542,16.870041054830274,-0.04207461508541584,1.1241208381611292,-0.8022598401729696
1.9192436153305727,16.647028893123725,-0.04127974236139866,1.1060007789043667,-0.7773503685507085
1.9110662885108498,16.42761407536216,-0.040493525835830456,1.088147398711287,-0.7533717674909239
1.9030453025197125,16.211744085055045,-0.03971633407554334,1.0705525043598623,-0.7302792580205216
1.895178821668736,15.999368013625691,-0.03894847443422222,1.0532082099336815,-0.7080306098067486
1.887464954290634,15.790436500435646,-0.03819019934679617,1.0361069219667602,-0.686585972369259
1.8799017631553414,15.584901675695072,-0.03744171200613004,1.019241325439,-0.6659077189746758
1.872487274806311,15.382717106094649,-0.036703171484175456,1.002604370565232,-0.6459603021488207
1.8652194879225754,15.183837743005611,-0.035974697353179465,0.9861892603251623,-0.626710119840437
1.8581022228154704,14.988406407231736,-0.03519795371787024,0.9681240974135986,-0.6452371149252595
1.8511364728051865,14.796576649263862,-0.03445954638496848,0.9501734822651465,-0.6655758858885831
1.844314641001716,14.608325871917422,-0.03375877164973696,0.9323342911992663,-0.6876101239332467
1.8376292780938308,14.423632090154527,-0.03309485742911584,0.914603526429676,-0.711226257508756
1.8310730953573437,14.24247390637214,-0.03246696993575404,0.8969783113941898,-0.7363131971902477
1.8246389763857715,14.064830486581322,-0.031874219779967704,0.8794558865140109,-0.7627620867989984
1.8183199876538456,13.890681537392954,-0.03131566753929401,0.8620336053696824,-0.790466059730286
1.8121093880167436,13.720007283727618,-0.030790328831723786,0.8447089312836906,-0.8193199994680659
1.8060006372410404,13.552788447168997,-0.03029717892530832,0.8274794343025194,-0.8492203032721775
1.799987403657148,13.389006224881363,-0.02983515691361831,0.8103427885738141,-0.880064648022578
1.7940635710174402,13.228642269012258,-0.029403169483459397,0.7932967701172459,-0.9117517571962376
1.7882232446392647,13.071678666501462,-0.029000094298293828,0.7763392549907229,-0.9441811679356029
1.7824607569076398,12.91809791921671,-0.028624783017956373,0.7594682178568154,-0.9772529971426235
1.7767706722085983,12.767882924335261,-0.028276063972459273,0.7426817309576795,-1.0108677054988493
1.7711477913608593,12.62101695488845,-0.027952744504930193,0.7259779635104444,-1.0449258582695744
1.765587155610767,12.477483640383504,-0.027653612995992775,0.709355181539016,-1.0793278816978722
1.7600840502532524,12.33726694741334,-0.027377440579154002,0.6928117481626154,-1.1139738137320072
1.7546340079399392,12.200351160160462,-0.027122982553977895,0.6763461243661804,-1.1487630477564248
1.7492328117344444,12.066720860695536,-0.026888979500970682,0.6599568702830959,-1.1835940679115322
1.7438764979744328,11.93636090896456,-0.026674158099146035,0.6436426470266783,-1.218364174489994
1.7385613590001037,11.80925642235054,-0.026477231644145366,0.6274022191135195,-1.2529691977864181
1.733283945809537,11.685392754686255,-0.026296900261519245,0.6112344575293286,-1.2873031986522938
1.7280410707027563,11.56475547458368,-0.026131850806289873,0.5951383434964148,-1.3212581538680932
1.7228298099785109,11.44733034293288,-0.02598075643616475,0.5791129730116036,-1.3547236242889797
1.7176475067507235,11.333103289408285,-0.02584227584170688,0.5631575622343348,-1.3875864035492393
1.71249177395532,11.222060387803136,-0.025715052112328787,0.5472714538171559,-1.419730144923511
1.7073604976228771,11.114187829992918,-0.025597711212101568,0.5314541242850128,-1.451034963740964
1.7022518404982687,11.00947189830583,-0.025488860033981285,0.5157051925858906,-1.4813770125336496
1.6971642460953638,10.907898936051868,-0.025387083995068768,0.5000244299537293,-1.5106280258757956
1.6920964432829733,10.809455315931956,-0.025290944128835823,0.48441177124538737,-1.538654831642574
1.687047451507814,10.714127406013716,-0.025198973622755628,0.4688673279370256,-1.5653188251938792
1.6820165867714056,10.621901532920827,-0.025109673741328515,0.4533914029918544,-1.5904754027846877
1.67700346849078,10.532763941837551,-0.025021509064928508,0.4379845078409118,-1.6139733503391887
1.672008027387887,10.446700752878314,-0.024932901964000415,0.42264738175146405,-1.6356541836312257
1.6670305145699227,10.36369791331381,-0.024842226215644497,0.40738101389357434,-1.655351435932637
1.66207151198284,10.283741145079066,-0.024747799655183086,0.39218666845386607,-1.6728898893872666
1.6571319444434782,10.206815886915138,-0.024647875738434955,0.37706591318541216,-1.6880847468330837
1.652213093482588,10.132907230414393,-0.024540633870465154,0.3620206518220485,-1.700740741659028
1.6473166132622836,10.061999849150101,-0.02442416833258167,0.3470531608208677,-1.7106511847346682
1.6424445488680328,9.994077919975744,-0.024296475609924876,0.3321661309227187,-1.7175969497584453
1.6375993573185343,9.92912503548062,-0.024155439885059367,0.3173627140285078,-1.7213454019194263
1.6327839316884925,9.867124106491232,-0.023998816415358098,0.30264657586536037,-1.7216492801103869
1.6280016288020809,9.808057253420667,-0.023824212448759565,0.28802195484029774,-1.7182455508590875
1.6232563010326049,9.75190568520484,-0.023629065245999583,0.2734937273179954,-1.7108542637975612
1.6185523328424525,9.698649564546546,-0.02341061665552562,0.25906747926492474,-1.6991774555003347
1.6138946828258367,9.648267858249874,-0.02316588351063053,0.2447495837018177,-1.6828981732377148
1.6092889321891923,9.60073817162058,-0.022891622855812397,0.23054728259111454,-1.6616797259700755
1.6047413408425302,9.55603656631197,-0.022584290610810607,0.21646877049500196,-1.6351653215451747
1.6002589126149616,9.514137361728658,-0.02223999166487502,0.20252327533812095,-1.6029783233268287
1.595849471605629,9.475012921338742,-0.021854418428449186,0.18872112856102596,-1.5647234658124707
1.5915217524288212,9.438633427243708,-0.0214227733396293,0.17507381238930256,-1.5199895199844857
1.587285508256926,9.404966649479498,-0.020939668379324445,0.16159396525279235,-1.4683541117475774
1.5831516423462508,9.373977721271128,-0.020398990727425265,0.14829531683090788,-1.4093916903994927
1.5791323715347287,9.345628938481234,-0.01979371738779769,0.13519251106803595,-1.3426860372535947
1.5752414346465633,9.319879611514757,-0.01911565149385572,0.12230075859673653,-1.267849203113534
1.5714943658101805,9.296686011574533,-0.018355036869971926,0.10963524080552073,-1.1845493313657636
1.5679088639292686,9.276001470286634,-0.017499981939146106,0.09721017207345542,-1.092550319290073
1.5645053073051693,9.257776710095584,-0.01653558430184749,0.08503742983704168,-0.991766319087683
1.5613074903135282,9.241960495259228,-0.015442585614563058,0.07312471852651498,-0.8823328570935877
1.5583437029471368,9.228500682413461,-0.014195288049353593,0.06147340993115246,-0.76469231049289
1.5556483453910812,9.217345680347325,-0.012758287511201245,0.0500766107302187,-0.6396823443664863
1.5532643991446555,9.20844613894418,-0.011081174953054919,0.0389188033012503,-0.5085998178628415
1.5512473698599925,9.201756275807156,-0.009089117893576219,0.02797982806896505,-0.373191942099368
1.5496722163319716,9.197233386190046,-0.006662417386632943,0.017249068102131476,-0.23551296419392695
1.5486486589328499,9.194831554196767,-0.003573156604584602,0.006769251830655255,-0.0975989992676615
