x,y,v_x,v_y,omega
2.375,32.48,0.0,3.5384615384615383,-5.3061224489795915
2.3734191055435723,31.74703989707966,-0.015056137680261969,3.4421108703035843,-4.9026404782484905
2.3689507838947463,31.033813948603537,-0.027499306594274398,3.3505172104213674,-4.545600035423786
2.362097788538196,30.33936225994885,-0.03776731584906298,3.263308395813778,-4.228144299498234
2.353279274295384,29.662798829749605,-0.04621853408247679,3.1801528441790086,-3.9446071616498646
2.3428458173229205,29.003303649679648,-0.05314772279812843,3.1007536326777507,-3.6902786022937293
2.3310914740240936,28.360115930940246,-0.058798403857368266,3.024843688649863,-3.461221564704594
2.3182635193842223,27.73252825079797,-0.0633725927128344,2.952181836514683,-3.254127873741409
2.30457035353191,27.11988145904202,-0.06703851064252113,2.882549513541999,-3.066204040194584
2.2901879528955518,26.521560218526094,-0.06993673351326918,2.8157480151810788,-2.8950801371178483
2.2752651580737493,25.93698907962666,-0.07218512193246741,2.751596164813544,-2.7387366282190357
2.2599280267849697,25.365629007934487,-0.07388279510352838,2.689928327492867,-2.5954452657543947
2.2442834315958877,24.80697429948792,-0.07511334955439555,2.6305927053316007,-2.463721089023429
2.2284220446856167,24.260549829535957,-0.07594747816247355,2.573449865639444,-2.3422832357359806
2.2124208228896842,23.725908590025938,-0.07644511037021555,2.5183714630274205,-2.2300227908746444
2.196345083638438,23.202629478346722,-0.0766571682130823,2.465239124393649,-2.125976286180264
2.1802502446483407,22.690315305763434,-0.07662701264498711,2.413943471637674,-2.0293037601946677
2.164183286214162,22.188590998776704,-0.07639163910909466,2.364383261569274,-1.9392705171259084
2.1481839838375834,21.697101970570223,-0.07598266923927455,2.316464626111496,-1.855231899595255
2.1322859500707816,21.2155126429562,-0.07542717615883834,2.270100398784002,-1.7766205280466845
2.1165175173618986,20.743505101928434,-0.07474837344956893,2.2252095157661,-1.7029355674968865
2.1009024879864406,20.280777872193617,-0.07396619203098331,2.1817164817083654,-1.6337336672910334
2.085460772543742,19.827044797955864,-0.0730977645661468,2.139550891984506,-1.5686212868128306
2.070208934764746,19.382034018843434,-0.07215783332905451,2.0986470043243735,-1.5072481736226442
2.0551606573400534,18.945487031240283,-0.07115909452516152,2.0589433538008413,-1.4493018032743092
2.0403271409970722,18.517157826461112,-0.07011248969370616,2.020382406000801,-1.3945026243983696
2.0257174470230255,18.096812098218656,-0.0690274529162632,1.9829102439273425,-1.3425999803180315
2.011338791760159,17.68422651270411,-0.06791212101579669,1.9464762847826134,-1.293368600865196
1.9971968002220606,17.27918803535652,-0.06677351268037943,1.9110330232896684,-1.2466055762639345
1.9832957248407173,16.881493309053553,-0.06561768142765313,1.8765357986433513,-1.2021277397905707
1.969638634408915,16.490948079028442,-0.06444984649427261,1.842942582548193,-1.159769398066072
1.9562275774964715,16.10736666031869,-0.06327450505280836,1.8102137861161194,-1.1193803578115418
1.9430637239631237,15.730571443991447,-0.06209552859812295,1.7783120836671427,-1.080824206116677
1.9301474876425886,15.360392438776927,-0.06091624588316464,1.7472022517092511,-1.0439768080650673
1.917478632812636,14.996666845082057,-0.059739514402097176,1.7168510215752215,-1.0087249911937108
1.9050563666797076,14.639238658657927,-0.05856778210198522,1.6872269443688814,-0.9749653909494195
1.8928794197811918,14.287958301461526,-0.057403140741021416,1.6583002670254143,-0.9426034352128475
1.8809461159337315,13.942682277489446,-0.05624737209193354,1.630042818422956,-0.9115524492298702
1.8692544331234504,13.603272851572164,-0.055101988005981706,1.6024279045987615,-0.8817328650319748
1.8578020565368711,13.269597749305674,-0.05396826519953596,1.5754302122249513,-0.8530715217333075
1.8465864247637906,12.941529876465289,-0.05284727549646646,1.5490257195882586,-0.8255010450363989
1.8356047700607778,12.618947056396841,-0.051739912151276976,1.523191614396953,-0.7989592959221882
1.8248541534422986,12.30173178401536,-0.05064691278661926,1.4979062178076332,-0.7733888798927188
1.8143462557983436,11.989772786821096,-0.049428302870094455,1.4731318507091622,-0.7447148609933764
1.8040912854853826,11.682962895535624,-0.04823808106286882,1.4488671139143758,-0.7174002803058867
1.794083305491791,11.381197058627308,-0.04707601411419331,1.4250932375934042,-0.6913641831921515
1.7843164355484467,11.084374072796717,-0.045941794870039514,1.4017923417455624,-0.6665313516989742
1.7747848663374186,10.792396401664774,-0.04483505475879699,1.378947383320553,-0.6428318337294558
1.7654828712551,10.505170005172811,-0.04375537459661894,1.3565421070791128,-0.620200515993831
1.7564048160594563,10.222604178941463,-0.042702293933321506,1.3345609998860952,-0.5985767362016804
1.7475451666878157,9.944611402896872,-0.041675319129923435,1.3129892481576448,-0.5779039304752364
1.7388984954941775,9.67110719852829,-0.04067393033329544,1.2918126982097908,-0.5581293124168947
1.73045948612259,9.402009994191989,-0.03969758749135033,1.2710178192787984,-0.5392035806617369
1.7222229372050095,9.137240997922266,-0.03874573553322262,1.2505916690042833,-0.5210806520952294
1.7141837650476572,8.876724077252426,-0.037817808822514565,1.2305218611846762,-0.503717418223659
1.7063370054486504,8.620385645586744,-0.03691323497754948,1.2107965356313535,-0.4870735224557304
1.6986778147712709,8.368154554699355,-0.03603143814035303,1.1914043299628363,-0.4711111562927838
1.6912014703811553,8.11996199296788,-0.035171841765507,1.172334353194077,-0.45579487263633933
1.6839033705417372,7.875741388978746,-0.03433387099085791,1.15357616098816,-0.4410914146086206
1.6767790338500648,7.635428320167858,-0.03351695464411613,1.1351197324488782,-0.4269695584473863
1.669824098284522,7.398960426184736,-0.03272052693248294,1.116955448342746,-0.41339996918341565
1.6630343199266842,7.166277326690693,-0.031944028856448405,1.099074070648154,-0.40035506793962583
1.6564055714114696,6.93732054332218,-0.031186909383689187,1.0814667233376878,-0.38780890980702376
1.6499338401526644,6.712033425569469,-0.03044862641445663,1.064124874307185,-0.37573707135622514
1.643615226384728,6.4903610803381575,-0.029728647565891053,1.0470403183719872,-0.3641165469356156
1.637445941056388,6.272250304977103,-0.029026450799249984,1.0302051612570988,-0.3529256529896862
1.6314223036068087,6.057649523571172,-0.028341524911029172,1.0136118045136813,-0.34214393970479395
1.6255407396509862,5.846508726310784,-0.027673369906327426,0.9972529312995247,-0.3317521093555821
1.6198033421836155,5.638914686744521,-0.02696851073529898,0.9798331598077608,-0.3475511855849472
1.6142100980089016,5.434966603211535,-0.026300481404834382,0.9625295405063893,-0.36532405761344455
1.6087533159735312,5.234640425554058,-0.02566887131297873,0.9453388181362335,-0.38495725620484317
1.6034253999438834,5.037912773798208,-0.02507318611223689,0.9282578652528293,-0.40634047719609395
1.598218865561357,4.84476091188203,-0.02451285562611022,0.9112836768060062,-0.42936633411118086
1.5931263554037387,4.655162722477414,-0.02398724111311327,0.8944133651427224,-0.4539301189766279
1.588140652684662,4.469096682818915,-0.023495641925710433,0.8776441554144103,-0.47992957037255285
1.5832546936136604,4.28654184145628,-0.023037301607638703,0.8609733813725949,-0.5072646477824262
1.5784615785305744,4.1074777958505635,-0.0226114134693708,0.8443984815389812,-0.5358373113274925
1.573754581920101,3.931884670736416,-0.022217125677993207,0.8279169957386022,-0.5655513059882241
1.5691271614049893,3.759743097175228,-0.021853545894499993,0.8115265619870042,-0.5963119494252356
1.5645729658097838,3.591034192225486,-0.021519745488409386,0.7952249137248375,-0.6280259225157404
1.5600858423810504,3.425739539157835,-0.021214763356671593,0.7790098773956544,-0.6606010617187805
1.5556598432446418,3.2638411681429425,-0.020937609371029384,0.7628793703652234,-0.6939461523729114
1.5512892311757778,3.1053215373403518,-0.020687267475294046,0.7468313991832666,-0.7279707220135405
1.5469684847534766,2.9501635143160243,-0.020462698451385375,0.7308640581912749,-0.7625848327733687
1.5426923029671857,2.798350357715229,-0.020262842370432046,0.7149755284829656,-0.7976988718979579
1.5384556093403052,2.6498656991156757,-0.020086620742714563,0.6991640772270831,-0.8332233393688818
1.5342535556326584,2.504693524983441,-0.019932938377732464,0.6834280573656417,-0.8690686315786257
1.5300815251818642,2.362818158651084,-0.01980068496316557,0.6677659077044317,-0.9051448199437302
1.5259351359419921,2.2242242422333653,-0.019688736368949085,0.6521761534167094,-0.9413614232749035
1.5218102432768457,2.0888967183911262,-0.019595955680065984,0.636657406985556,-0.977627172644096
1.5177029425647492,1.9568208118480186,-0.01952119395894709,0.6212083696154759,-1.0138497673979532
1.5136095716718294,1.8279820105576938,-0.019463290735526516,0.6058278331495354,-1.0499356208636366
1.5095267133515,1.702366046410841,-0.01942107421999183,0.5905146825347941,-1.0857895941756928
1.5054511976292453,1.5799588753616476,-0.019393361230054782,0.5752678988861061,-1.1213147165203803
1.5013801042338732,1.4607466568419056,-0.019378956821105794,0.5600865632066805,-1.156411889945583
1.4973107651392525,1.3447157323177095,-0.019376653603855078,0.5449698608332796,-1.190979576719185
1.493240767284203,1.2318526028283152,-0.019385230729950152,0.5299170866847572,-1.2249134670357689
1.489167955542797,1.1221439053288869,-0.019403452521532524,0.5149276514050297,-1.258106124670316
1.4850904360228894,1.015576387638255,-0.019430066715685503,0.5000010885057535,-1.2904466079583539
1.4810065797773815,0.9121368817689763,-0.019463802289151424,0.4851370626302208,-1.3218200632457593
1.4769150270206612,0.8118122753895527,-0.01950336682246917,0.4703353790785703,-1.3521072877005649
1.4728146919519538,0.714589481136958,-0.019547443355697035,0.4555959947556525,-1.38118425811804
1.4687047682982035,0.6204554034612677,-0.019594686680019503,0.44091903072710287,-1.4089216220864065
1.4645847357017336,0.5293969026422687,-0.019643719000644874,0.42630478659668786,-1.435184147625505
1.4604543670925534,0.4414007555699655,-0.01969312489631068,0.4117537569490547,-1.459830127182541
1.4563137372020734,0.3564536128259448,-0.019741445489212875,0.39726665013683454,-1.4827107316947055
1.4521632323944766,0.2745419515399661,-0.019787171725996516,0.382844409729622,-1.5036693103480379
1.448003562014446,0.19565202342499788,-0.019828736655246138,0.36848823898439176,-1.5225406317341037
1.4438357714758754,0.11976979731376503,-0.019864506569236027,0.3541996287416185,-1.5391500624165513
1.4396612573461294,0.04688089543019913,-0.019892770856916882,0.33998038919713136,-1.553312679592741
1.4354817847151677,-0.023029477470082327,-0.019911730390337803,0.3258326860436508,-1.5648323157515667
1.431299507179335,-0.08997661306354132,-0.019919484236638342,0.3117590815131123,-1.5735005352479816
1.4271169898171896,-0.15397638761410803,-0.019914014450462442,0.297762580873238,-1.5790955459147706
1.4229372355912004,-0.2150453605230851,-0.019893168654194965,0.28384668492653226,-1.5813810537587485
1.4187637156771324,-0.2732008845860818,-0.01985464005121606,0.2700154490067997,-1.5801050762328228
1.4146004043062717,-0.3284612293595828,-0.019795944433172,0.2562735488360828,-1.574998740684421
1.4104518188102146,-0.38084571908864007,-0.019714393624513386,0.24262635334542154,-1.5657751110194016
1.4063230656926922,-0.4303748866206689,-0.019607064637605635,0.22908000410246013,-1.552128109804686
1.4022198937320227,-0.47707064457412685,-0.019470763559247144,0.21564150021620365,-1.533731638463776
1.3981487553637981,-0.5209564746621922,-0.019301982804796912,0.2023187863367873,-1.5102390499536558
1.3941168779426423,-0.5620576353632529,-0.019096849777639206,0.18912083938763222,-1.4812832036007133
1.3901323469934161,-0.6004013868916047,-0.018851064024514096,0.17605774659669862,-1.4464774408831653
1.3862042043327376,-0.6360172303697169,-0.01855981845813808,0.16314076271868502,-1.4054179780849783
1.3823425651300054,-0.668937154828356,-0.01821769775836135,0.15038232736357077,-1.3576884357869516
1.378558759844787,-0.6991958805873679,-0.017818543053240696,0.13779601319847196,-1.3028675392954217
1.3748655099544775,-0.7268310799378597,-0.01735526542589837,0.12539636156811898,-1.240541452197251
1.3712771511760526,-0.7518835449527401,-0.01681958008290951,0.11319854333552531,-1.1703227597366275
1.367809925628762,-0.774397256882807,-0.016201615605574086,0.10121776076036806,-1.0918787692021665
1.3644823769026388,-0.7944192918971424,-0.015489324643217148,0.0894682869952062,-1.0049723950399176
1.361315902156697,-0.8119994762541936,-0.014667577699085926,0.07796204021483678,-0.9095190354735792
1.3583355476622818,-0.8271896886087191,-0.013716750819153169,0.06670664887584994,-0.8056615811136328
1.3555711860437345,-0.8400427187745052,-0.012610502690821012,0.05570316222690174,-0.6938611995050038
1.3530592995767845,-0.8506106740836898,-0.01131222556584481,0.0449440311938971,-0.5749910459827579
1.3508457544979584,-0.858943154227866,-0.009769156137260353,0.03441292256015367,-0.45040127770432403
1.3489903314548843,-0.8650859245814644,-0.007901539511064544,0.024089652236020116,-0.32189970166119597
1.3475750151629797,-0.8690819340172382,-0.005577663268980423,0.013967580485650319,-0.19157800998689992
1.3467239850984023,-0.8709802568001521,-0.0025273849650902574,0.004111684113532969,-0.061436542880994455
