x,y,v_x,v_y,omega
2.375,32.48,0.0,3.230769230769231,-2.979591836734694
2.3740192828112563,31.747065510629064,-0.008527975554291502,3.1425741550649815,-2.752671429208518
2.3712489911286854,31.033922391922648,-0.015561517337631713,3.0586703554255936,-2.5518440767313573
2.367003851804242,30.33962096563434,-0.021352737657526093,2.978733351429256,-2.3732617722614036
2.3615458848520157,29.663282391721197,-0.026107844535748066,2.902471639119788,-2.213742200858822
2.355093911565111,29.004091578160196,-0.029996271002551565,2.82962239184546,-2.070638686624781
2.347831190227353,28.361290999035084,-0.03315782758664868,2.7599478614163826,-1.941738249848407
2.339911580769777,27.734175275844375,-0.035708341609664275,2.6932323402419507,-1.825181138623256
2.331464546571475,27.122086405244286,-0.03774412967991728,2.6292795780197005,-1.71939689490002
2.3225992317521946,26.524409538161258,-0.03934556440078326,2.567910570528363,-1.623053244570944
2.31340779949352,25.94056923213025,-0.04057993350073473,2.5089616558282204,-1.5350150018442184
2.303968176698944,25.370026112062128,-0.041503742973840574,2.452282866503271,-1.4543108439775754
2.29434631944946,24.812273885290395,-0.04216458093471483,2.397736496729199,-1.3801063088377787
2.2845980898939975,24.266836665327304,-0.04260263259104527,2.3451958507759194,-1.3116817407720238
2.274770816717519,23.73326656573758,-0.04285191676963721,2.2945441456564972,-1.2484141926515149
2.2649045968839054,23.211141531260857,-0.04294129917483086,2.245673545445412,-1.1897625071806355
2.2550333850084288,22.700063378043417,-0.04289532582931441,2.198484308619279,-1.1352549656874882
2.245185907763934,22.199656018774473,-0.04273491107933523,2.152884032849823,-1.0844790200669265
2.235386433627582,21.709563851817112,-0.04247790749763878,2.108786984170707,-1.037072722499296
2.2256554226216543,21.229450296198056,-0.042139579510428085,2.0661134994732535,-0.9927175448148977
2.216010076179074,20.758996456668584,-0.041732998251138305,2.02478945295693,-0.9511323399933969
2.20646480363081,20.297899905046194,-0.04126937173376824,1.9847457785421134,-0.9120682460964608
2.1970316188816703,19.84587356575264,-0.04075832173700897,1.9459180414018267,-0.875304370818513
2.1877204784681807,19.40264469492747,-0.040208116641163874,1.9082460527301028,-0.8406441250016965
2.1785395702639994,18.967953943756207,-0.03962586774302286,1.8716735226722103,-0.8079120975779103
2.1694955605258865,18.541554497741167,-0.039017695197088594,1.8361477470237617,-0.7769513837659867
2.1605938056865353,18.1232112845868,-0.03838886862335426,1.8016193238837852,-0.7476212939651317
2.1518385342442916,17.71270024419219,-0.03774392652659244,1.768041896938901,-0.71979538342298
2.143233003229898,17.309807654959464,-0.037086777946395394,1.735371922476147,-0.6933597530238502
2.1347796330118647,16.914329511252724,-0.036420789166936286,1.7035684575824495,-0.6682115799149012
2.1264801236067843,16.526070947391386,-0.03574885783376549,1.67259296729877,-0.6442578435387399
2.1183355551663703,16.144845704044112,-0.03507347643070186,1.6424091487644776,-0.6214142182661219
2.1103464749010277,15.770475633315016,-0.03439678674619201,1.6129827706189708,-0.5996041084562569
2.1025129723556373,15.402790239189063,-0.03372062669198431,1.5842815261284449,-0.5787578056017326
2.094834744665117,15.04162625033604,-0.0330465706168852,1.5562748986804422,-0.5588117503896078
2.087311153175419,14.68682722256705,-0.032375964076141996,1.5289340384412289,-0.5397078851497186
2.079941272612105,14.338243168499318,-0.031709953865717906,1.5022316491042766,-0.5213930843622488
2.072723933806994,13.995730212218216,-0.031049514004814937,1.4761418837748719,-0.5038186527371675
2.065669797712162,13.659151098807303,-0.030290799863290852,1.4506330154504625,-0.4839562484044254
2.0587882654800427,13.328374000748017,-0.029548610850787096,1.4256895763694069,-0.4650996808348531
2.052075523249531,13.003271409462041,-0.02882306071887809,1.4012894782912577,-0.44718512254712184
2.045527740826226,12.683720768694137,-0.02811417774464529,1.3774117457774764,-0.43015356315675024
2.039141089810671,12.369604226619515,-0.02742191804278989,1.3540364461757446,-0.41395038874588086
2.0329117588745,12.060808403453251,-0.026746177054350933,1.3311446248352377,-0.3985250028089824
2.0268359665751303,11.757224173410634,-0.02608679946190647,1.3087182451005468,-0.3838304841973596
2.0209099720462618,11.4587464599663,-0.025443587745645996,1.2867401326762722,-0.3698232780395009
2.0151300838555954,11.16527404344924,-0.024816309564497187,1.2651939239937928,-0.35646291609541025
2.0094926672817928,10.876709380091558,-0.024204704120741476,1.2440640182469271,-0.34371176342154347
2.003994150228782,10.592958431721776,-0.0236084876445701,1.2233355327946613,-0.3315347885876062
1.9986310279662893,10.313930505359806,-0.023027358116235942,1.2029942616572586,-0.31989935500475214
1.9933998668602755,10.039538102030633,-0.022460999327362258,1.1830266368572802,-0.30877503120300615
1.9882973072351744,9.769696774168384,-0.02190908436916929,1.1634196923796618,-0.29813341813946004
1.983320065491014,9.50432499103201,-0.021371278623531106,1.1441610305453158,-0.28794799183258163
1.9784649355822101,9.243344011599035,-0.020847242322588486,1.125238790611003,-0.27819395980581324
1.9737287899507168,8.98667776444493,-0.020336632733875464,1.1066416194246844,-0.2688481299889211
1.9691085799939796,8.734252734153344,-0.01983910602036017,1.0883586439804123,-0.2598887908712109
1.964601336137536,8.485997853836622,-0.019354318818280557,1.070379445730224,-0.2512956018292747
1.960204167572881,8.241844403377545,-0.018881929570023343,1.052694036522625,-0.24304949266554438
1.9559142617132195,8.001725913031898,-0.01842159964442436,1.0352928360482112,-0.2351325714944806
1.9517288834127557,7.765578072057817,-0.01797299427265258,1.0181666506829297,-0.22752804020233566
1.947645373989119,7.533338642062006,-0.01753578332418724,1.0013066536284791,-0.22022011678551517
1.9436611500832512,7.304947374775111,-0.017109641944229252,0.9847043662575515,-0.21319396394283296
1.9397771844366298,7.080449993308399,-0.01666397237421886,0.9674467769312416,-0.22452956765907156
1.935992753742567,6.859907465668087,-0.016244120617630538,0.9503143329845283,-0.23810466497322016
1.9323018751934997,6.643291434558428,-0.01585047546121668,0.9333033288385983,-0.25379559622541864
1.9286984927669177,6.43057437772319,-0.01548328476993054,0.9164102088591164,-0.2714825967673391
1.92517650822908,6.221729574263602,-0.01514266773300667,0.899631560354677,-0.2910495124974363
1.921729809435226,6.016731072506712,-0.014828626126592049,0.8829641070965372,-0.31238352643839895
1.9183522961439516,5.815553659307422,-0.014541054667098029,0.8664047033320655,-0.33537489521236535
1.9150379035470586,5.61817283067348,-0.014279750523277413,0.8499503282674474,-0.3599166943149787
1.9117806237012092,5.424564763607936,-0.014044422049326637,0.8335980809981592,-0.38590457112713983
1.908574525033994,5.23470628906826,-0.013834696796021315,0.8173451758685937,-0.4132365046335819
1.905413770084475,5.048574865945195,-0.013650128851969914,0.8011889382450067,-0.4418125708402761
1.902292631626814,4.866148555967818,-0.013490205562473679,0.7851268006887065,-0.4715347128982322
1.8992055073151748,4.687405999443918,-0.013354353669172687,0.7691562995191384,-0.502306514949454
1.8961469329786158,4.5123263917469,-0.013241944909601741,0.7532750717592677,-0.5340329787115364
1.8931115946861383,4.3408894604618595,-0.013152301111941154,0.7374808524584677,-0.5666203018104555
1.8900943396943568,4.173075443104171,-0.013084698816593143,0.7217714723910099,-0.5999756568562199
1.8870901863833867,4.008865065324109,-0.013038373452712063,0.7061448561312669,-0.6340069702328404
1.884094333280465,3.848239519510372,-0.013012523094434162,0.6905990205099315,-0.6686226995420687
1.8811021672655053,3.6911804437039493,-0.01300631181825787,0.6751320734589591,-0.7037316085989698
1.8781092710482303,3.5376699007316574,-0.013018872679786625,0.6597422132566194,-0.7392425388259294
1.8751114300026994,3.3876903574655195,-0.013049310324829269,0.6444277281880618,-0.7750641758293647
1.8721046384419822,3.2412246641101525,-0.01309670324662383,0.6291869966412161,-0.8111048098692539
1.8690851054133883,3.098256033415197,-0.013160105697672097,0.6140184876627577,-0.8472720888445695
1.8660492600931058,2.9587680197034807,-0.013238549261306076,0.598920762004352,-0.8834727623165985
1.8629937568583252,2.8227444975979914,-0.01333104408461093,0.5838924736955643,-0.9196124149756246
1.8599154801149695,2.6901696403215176,-0.013436579770656551,0.5689323721868034,-0.9555951878230733
1.8568115489600736,2.56102789743197,-0.013554125924091177,0.5540393051136046,-0.9913234851894267
1.8536793217597065,2.435303971843503,-0.01368263233996963,0.5392122217426174,-1.0266976655363425
1.8505164007261763,2.312982795968548,-0.013821028821163798,0.5244501771700384,-1.0616157137978066
1.8473206365821946,2.1940495067981516,-0.01396822460476411,0.5097523373551427,-1.0959728927981978
1.844090133404815,2.078489419717503,-0.014123107372449787,0.49511798508528426,-1.1296613710434413
1.840823253748397,1.966288000829472,-0.014284541813793405,0.4805465269845397,-1.162569823913977
1.8375186241537622,1.8574308375311617,-0.014451367704771055,0.466037501696414,-1.194583004994756
1.8341751411602438,1.7519036070559864,-0.014622397456257222,0.45159058939208047,-1.2255812839587845
1.8307919779487052,1.6496920426562056,-0.014796413078860489,0.43720562277991926,-1.2554401470795244
1.8273685917570273,1.5507818970572025,-0.014972162500948042,0.42288259982011045,-1.2840296560892177
1.823904732225336,1.4551589027641647,-0.015148355165932971,0.408621698380207,-1.3112138607346087
1.8204004508466496,1.3628087287434276,-0.015323656822644615,0.39442329310444907,-1.3368501600245142
1.816856111720055,1.273716932933091,-0.015496683408610892,0.38028797481150933,-1.3607886068404338
1.8132724038284107,1.1878689099597572,-0.015665993910035696,0.36621657278268793,-1.382871150330676
1.809650355091425,1.105249833348882,-0.015830082063754743,0.352210180355349,-1.4029308103890226
1.8059913484784205,1.0258445914141845,-0.015987366744980656,0.33827018429418887,-1.4207907786187304
1.8022971405039043,0.9496377158957827,-0.016136180859505835,0.32439829847452384,-1.43626344063244
1.7985698824741974,0.8766133022866285,-0.01627475852925069,0.31059660247463833,-1.4491493155318675
1.7948121449060472,0.8067549206426783,-0.016401220324229346,0.296867585733639,-1.4592359102338155
1.7910269456000019,0.740045515515714,-0.016513556250079588,0.2832141979790934,-1.4662964893825172
1.787217781924557,0.6764672934832028,-0.016609606145092676,0.26963990665143195,-1.4700887665344013
1.783388667954913,0.6160015965851144,-0.01668703706920355,0.25614876202758774,-1.4703535300377009
1.7795441772172085,0.558628759828423,-0.016743317171703482,0.24274547063928809,-1.4668132289121003
1.7756894919224306,0.5043279508112875,-0.016775685391584104,0.22943547733579803,-1.4591705620689133
1.771830459744788,0.4530769894927431,-0.016781116153132027,0.21622505586894483,-1.4471071413697838
1.7679736594247366,0.40485214625783783,-0.01675627793427392,0.20312140704330334,-1.4302823396957334
1.7641264767854055,0.3596279168102825,-0.016697484146866393,0.1901327620658902,-1.4083324958756767
1.760297193189728,0.3173767732336543,-0.01660063407641486,0.17726848642651888,-1.3808707385289736
1.7564950891118851,0.2780688920591601,-0.01646114051352267,0.16453917596040032,-1.3474878244444497
1.7527305664814943,0.24167186276059027,-0.01627383888117921,0.151956730983693,-1.3077545837459754
1.7490152950030082,0.20815038435794975,-0.016032869627395783,0.13953438556102718,-1.2612268508204756
1.7453623901299986,0.17746596460425934,-0.015731520572689138,0.12728665577541862,-1.2074541713917852
1.7417866344178725,0.1495766467200781,-0.015362007358841369,0.11522915191313812,-1.1459941499921495
1.7383047606577744,0.12443680425207759,-0.014915155772445465,0.10337817389557565,-1.0764350623752916
1.7349358262957715,0.10199706669747854,-0.014379925636275735,0.09174997875309343,-0.9984302661139505
1.731701727111015,0.08220446715842655,-0.013742675970302999,0.08035958245604025,-0.911748782122714
1.7286279287487243,0.06500293443837535,-0.01298600544092074,0.06921896293568612,-0.8163465388540719
1.7257445452558389,0.05033427106026522,-0.012086894497213318,0.05833463165657478,-0.7124606200535383
1.723087977826623,0.03813972824412559,-0.011013691843793525,0.0477048710924889,-0.6007213995180107
1.7207034743664371,0.028362129822667725,-0.009721120853476746,0.037317723876691945,-0.4822602568088527
1.7186492743159145,0.020948065357352164,-0.008141488281500103,0.027152401908681144,-0.3587611350532349
1.7170038484648493,0.015848695948967872,-0.006166562597328533,0.017189940772920506,-0.2323714245326506
1.7158811832727752,0.013015163545389896,-0.0035957434207071685,0.0074494714321140625,-0.1053806001458544
