x,y,v_x,v_y,omega
2.375,32.48,0.0,3.6923076923076925,-6.040816326530612
2.372737031910349,31.6437659482276,-0.019677983388271186,3.5792927578870595,-5.519050636318517
2.366390482830087,30.832789886950792,-0.03550939991835154,3.472672992346042,-5.065742707027334
2.356761396649094,30.045666718870578,-0.04822178426419736,3.371876295307997,-4.669439080534497
2.344500598291374,29.28111467288555,-0.05839385362902314,3.276402365431396,-4.3209327072087955
2.3301390814682637,28.537960182535898,-0.06648890135454087,3.1858105941307793,-4.012764092840847
2.3141116615106867,27.81512524749837,-0.07287996784178104,3.09971058010862,-3.7388456371839065
2.2967755294101386,27.111616754601535,-0.07786900694559579,3.0177545755160082,-3.494175697904436
2.2784249082721177,26.426517369331915,-0.08170161164588831,2.939631383350267,-3.2746188401747878
2.259302704746816,25.758977703332853,-0.08457841900891219,2.8650613644676546,-3.07673546346924
2.2396098256844494,25.108209531152884,-0.08666400762036205,2.793792306662509,-2.8976486428746857
2.2195126680364883,24.473479878963474,-0.08809388497060273,2.7255959732453965,-2.7349392787980853
2.199149170296127,23.85410584470184,-0.0889800084238423,2.660265194247089,-2.586562963486049
2.1786337245163234,23.249450036816878,-0.08941517227010262,2.5976113960569305,-2.450783638236152
2.158061180804929,22.65891654002864,-0.08947651217680565,2.537462489058205,-2.326120327027188
2.1375101252819015,22.081947332996357,-0.08922831845821746,2.4796610503529237,-2.2113041230471646
2.1170455735857017,21.518019095749743,-0.08872430498699516,2.4240627517915825,-2.1052432654196354
2.0967211920956537,20.966640355043456,-0.0880094471003786,2.370534993480459,-2.0069946378654038
2.076581135876776,20.427348924075464,-0.08712147654203845,2.3189557105890404,-1.915740393908564
2.0566615743205396,19.899709599726656,-0.08609210220784107,2.269212327226671,-1.8307686965019565
2.0369919613366836,19.383312085975145,-0.08494801069525627,2.221200835829948,-1.7514577766218948
2.0175960958404913,18.877769116670486,-0.08371168927163206,2.174824984210582,-1.677262682191198
1.9984930094933202,18.382714754617158,-0.08240210505159695,2.1299955553835606,-1.607704217891553
1.9796977116732386,17.89780284706317,-0.08103526729693779,2.0866297276945946,-1.5423596770763044
1.9612218160819168,17.422705620335613,-0.07962469436672895,2.044650504718941,-1.4808550458312264
1.9430740689298327,16.957112398602348,-0.07818180260791581,2.0039862060050995,-1.4228584213025284
1.925260795050285,16.500728433640024,-0.07671623112728299,1.964570011058585,-1.3680744355258125
1.9077862753920185,16.05327383411156,-0.07523611372720784,1.926339550058489,-1.3162395150360109
1.890653066988988,15.614482584247497,-0.07374830716870949,1.88923653571597,-1.2671178377213461
1.873862274593149,15.184101643023062,-0.07225858322988875,1.8532064314530323,-1.2204978733961116
1.8574137815951017,14.761890115957165,-0.07077179066617653,1.818198151728677,-1.1761894147128347
1.8413064465791509,14.347618492556123,-0.0692919920812208,1.784163790889066,-1.134021021326182
1.8255382708094234,13.941067943204512,-0.06782257982945232,1.7510583773858084,-1.0938378134471656
1.8101065410786858,13.542029669985492,-0.06636637435087464,1.7188396506056558,-1.055499561703833
1.7950079516368533,13.150304306507689,-0.0649257077520157,1.687467857896987,-1.0188790290387038
1.7802387083240638,12.765701362337182,-0.06350249496789354,1.656905569672627,-0.9838605276066279
1.7657946175413044,12.388038708091766,-0.06209829444740661,1.6271175107223004,-0.9503386595930027
1.7516711622819041,12.017142097658631,-0.06071435998216036,1.5980704060875788,-0.9182172157929248
1.7378635671051441,11.652844724353653,-0.05935168503314484,1.5697328400426744,-0.8874082098697957
1.7243668536469496,11.294986808156374,-0.058011040690284725,1.5420751268901765,-0.8578310296018387
1.7111758880224759,10.943415211435084,-0.05669300821818252,1.5150691924253787,-0.8294116892513939
1.698285421273476,10.597983080825504,-0.05539800699051212,1.4886884650492398,-0.8020821695552172
1.6857117385533187,10.258551859453359,-0.05393836448911734,1.4628873729694079,-0.7702964381081445
1.6734692144073287,9.924988453329892,-0.052518367215142636,1.4376639846259687,-0.740129504316708
1.6615488080620222,9.597162608518708,-0.05113734013534954,1.4129955354712833,-0.7114780479765306
1.6499416422676214,9.274949173561883,-0.04979453633770221,1.3888604206750372,-0.6842465948656365
1.6386390180257788,8.958227841243737,-0.04848915272179722,1.36523812122187,-0.6583468272022359
1.6276324259813646,8.646882906707624,-0.04722034331658754,1.3421091356138777,-0.633696962715832
1.6169135549848104,8.340803040693277,-0.045987230566493655,1.319454916684782,-0.6102211947256714
1.6064742982587892,8.039881076770108,-0.044788914877167414,1.2972578130819032,-0.5878491865479648
1.5963067575408763,7.7440138115388635,-0.04362448266990273,1.275501015015885,-0.5665156143575961
1.5864032455206933,7.453101816861572,-0.04249301315777371,1.2541685039170822,-0.5461597533288547
1.5767562868445566,7.1670492632588,-0.04139358402602599,1.2332450056722406,-0.5267251024880046
1.5673586179216437,6.885763753684696,-0.040325276173215956,1.212715947146072,-0.5081590442409186
1.5582031857322742,6.609156166955096,-0.039287177647386526,1.1925674157200152,-0.4904125350023164
1.5492831458101757,6.3371405101626905,-0.0382783868926023,1.172786121605255,-0.47343982375852683
1.5405918595459573,6.069633779466518,-0.03729801540494816,1.1533593627092837,-0.4571981957509707
1.532122890937819,5.8065558286916,-0.03634518988321074,1.134274991855229,-0.4416477387794215
1.5238700028972803,5.547829245218573,-0.03541905394756273,1.1155213861711,-0.4267511298982817
1.515827153202034,5.293379232683439,-0.03451876948936123,1.0970874184822335,-0.4124734405205308
1.5079884901745209,5.043133500044185,-0.033643517706404544,1.0789624305547656,-0.3987819581568917
1.5003483481531819,4.797022156604513,-0.03279249987045641,1.0611362080510762,-0.38564602320576225
1.4929012428133324,4.554977612615588,-0.03196493786736412,1.0435989570700102,-0.37303687937572355
1.4856418663859663,4.316934485104664,-0.03116007454451517,1.0263412821554043,-0.36092753646967396
1.478565082815357,4.082829508605183,-0.03037717389556814,1.0093541656661646,-0.3492926443902076
1.471665922889918,3.852601450486432,-0.029615521108246223,0.9926289484099435,-0.3381083773417973
1.464946003964583,3.6262926508891056,-0.028818556503364345,0.9752736567842043,-0.3451926843082727
1.458405244144922,3.403960746384982,-0.02805761584151259,0.9580472519473043,-0.354683955047788
1.4520353562130208,3.185576539103362,-0.027332714001108652,0.9409458548493986,-0.36645051041339494
1.4458280643066508,2.971111704842862,-0.02664373735862962,0.9239657474158338,-0.3803650368268149
1.4397751321126928,2.7605387569402566,-0.025990455632309246,0.9071033647807393,-0.3963042721857312
1.4338683884487293,2.5538310118588186,-0.02537253274998202,0.8903552881013346,-0.4141487051295963
1.4280997504486521,2.3509625563663406,-0.024789536815905896,0.8737182379202191,-0.4337822863451033
1.4224612445516283,2.1519082161801713,-0.024240949245172304,0.8571890680464648,-0.4550921506555106
1.416945025478649,1.9566435259629102,-0.023726173128560277,0.8407647599297072,-0.4779683486918643
1.4115433933670478,1.7651447005579577,-0.02324454088536261,0.8244424175046476,-0.5023035869892494
1.4062488092207035,1.5773886073589765,-0.02279532125676156,0.8082192624864855,-0.5279929753878178
1.4010539088220884,1.3933527397114354,-0.022377725687718657,0.7920926301008214,-0.5549337806467091
1.3959515152417823,1.2130151912478695,-0.02199091414102958,0.7760599652345413,-0.5830251851992223
1.390934650071502,1.0363546310612257,-0.02163400038314499,0.7601188189971454,-0.6121680499897518
1.3859965434980235,0.8633502796227823,-0.021306056777537663,0.7442668456849594,-0.642264680337002
1.381130643327563,0.6939818853524891,-0.02100611861777312,0.7285018001436924,-0.6732185937637135
1.3763306230631858,0.5282297017502522,-0.02073318802898335,0.7128215355279268,-0.7049342887203155
1.371590389131594,0.36607446499671425,-0.0204862374631209,0.6972240014593873,-0.7373170131082334
1.3669040873501674,0.20749737193111883,-0.0202642128101529,0.681707242589277,-0.770272531477596
1.3622661087204155,0.05248005831238345,-0.0200660361442108,0.6662693975736503,-0.8037068897332575
1.357671094629961,-0.09899542273318218,-0.019890608120610942,0.6509086984747693,-0.8375261761317359
1.3531139415418851,-0.24694662217743968,-0.0197368100365712,0.6356234706057194,-0.8716362772891044
1.3485898052476657,-0.3913907165737385,-0.019603505565336493,0.620412132840341,-0.9059426278452012
1.3440941047580726,-0.5323445296681939,-0.019489542170255586,0.6052731984158194,-0.9403499523417378
1.3396225259052532,-0.6698245542560528,-0.019393752202085626,0.5902052762611925,-0.9747619977699211
1.3351710247288826,-0.8038469744086356,-0.019314953679398256,0.5752070728916822,-1.009081255125848
1.3307358307196884,-0.9344276882065472,-0.01925195074837789,0.5602773949162635,-1.043208668177923
1.3263134499949585,-1.0615823311265729,-0.019203533814489845,0.5454151522144093,-1.0770433274985893
1.3219006684828363,-1.1853263002437089,-0.019168479334399535,0.5306193618476581,-1.1104821476414304
1.3174945551953907,-1.3056747794262051,-0.019145549252084008,0.5158891527827462,-1.1434195251530264
1.313092465674705,-1.422642765720532,-0.019133490058226225,0.5012237715157499,-1.1757469748958602
1.3086920457016449,-1.536245097145489,-0.01913103144664477,0.4866225887012637,-1.2073527419235295
1.3042912353636866,-1.6464964821404848,-0.019136884535601358,0.4720851069073754,-1.23812138589274
1.299888273586339,-1.7534115309430263,-0.019149739615247182,0.45761096963643483,-1.2679333347193515
1.2954817032424486,-1.8570047892051917,-0.019168263375103953,0.44319997177368714,-1.2966644038912214
1.291070376965234,-1.957290774199052,-0.01919109555719588,0.42885207165115424,-1.324185277544482
1.28665346380448,-2.0542840140073864,-0.019216844971100877,0.414567404943087,-1.350360947101859
1.2822304568811955,-2.1479990901497032,-0.019244084796590413,0.4003463006422578,-1.3750501029771292
1.27780118221453,-2.2384506841549836,-0.019271347087456557,0.38618929940364266,-1.3981044745927296
1.2733658089161972,-2.325653628663545,-0.019297116376307096,0.37209717458384395,-1.41936811377401
1.2689248609725392,-2.4096229637210342,-0.01931982226419705,0.35807095635086766,-1.4386766165277567
1.2644792308631991,-2.4903739990196314,-0.019337830860499894,0.3441119592891007,-1.4558562783643545
1.2600301952988113,-2.5679223829452695,-0.019349434916785684,0.33022181397729916,-1.4707231787999773
1.255579433399009,-2.6422841794057845,-0.019352842472800336,0.31640250307068307,-1.483082191649959
1.2511290476774437,-2.7134759535426767,-0.01934616380167985,0.3026564024675188,-1.4927259194492086
1.2466815882538564,-2.781514867566976,-0.019327396403426667,0.2889863281785458,-1.4994335531788627
1.2422400807764897,-2.846418788103719,-0.019294407747588595,0.2753955895322935,-1.502969662979187
1.2378080586141027,-2.9082064065719067,-0.019244915403602188,0.26188804932150805,-1.5030829324753903
1.2333895999696474,-2.966897374254323,-0.019176464113401456,0.24846819139516893,-1.499504859889909
1.2289893706834982,-3.022512453802392,-0.01908639924441702,0.23514119597935426,-1.4919484649540489
1.22461267364261,-3.075073688938417,-0.018971835893741126,0.2219130225947642,-1.4801070642452212
1.220265505908234,-3.1246045940041043,-0.018829622666050688,0.20879049971555547,-1.4636532126007151
1.2159546249431652,-3.171130364669068,-0.018656298769329296,0.19578141911022987,-1.4422379600134227
1.2116876256993645,-3.2146781104155977,-0.018448042481112446,0.18289463085956587,-1.4154906496334385
1.2074730308829724,-3.2552771081411223,-0.018200608096210286,0.17014013197111294,-1.383019594311745
1.2033203975533577,-3.292959074043111,-0.017909246943916917,0.1575291367418128,-1.344414132242367
1.1992404445140565,-3.3277584473924975,-0.017568605571746262,0.1450741097746141,-1.29924879812447
1.19524520701334,-3.359712674174766,-0.01717259008665878,0.13278873181034262,-1.2470906822785173
1.1913482285858366,-3.3888624699450034,-0.016714178848152978,0.12068775314823973,-1.1875115167532138
1.187564805256026,-3.415252028445387,-0.016185154454548364,0.10878666859421346,-1.1201066465206568
1.1839123061417396,-3.438929124416447,-0.015575707408811852,0.09710112245844923,-1.0445237959408353
1.1804106089345274,-3.4599450352078094,-0.014873833523468051,0.08564592790122622,-0.9605052855727632
1.1770827122912246,-3.478354178582066,-0.014064398157426002,0.07443357970102003,-0.8679476591610495
1.1739556253781334,-3.4942133428855087,-0.01312766195641173,0.06347219685067348,-0.7669814975834779
1.171061696792951,-3.5075803953907965,-0.01203693443647854,0.05276304232576072,-0.6580694082486441
1.1684406488740429,-3.518512448960884,-0.010754786597505912,0.042298293066290696,-0.5421084217480212
1.1661427786513776,-3.5270637458384897,-0.00922669359958418,0.03206081021723739,-0.4205012868659951
1.1642342584560084,-3.533284152124402,-0.0073691341862358655,0.02202967922548376,-0.2951326865654669
1.1628070712925025,-3.537220590528875,-0.005041188974685551,0.012200219943869259,-0.16816929222591917
1.1620044366748776,-3.5389289483972917,-0.0019382424829221317,0.0026550658684344787,-0.04163305797971392
