x,y,v_x,v_y,omega
2.375,32.48,0.0,3.435897435897436,-6.8979591836734695
2.373218508768222,31.801662484148334,-0.017814912317783566,3.3474777226191956,-6.409447717072554
2.3681621767458565,31.14059773092769,-0.032748407905865994,3.263169809587223,-5.973120856288449
2.360362304008822,30.496014632221236,-0.04525031946448288,3.1826611774773474,-5.581777548212801
2.350267877159944,29.867181161369263,-0.05569394902429657,3.105673531042372,-5.229393597574621
2.33825943101007,29.253418043016012,-0.06439051247443912,3.0319576524901155,-4.910901619295415
2.3246603247723088,28.654093352372563,-0.07160054990317552,2.961289253944392,-4.622017274238237
2.309745968636674,28.06861786746972,-0.0775430114531718,2.893465595084032,-4.359100946923048
2.293751413109376,27.496441038507584,-0.08240254381980999,2.828302694537358,-4.119046830762907
2.2768776216201077,26.9370474682806,-0.08633537107287281,2.7656330077324602,-3.8991933958174343
2.259296677675111,26.38995381996007,-0.08947406837709107,2.7053034754728174,-3.697250672675848
2.241156125097637,25.854706085374964,-0.09193145739765453,2.6471738703782726,-3.5112408582076697
2.2225825993265595,25.330877159827303,-0.0938038003131147,2.5911153850983446,-3.3394495459403606
2.2036848762574617,24.818064679453634,-0.09517343037786462,2.537009418638334,-3.1803854824504394
2.1845564404815656,24.315889084943763,-0.09611092738109812,2.4847465264603716,-3.032747204996842
2.1652776553760567,23.823991881589286,-0.09667692367399079,2.4342255070844003,-2.895395262652883
2.1459176021165915,23.342034070548834,-0.09692360892065885,2.385352603320099,-2.767328990633206
2.126535642414861,22.869694730172903,-0.0968959880966486,2.3380408004392073,-2.647667015109872
2.107182749947397,22.406669729443202,-0.09663293657799099,2.2922092068578213,-2.535630828036263
2.0879026475152456,21.952670558210944,-0.09616808774352313,2.2477825054647673,-2.430530899053243
2.0687327805571845,21.507423261087446,-0.09553058183708854,2.2046904657702027,-2.3317548924286444
2.049705152421949,21.0706674636424,-0.09474569951526267,2.1628675086802476,-2.238757637190713
2.0308470425459557,20.64215548107237,-0.09383539924467195,2.122252317020077,-2.151052562716912
2.012181625193053,20.22165150077054,-0.09281877428435704,2.0827874859981894,-2.068204363511902
1.9937285035427743,19.808930831302643,-0.09171244221842903,2.044419208680796,-1.9898226984274392
1.9755041715452224,19.403779211207823,-0.09053087775709094,2.0070969922673982,-1.9155567632106478
1.9575224140000818,19.005992171825334,-0.08928669769431541,1.97077340155751,-1.8450906026242306
1.939794653689127,18.615374449019768,-0.08799090541522973,1.93540382649812,-1.778139050720318
1.9223302530355793,18.231739439257893,-0.08665310112024797,1.9009462711206426,-1.7144442061572411
1.9051367766311067,17.854908695992865,-0.08528166292447772,1.8673611615296164,-1.6537723645059978
1.8882202200227822,17.484711462749402,-0.08388390315876867,1.834611170904996,-1.5959113419196707
1.871585209355896,17.120984239685406,-0.08246620351009269,1.8026610597349868,-1.5406681348277542
1.8552351757981471,16.763570380740454,-0.08103413206739468,1.771477529714511,-1.4878668688628156
1.839172508105066,16.412319718775834,-0.07959254486341595,1.741029089931707,-1.4373469973459865
1.823398686208111,16.06708821637003,-0.07814567410613445,1.7112859341263298,-1.3889617156058884
1.8079143983013475,15.727737640163038,-0.07669720496150159,1.6822198279435816,-1.3425765623893635
1.7927196435581176,15.394135256845864,-0.07525034247079676,1.65380400522815,-1.2980681838095485
1.7778138223158422,15.066153549072169,-0.07380786995195902,1.6260130725088013,-1.2553232388040287
1.7631958153169298,14.743669949729679,-0.07237220003716328,1.5988229209160887,-1.2142374280546657
1.7488640533799629,14.426566593152419,-0.0709454193325071,1.5722106448565019,-1.1747146308427017
1.7348165786922234,14.114730081983037,-0.06952932754488544,1.5461544668373244,-1.1366661364531223
1.7210510987575585,13.808051268509413,-0.06812547180176445,1.5206336678989212,-1.1000099585630134
1.7075650338985662,13.506425049402889,-0.06673517678815839,1.4956285231663058,-1.0646702226010194
1.6943704652844387,13.209753243822203,-0.06521050935311576,1.4710895326405595,-1.0263511694184793
1.6814776901612578,12.917941145976705,-0.06371724187869421,1.4470314458144056,-0.9897849117606262
1.668880427730803,12.630894297742206,-0.06225538242585499,1.4234370365305997,-0.9548704788585753
1.656572406483746,12.348521607059503,-0.06082483004471357,1.4002898702964375,-0.9215138210176449
1.6445473844006038,12.070735194184259,-0.05942539078670877,1.377574258455992,-0.8896272597681016
1.6327991661511336,11.797450246785903,-0.058056791707991044,1.3552752155275813,-0.8591289875315122
1.621321617668915,11.528584883287984,-0.056718693114197506,1.3333784194516096,-0.829942611828825
1.6101086784310361,11.264060023891084,-0.05541069926458916,1.3118701745173755,-0.8019967396066171
1.59915437173201,11.003799268763501,-0.05413236772567124,1.2907373767584511,-0.7752245977418615
1.5884528132054143,10.747728782925147,-0.05288321754028608,1.2699674816251019,-0.7495636862117552
1.5779982178156622,10.495777187386718,-0.05166273635723627,1.2495484737591764,-0.7249554607910652
1.5677849055151065,10.247875456139585,-0.0504703866483189,1.2294688387121644,-0.7013450424714938
1.55780730573789,10.003956818622282,-0.049305611123848445,1.209717536460886,-0.678680951091286
1.548059960881106,9.763956667317423,-0.048167837443991286,1.1902839765877071,-0.6569148609234835
1.5385375289055818,9.527812470158313,-0.04705648231125093,1.171157995003404,-0.6360013762020083
1.5292347851725574,9.295463687447874,-0.045970955018990595,1.1523298321009752,-0.6158978247697405
1.520146623618483,9.066851693013987,-0.04491066052175425,1.133790112237911,-0.5965640682150466
1.5112680573577904,8.841919699344917,-0.04387500208517238,1.1155298244527874,-0.577962327025543
1.5025942187926469,8.620612686466671,-0.042863383566262986,1.0975403043296532,-0.5600570194326105
1.4941203592991374,8.402877334340648,-0.04187521136883097,1.0798132169305803,-0.5428146127493645
1.4858418485509226,8.188661958575285,-0.04090989611331725,1.062340540723035,-0.5262034861202477
1.4777541735340152,7.977916449259535,-0.03996685405575565,1.0451145524344596,-0.5101938037037264
1.4698529372998022,7.770592212738922,-0.03904550828637571,1.0281278127716775,-0.4947573974021085
1.4621338574976874,7.566642116167003,-0.03814528973477126,1.011373152947514,-0.4798676583354998
1.454592764723673,7.366020434676113,-0.03726563800537335,0.9948436619613825,-0.4654994363314134
1.4472333108422335,7.1688595371883395,-0.036328900809020445,0.9767653129163344,-0.4870518691618194
1.440056442381262,6.975302929405853,-0.035439783800695616,0.9588007649085277,-0.5103843741874292
1.433052748968439,6.7853281610728615,-0.034597150327534056,0.9409469184213795,-0.5353824955112835
1.4262130521610408,6.5989133894961185,-0.033799817746448815,0.9232007973460363,-0.5619345377026412
1.4195284140910398,6.416037355330836,-0.03304656295356127,0.9055595443067973,-0.5899313115375574
1.412990145055168,6.23667935925921,-0.03233612740515554,0.8880204164094542,-0.6192658863320666
1.4065898101480019,6.060819239478366,-0.031667221666506554,0.8705807813989748,-0.6498333478252014
1.4003192350291944,5.888437349916899,-0.031038529521569578,0.8532381142157046,-0.6815305605859773
1.3941705109097033,5.719514539101127,-0.03044871167334162,0.8359899939420177,-0.71425593392784
1.3881359988362003,5.554032129593512,-0.02989640906168712,0.8188341011341382,-0.7479091903158512
1.382208333347778,5.391971897926428,-0.02938024582253683,0.8017682155367125,-0.7823911352459385
1.3763804255745646,5.233316054954688,-0.02889883190959533,0.7847902141806702,-0.8176034275616477
1.3706454658439047,5.07804722654982,-0.028450765397005515,0.7678980698680223,-0.8534483491517045
1.3649969258563248,4.926148434557966,-0.028034634478793116,0.7510898500505367,-0.8898285729409332
1.359428560490613,4.777603077941638,-0.027649019178326347,0.7343637161127592,-0.9266469280472215
1.3539344092949352,4.632394914022996,-0.027292492778449837,0.7177179230736704,-0.9638061609276998
1.3485087977190542,4.490508039743084,-0.026963622980361788,0.7011508197254371,-1.0012086912774594
1.3431463381413509,4.351926872847308,-0.026660972796670932,0.684660849232306,-1.0387563613732385
1.3378419307435472,4.216636132902298,-0.02638310118136609,0.6682465502177779,-1.0763501774717141
1.3325907642857482,4.0846208220431315,-0.02612856339662408,0.6519065583738766,-1.11389004177646
1.327388316834742,3.955866205342474,-0.025895911113437288,0.6356396086326914,-1.15127447337828
1.322230356499406,3.830357790684449,-0.02568369223992294,0.6194445379475518,-1.1884003164495334
1.3171129422286296,3.708081308015764,-0.025490450467840722,0.6033202887393049,-1.2251624338331737
1.3120324247294206,3.5890226878345963,-0.025314724524248485,0.5872659130723851,-1.2614533840106679
1.3069854475658642,3.473168038763774,-0.025155047111316556,0.5712805776358456,-1.29716307925889
1.3019689485034283,3.360503624038543,-0.025009943513042858,0.5553635696164767,-1.332178422614055
1.296980161167834,3.2510158367204163,-0.024877929842899552,0.5395143035647803,-1.3663829210507528
1.2920166170934215,3.1446911734269207,-0.024757510901224886,0.5237323293701612,-1.3996562720569037
1.2870761482427622,3.0415162063419565,-0.02464717760536842,0.5080173414794971,-1.4318739205429352
1.2821568900873144,2.941477553242649,-0.024545403949108736,0.49236918951356656,-1.4629065827693266
1.2772572853483455,2.844561845245398,-0.024450643440579237,0.4767878904589572,-1.4926197337171232
1.2723760885083146,2.75075569193557,-0.02436132495972967,0.4612736426393377,-1.5208730540710287
1.2675123712156353,2.660045643501668,-0.02427584796706249,0.44582684169966463,-1.547519832749606
1.2626655287204467,2.572418149444683,-0.02419257698482437,0.4304480988701926,-1.5724063207250258
1.2578352874959875,2.4878595133762467,-0.02410983525976729,0.41513826181415925,-1.5953710317599272
1.253021714219739,2.4063558433544756,-0.02402589750271666,0.39989843840354483,-1.616243985701448
1.2482252263110578,2.3278929971330413,-0.023938981584096342,0.38473002381078414,-1.6348458901853238
1.2434466042480765,2.252456521617013,-0.023847239045717013,0.3696347313494936,-1.6509872571218844
1.2386870059168276,2.1800315857278783,-0.023748744266773234,0.3546146275418697,-1.6644674513134685
1.2339479832806486,2.1106029057806452,-0.023641482095016167,0.3396721719304733,-1.6750736702094784
1.229231501699062,2.0441546623694826,-0.023523333720848832,0.32481026218115033,-1.682579856458444
1.2245399622739597,1.9806704076482227,-0.023392060530175295,0.31003228503145774,-1.6867455490238428
1.2198762276591972,1.9201329617841942,-0.023245285617448656,0.2953421736088199,-1.6873146848525735
1.2152436518406915,1.8625242972683758,-0.02308047256760931,0.28074447154935805,-1.6840143723759868
1.2106461144824145,1.8078254096981503,-0.022894901015161277,0.26624440415288875,-1.6765536718623626
1.2060880605463375,1.7560161736376152,-0.022685638345608435,0.25184795645246777,-1.6646224378208325
1.2015745460422889,1.7070751822455712,-0.02244950669487923,0.23756195746795983,-1.6478903081614213
1.1971112909640695,1.6609795696070577,-0.022183044087312923,0.2233941689171619,-1.626005967797679
1.1927047407484535,1.6177048152079507,-0.021882458068848473,0.2093533750739064,-1.5985968767935472
1.1883621379980251,1.577224530900999,-0.021543569435435256,0.1954494679956293,-1.5652697434636698
1.1840916068087814,1.5395102322444032,-0.021161742457000976,0.18169351857034038,-1.5256121528453561
1.1799022529555996,1.5045310985704994,-0.020731796074818152,0.16809781816871047,-1.4791959466666775
1.1758042846034744,1.4722537300170622,-0.02024788744643401,0.1546758673656621,-1.4255832128413541
1.171809160440761,1.4426419156475774,-0.019703354180699243,0.14144227632917428,-1.364336104112967
1.1679297756784848,1.4156564354838075,-0.01909049344206344,0.1284125253085187,-1.2950321866922632
1.164180702044247,1.3912549316213614,-0.01840024290031438,0.11560251331596,-1.2172876184652721
1.1605785070235235,1.3693919001483223,-0.01762170730691997,0.10302780141443399,-1.1307911035503517
1.1571421922085159,1.3500188756530243,-0.016741440843155226,0.09070244353854995,-1.0353520320948253
1.1538938138600072,1.3330848996348656,-0.015742342641932135,0.07863731664303042,-0.930965904501057
1.150859385588944,1.3185373714329884,-0.01460194006870045,0.06683796537574589,-0.8178978166669528
1.1480702218733145,1.3063233487132564,-0.013289697087593966,0.05530226182156893,-0.6967782622395254
1.1455649807291202,1.296391242449527,-0.011762714354350137,0.04401880081574079,-0.5686919963995443
1.1433928621679497,1.2886925511168599,-0.009958471257355323,0.03296811251091561,-0.4352192873898212
1.141618940196417,1.2831826458339854,-0.007780748457972572,0.0221309403178341,-0.2983664546563024
1.1403345043493451,1.2798181368119366,-0.005063610012745901,0.01151414990265051,-0.16031827226336662
1.1396861014169963,1.2785418393996153,-0.0014204193107430207,0.0012488242205719296,-0.02300234839198398
