x,y,v_x,v_y,omega
2.375,32.48,0.0,3.7948717948717947,-2.979591836734694
2.3742115811832347,31.76851434165679,-0.008299145439633355,3.694450924530375,-2.7594601043109557
2.3719806736845097,31.075659149974868,-0.015184091389050351,3.5987616194898644,-2.5639046754332533
2.3685539216278877,30.40056822755559,-0.02088698289118183,3.507458616502561,-2.3894049316045938
2.364137769939818,29.742437780757264,-0.025598824351656592,3.42023029716402,-2.233031989728242
2.3589055246168167,29.10052042294697,-0.02947744220625586,3.3367945218916657,-2.0923364024709104
2.3530030593973303,28.474119908685726,-0.03265377063044165,3.2568951019109322,-1.9652594252802775
2.3465534511654518,27.862586488888525,-0.03523684233670079,3.1802987906911917,-1.8500624536706534
2.339660762722469,27.26531279704229,-0.03731777285258834,3.1067927024270308,-1.7452705703156024
2.3324131433278152,26.681730192270166,-0.03897295761745425,3.036182084647979,-1.6496271222693968
2.3248853806156866,26.11130549748553,-0.04026664987863671,2.968288386769243,-1.5620569751424502
2.3171410092345153,25.553538080863106,-0.041253048870536185,2.9029475776773226,-1.481636633664097
2.309234059716119,25.007957236935642,-0.04197799869152508,2.840008674190719,-1.4075698264507999
2.3012105141018306,24.47411983022365,-0.0424803761957216,2.779332449093425,-1.339167462375564
2.293109521578678,23.951608169737035,-0.042793229311153716,2.7207902928708996,-1.2758311021977502
2.284964416946486,23.44002808719023,-0.04294471418559918,2.664263207621807,-1.2170392705727657
2.2768035764970573,22.939007195529566,-0.04295886949260021,2.6096409151220157,-1.1623360737698762
2.2686511393476096,22.448193307525788,-0.04285625839632027,2.5568210638651174,-1.1113216973803086
2.2605276170578863,21.96725299684624,-0.04265450254813779,2.505708522235385,-1.0636444434240968
2.252450410186718,21.49587028627925,-0.042368727674684505,2.456214746890822,-1.0189940331180927
2.244434247088431,21.033745449707013,-0.042011936517808914,2.4082572170274394,-0.9770959543310522
2.2364915575411244,20.580593916069574,-0.04159532187489775,2.3617589265245553,-0.9377066745915338
2.2286327916044617,20.13614526497671,-0.041128530089968425,2.316647927084513,-0.9006095738425668
2.2208666923201537,19.700142304843983,-0.040619883429067305,2.272856916417924,-0.8656114778007798
2.2132005294120396,19.272340225484,-0.04007656823528771,2.2303228663187116,-0.8325396941988843
2.205640299950311,18.852505817999777,-0.03950479451975045,2.1889866861468263,-0.8012394714691855
2.1981909009648155,18.440416755623804,-0.03890993164336215,2.148792917810789,-0.7715718134172849
2.1908562781851777,18.035860929842592,-0.03829662393177327,2.1096894588335413,-0.7434115948071846
2.1836395544182055,17.638635836755252,-0.037668889404776244,2.0716273105068894,-0.7166459320554
2.176543140519906,17.248548009149307,-0.03703020426153424,2.0345603485030574,-0.6911727708250656
2.169568831459577,16.86541249024708,-0.03638357532087128,1.9984451136256223,-0.6668996585477098
2.162717889590096,16.48905234549053,-0.03573160225261615,1.9632406206538515,-0.6437426750395319
2.155991116918109,16.119298209098716,-0.0350765311367186,1.9289081834705055,-0.6216254986271813
2.14938891789936,15.755987862456493,-0.034420300639587,1.8954112548686703,-0.6004785887204724
2.142911354058837,15.398965841680777,-0.033764581892236856,1.862715279612568,-0.5802384686988352
2.136558191545531,15.04808307196658,-0.03311081298466669,1.8307875594842247,-0.560847095421495
2.130328942571318,14.70319652654296,-0.03246022884915557,1.7995971291854636,-0.5422513037147937
2.124222901547897,14.364168908272209,-0.03181388718685527,1.7691146420856023,-0.5244023159037849
2.118239176620808,14.030868352107468,-0.031172690993027323,1.7393122649116661,-0.507255307896249
2.1123767172019154,13.703168146786535,-0.030537408153209645,1.7101635805718394,-0.4907690245421061
2.1066343380186483,13.380946474285551,-0.02990868851275922,1.681643498385874,-0.4749054380179201
2.1010107401274163,13.064086165687275,-0.02928707876337079,1.653728171069657,-0.45962944385602517
2.0955045292780503,12.752474472236457,-0.028673035440480717,1.6263949178863302,-0.44490858997650085
2.09011423196428,12.446002850461,-0.028066936283418057,1.599622153434265,-0.43071283470898114
2.0848383094507765,12.144566760333337,-0.027469090174514262,1.5733893215937442,-0.4170143303276855
2.0796751700291036,11.848065475532916,-0.026879745843095895,1.5476768342001481,-0.40378722908167586
2.0746231797220314,11.55640190494892,-0.026299099494505797,1.5224660140524553,-0.3910075090952866
2.0696806716273333,11.269482424633196,-0.025727301502315163,1.4977390419025474,-0.37865281785106675
2.064850306115612,10.987217114862833,-0.02511865125264637,1.4734747451538865,-0.36545879824512306
2.0601342141992527,10.709519191228292,-0.02452442155113421,1.4496612931044572,-0.3528446273355772
2.05552967804894,10.436304470106975,-0.02394438003110514,1.426283139751497,-0.3407781472026247
2.051034025704104,10.167491656901891,-0.023378276230323847,1.403325420302017,-0.3292293206042729
2.0466446341665807,9.903002220176838,-0.02282584521729466,1.3807739136459198,-0.3181700688560281
2.042358931851549,9.642760272688832,-0.022286810730405126,1.358615007280453,-0.30757412375839566
2.0381744004824314,9.386692458869643,-0.021760887891887785,1.336835664500495,-0.2974168922144788
2.034088576505398,9.134727848342013,-0.021247785550563027,1.315423393685085,-0.28767533232446724
2.030099052089558,8.886797835087055,-0.02074720830038951,1.2943662195249865,-0.2783278398715479
2.0262034757705165,8.642836041907518,-0.020258858215837294,1.2736526560491013,-0.269354144226852
2.0223995527877228,8.402778229857514,-0.019782436339883643,1.2532716813193516,-0.2607352128012871
2.018685045159623,8.166562212333112,-0.01931764395590212,1.2332127136743576,-0.25245316326107614
2.015057771535089,7.934127773539913,-0.01886418367077772,1.213465589411963,-0.24449118280289725
2.011515606854715,7.705416591073874,-0.01842176033315401,1.1940205418095087,-0.23683345385488805
2.0080564818513307,7.480372162370035,-0.017990081807733174,1.1748681813888,-0.22946508563247464
2.0046783824153214,7.258939734790793,-0.017568859623947296,1.1559994773400508,-0.22237205103391786
2.0013793488471165,7.041066239141038,-0.017157809515048066,1.1374057400257738,-0.21554112841042572
1.9981574750163276,6.82670022641188,-0.016756651861678577,1.1190786044916927,-0.208959847790352
1.9950109074445037,6.615791807568023,-0.01636511205225713,1.1010100149173323,-0.20261644117699149
1.9919378443262956,6.408292596206191,-0.0159829207709863,1.0831922099440403,-0.1964997965753227
1.9889365345018695,6.204155653923333,-0.015609814222972909,1.06561770882287,-0.19059941543520695
1.9860052763917326,6.0033354382439015,-0.015245534304781472,1.0482792983290286,-0.18490537322743444
1.9831424169036447,5.805787752965259,-0.014889828727724246,1.0311700203935195,-0.17940828289497893
1.9803463503199827,5.611469700789286,-0.01454245110029674,1.014283160406209,-0.1740992609451961
1.9776155171727932,5.420339638116651,-0.014203160975382732,0.9976122361478541,-0.16896989596976142
1.9749512586663271,5.232552211519007,-0.013841665408470363,0.9790975175115594,-0.20466931956400136
1.9723521087143032,5.048272503517165,-0.013517807770729319,0.9606888825078207,-0.24171712837515458
1.9698110092367653,4.8674806183342945,-0.013230607782300372,0.9423835931013537,-0.2800121881361743
1.9673210921575373,4.69015717058684,-0.01297904568325687,0.9241790147665951,-0.31945513856589414
1.9648756864775827,4.516283265919796,-0.012762066737317836,0.9060726133075337,-0.3599481758841634
1.9624683245330716,4.345840482213244,-0.012578585310167225,0.8880619520245933,-0.4013948377051878
1.9600927475163958,4.178810851294575,-0.012427488549577051,0.8701446892245781,-0.4436997893977684
1.9577429103334856,4.015176841091382,-0.012307639691586035,0.8523185760721975,-0.4867686109865866
1.955412985866441,3.8549213381600147,-0.012217881014144033,0.8345814547843071,-0.5305075836467262
1.9530973687066948,3.698027630524283,-0.012157036456870433,0.8169312571707705,-0.574823474813801
1.9507906784206197,3.544479390757825,-0.012123913922866252,0.7993660035287999,-0.6196233208938569
1.9484877624067427,3.3942606592420113,-0.012117307275838301,0.7818838019008194,-0.6648142065099935
1.9461836984014425,3.247355827529045,-0.012135998043112174,0.7644828477093667,-0.7103030391656691
1.9438737966882689,3.1037496217369522,-0.012178756832400068,0.7471614237863612,-0.7559963181370535
1.9415536020647859,2.963427085899511,-0.01224434446741888,0.729917900818291,-0.8017998963275882
1.939218895620145,2.8263735651895843,-0.012331512844590671,0.7127507382335786,-0.8476187337259848
1.9368656963764528,2.6925746889288433,-0.012439005510065661,0.6956584855636756,-0.8933566410029778
1.9344902628474474,2.562016353290332,-0.012565557953148274,0.6786397843153984,-0.9389160116608345
1.932089094569059,2.4346847035924846,-0.012709897608836054,0.6616933703987873,-0.9841975410113752
1.929658933658157,2.3105661160741633,-0.01287074355855178,0.6448180771624724,-1.0290999301013593
1.927196766458245,2.189647179029482,-0.01304680591420699,0.6280128390973402,-1.0735195725267586
1.9246998253340855,2.071914673168692,-0.013236784866420515,0.6112766962793872,-1.1173502218777656
1.9221655906813442,1.9573555510568958,-0.013439369372960636,0.5946087996342562,-1.1604826373324604
1.9195917932223832,1.8459569154653082,-0.013653235458207605,0.5780084171193131,-1.2028042046670546
1.9169764166654404,1.7377059964501917,-0.013877044088557567,0.5614749409345476,-1.2441985296729365
1.914317700811727,1.632590126951726,-0.014109438582110397,0.5450078958913902,-1.284545000664214
1.9116141452035855,1.530596716678577,-0.01434904150358954,0.5286069490891225,-1.3237183164237787
1.9088645134169697,1.4317132240132366,-0.0145944509871018,0.5122719210723514,-1.3615879755720741
1.9060678381133038,1.3359271256376672,-0.014844236419909555,0.49600279867048863,-1.398017722953843
1.9032234269794923,1.2432258835375443,-0.01509693340968344,0.47979974975186296,-1.4328649482304026
1.9003308697007473,1.1535969089957732,-0.015351037945526688,0.46366314016152954,-1.465980031449527
1.897390046129251,1.067027523130836,-0.01560499964917248,0.44759355315358096,-1.4972056299599765
1.8944011358328776,0.9835049134719966,-0.01585721399686289,0.43159181167629557,-1.5263759006718176
1.8913646292326298,0.9030160859901457,-0.016106013374167335,0.4156590039221246,-1.5533156513811426
1.8882813405656143,0.8255478119191793,-0.016349656804942457,0.39979651261436955,-1.5778394147454748
1.8851524229428813,0.7510865686068584,-0.01658631817119497,0.3840060485679544,-1.5997504386141952
1.881979385808977,0.6796184735254052,-0.01681407271200765,0.36828968913156135,-1.6188395869355316
1.8787641151535308,0.6111292104498887,-0.01703088155584774,0.3526499221896691,-1.634884146598191
1.8755088968757305,0.5456039466771863,-0.01723457399994514,0.3370896964703701,-1.6476465376465614
1.8722164437616695,0.4830272400113955,-0.017422827200696964,0.3216124789589976,-1.6568729278127177
1.8688899266043175,0.4233829340871935,-0.017593142876692835,0.30622232024315454,-1.6622917579428087
1.865533010079217,0.3666540404483669,-0.01774282054541772,0.29092392858661414,-1.6636121937024468
1.8621498940902277,0.3128226056589227,-0.017868926707100906,0.2757227534075696,-1.6605225324658286
1.8587453614252438,0.2618695616222695,-0.017968259240098008,0.26062507855723477,-1.6526886148046178
1.8553248327219425,0.21377455725981775,-0.018037306057809184,0.24563812525806394,-1.639752320866552
1.8518944299544609,0.16851576981719063,-0.018072196757788227,0.23077016361168717,-1.621330278157735
1.8484610499397092,0.12606969442542493,-0.018068645502754315,0.21603062998585473,-1.597012976177748
1.8450324497701382,0.08641091130436962,-0.018021882597992173,0.2014302449726522,-1.5663645858079915
1.8416173466803654,0.049511831401105155,-0.017926570978565558,0.18698112243011963,-1.528923933009988
1.8382255357696127,0.015342423680515083,-0.017776701766199728,0.17269685357606948,-1.4842072995817772
1.8348680304358402,-0.016130068716208257,-0.017565459641931767,0.1585925400736199,-1.4317140490849816
1.8315572326794864,-0.04494140985523387,-0.017285043056529358,0.14468473507404786,-1.370936542754018
1.8283071441966783,-0.071130626505294,-0.01692641465724001,0.13099122966345902,-1.3013764609572644
1.8251336354041725,-0.09474019967080238,-0.016478941053347223,0.11753059313138836,-1.2225705075564428
1.8220547998981451,-0.11581613339808428,-0.015929853746940826,0.10432134083997366,-1.134129503844412
1.8190914391196462,-0.13440781525654444,-0.015263417605678816,0.09138057345960131,-1.035795828415826
1.8162677507019196,-0.150567553704974,-0.014459618370391916,0.07872193652386812,-0.9275242905344797
1.8136123414910768,-0.1643496596962919,-0.013492057533215416,0.06635286338474924,-0.8095890813219381
1.811159765499157,-0.17580896842500948,-0.012324531855414392,0.05427143902283487,-0.6827109904328648
1.8089529264741846,-0.18499884618335471,-0.010905352617980093,0.04246411632817386,-0.5481795985104227
1.8070469725016092,-0.1919691317806027,-0.00915732077755194,0.03090731101130019,-0.4079118238282443
1.8055161089529337,-0.19676537707052688,-0.006957032366398376,0.019579481514251113,-0.26435110224889885
1.8044679968250998,-0.19943314178844673,-0.004075726873959515,0.008502252358580637,-0.1201036011871374
