x,y,v_x,v_y,omega
2.375,32.48,0.0,2.6153846153846154,-2.36734693877551
2.3746336196422235,32.0138372609738,-0.004070892864181266,2.5642013737953597,-2.2477288717445427
2.3735787658634746,31.556745090412768,-0.007649704677475694,2.514600521327209,-2.1369062564438157
2.371918996276904,31.10844585265738,-0.010792179617752192,2.466502120399345,-2.034024877571088
2.3697284496102182,30.66867581347257,-0.013547227789867358,2.4198316483207245,-1.9383294433851261
2.367072992891647,30.237184207866374,-0.015957846860923153,2.374519525081476,-1.8491505124610075
2.3640112150095596,29.81373238826182,-0.0180619073844942,2.3305006927469325,-1.76589334873331
2.3605952892022293,29.398093044357477,-0.01989282380806245,2.2877142395235235,-1.6880283917255539
2.3568717234221377,28.990049487159,-0.021480129304070665,2.246103062681763,-1.6150830843173603
2.3528820145349894,28.58939499062906,-0.022849969442018395,2.2056135654286675,-1.5466348452107388
2.348663219839258,28.195932185219704,-0.024025527177217246,2.1661953835641943,-1.4823050096267136
2.3442484573333973,27.809472498245846,-0.02502738955457212,2.127801138367555,-1.4217535914063297
2.339667344439539,27.429835636652847,-0.025873864821628182,2.0903862126657713,-1.364674743945815
2.33494638345381,27.056849108241618,-0.02658125724202787,2.053908547458979,-1.3107928173179555
2.330109300785309,26.690347777855543,-0.027164105741319552,2.0183284568307793,-1.25985892535331
2.3251773460285285,26.33017345541547,-0.027635391556237645,1.9836084591700145,-1.2116479500370798
2.3201695560550926,25.976174513021725,-0.028006719259718028,1.9497131229827183,-1.165955921847858
2.31510298858362,25.628205528632385,-0.028288474867757867,1.9166089257877128,-1.1225977240457867
2.309992929069577,25.28612695408194,-0.02848996417716401,1.8842641247727938,-1.0814050767499246
2.30485307423218,24.949804805428258,-0.02861953401613379,1.8526486380458977,-1.0422247632024428
2.2996956950880043,24.61911037381351,-0.028684678696930376,1.8217339354513042,-1.0049170661232585
2.2945317819786735,24.29391995519945,-0.028692133628970575,1.7914929380382458,-0.9693543866939044
2.2893711737526705,23.97411459749261,-0.028647957771058948,1.7618999253711234,-0.9354200226216278
2.284222672980447,23.659579863712878,-0.028557606364758917,1.7329304499591933,-0.9030070850448886
2.279094148840521,23.350205609982055,-0.028425995189975486,1.7045612581610639,-0.8720175368489921
2.2739926291062584,23.04588577721871,-0.02825755741294321,1.6767702169872087,-0.8423613373474071
2.2689243824834877,22.74651819552436,-0.02805629395117221,1.6495362462833534,-0.8139556803180316
2.2638949923938854,22.452004400334147,-0.027825818155523242,1.6228392558301417,-0.7867243141203184
2.2589094231646047,22.16224945948475,-0.027569395503147333,1.5966600869409096,-0.7605969341053117
2.253972079467982,21.877161810423825,-0.027289978903771987,1.5709804581804976,-0.7355086388050356
2.2490868597537337,21.596653106849775,-0.02699024014343336,1.5457829148645112,-0.7113994424826989
2.2442572043278175,21.32063807412919,-0.02667259792230433,1.521050782030887,-0.6882138375679139
2.2394861386551486,21.049034372892002,-0.02633924288512499,1.4967681206045345,-0.6659004013143014
2.2347780581967975,20.781763134419766,-0.025972762207665034,1.4729123068647507,-0.6434774478370211
2.23013652016054,20.518748141009407,-0.02559988263964346,1.4494765088058976,-0.6220039321706738
2.2255625604418245,20.25991504862128,-0.025221892012748787,1.4264467399510874,-0.6014289998685691
2.221056995238626,20.00519197776604,-0.02483994357834545,1.4038096028849054,-0.5817050329111518
2.216620444084076,19.75450941029301,-0.024455069249988467,1.381552257926499,-0.5627874108535825
2.21225335061664,19.507800091639275,-0.024068191499299924,1.3596623937817027,-0.5446342919550847
2.2079560013171977,19.26499893819633,-0.023680134050058955,1.3381282000287924,-0.5272064124248732
2.203728542417803,19.026042949476324,-0.02329163149877063,1.316938341304619,-0.5104669021113037
2.1995709951651263,18.790871124782708,-0.02290333797541547,1.2960819330689004,-0.4943811151311919
2.195483269602264,18.559424384111406,-0.022515834945277764,1.2755485188344469,-0.47891647408765015
2.1914651770154556,18.331645493027892,-0.02212963824148151,1.2553280487601726,-0.4640423266595543
2.1875164411770083,18.107478991283394,-0.02174520440793229,1.2354108595120068,-0.4497298134658541
2.18363670850217,17.886871124949923,-0.02136293642360288,1.2157876553043263,-0.43595174621511595
2.179825557225623,17.66976978186881,-0.020983188871363294,1.1964494900413793,-0.4226824952464287
2.176082505692506,17.456124430221486,-0.020606272607715595,1.1773877504844172,-0.40989788565344354
2.1724070198492753,17.245886060044057,-0.020232458983739685,1.1585941403759474,-0.3975751012600011
2.168798520011141,17.039007127519024,-0.01986198366219255,1.1400606654577357,-0.38569259578454573
2.165256386975159,16.835441501888674,-0.01949505007094659,1.1217796193239489,-0.3742300105922201
2.1617799675411877,16.635144414844547,-0.019131832528729898,1.1037435700551974,-0.3631680984889618
2.158368579496818,16.43807241225709,-0.01877247907537899,1.0859453475832328,-0.3524886530617722
2.155021516116841,16.24418330811802,-0.01841711403547709,1.0683780317397293,-0.34217444311420614
2.151738050222933,16.05343614057631,-0.018065840341279935,1.0510349409459445,-0.33220915178657756
2.148517437844781,15.865791129955891,-0.017718741638183662,1.0339096215031496,-0.32257731998685957
2.145358921519918,15.681209638650415,-0.01737588419362819,1.016995837446571,-0.3132642937912048
2.1422617332659515,15.499654132796685,-0.01703731862822207,1.0002875609282,-0.3042561755027885
2.139225097255672,15.321088145634484,-0.016703081485991846,0.983778963096245,-0.2955397780846183
2.1362504582796653,15.14570098853223,-0.016348462691865226,0.9649672269287767,-0.33640671124629795
2.1333361716779433,14.973690917386968,-0.016032499549486573,0.9462557857963475,-0.37834615231828317
2.1304753920946466,14.805040100625941,-0.015753940264920722,0.9276421782150405,-0.4212601574072167
2.1276615013188027,14.639731141167978,-0.01551151280001425,0.9091240379845625,-0.46505193020824875
2.1248881116654768,14.477747059464676,-0.015303927792494072,0.8906990920521195,-0.5096256089755824
2.122149068860659,14.31907127689566,-0.015129881149928573,0.8723651587147365,-0.5548860532297951
2.1194384544870464,14.163687599456605,-0.014988056334653957,0.8541201461636551,-0.6007386292432516
2.116750588045046,14.01158020167792,-0.01487712635424014,0.8359620513772931,-0.6470889933094691
2.1140800286809034,13.862733610710453,-0.014795755469565538,0.8178889593723273,-0.6938428717582407
2.111421576631937,13.71713269051262,-0.014742600630063475,0.7998990428257985,-0.7409058366249794
2.108770274437346,13.574762626070665,-0.01471631264316788,0.7819905620848021,-0.7881830758193379
2.1061214079620454,13.435608907580441,-0.014715537082394496,0.7641618655843727,-0.8355791565637696
2.1034705072804067,13.299657314514967,-0.014738914935815372,0.7464113906986737,-0.8829977807863185
2.1008133474667336,13.16689389949708,-0.01478508299388643,0.7287376650556459,-0.9303415310523795
2.0981459493397465,13.037304971890485,-0.014852673972634236,0.7111393083509445,-0.9775116055061899
2.095464580209354,12.910877081015592,-0.014940316365059375,0.6936150347034192,-1.0244075401629695
2.0927657546755785,12.787596998888134,-0.015046634010226123,0.676163655601687,-1.0709269167453739
2.0900462355317333,12.66745170236901,-0.015170245365832679,0.6587840834996733,-1.116965054091624
2.087303034826865,12.550428354602474,-0.015309762466038278,0.6414753361285115,-1.1624146809755955
2.0845334151461503,12.436514285606627,-0.015463789541901689,0.62423654160311,-1.2071655879695504
2.081734891172459,12.325696971865064,-0.01563092127689029,0.6070669444142418,-1.2511042557464094
2.0789052315977363,12.217964014750752,-0.0158097406644718,0.5899659124114469,-1.2941134569590158
2.07604246145935,12.113303117592839,-0.015998816428712107,0.5729329448986887,-1.3360718285476973
2.0731448649841884,12.011702061173406,-0.01619669996197108,0.5559676819838891,-1.3768534110142288
2.070210989032262,11.913148677413751,-0.016401921726096634,0.539069915345605,-1.4163271508608941
2.067239647241979,11.817630820978142,-0.016612987054831954,0.5222396006056194,-1.4543563620303728
2.0642299249913654,11.725136338486333,-0.016828371285316092,0.5054768715255812,-1.490798141801074
2.061181185303502,11.635653034983871,-0.017046514135392796,0.4887820562795435,-1.5255027362028974
2.0580930758405502,11.549168637270359,-0.017265813230732428,0.4721556960928157,-1.5583128496359566
2.054965537149371,11.465670753629677,-0.017484616671260726,0.4555985665814215,-1.589062893024373
2.051798812343079,11.38514682944151,-0.01770121450976274,0.4391117021759815,-1.6175781645568605
2.0485934584275243,11.307584098079452,-0.017913828996398956,0.4226964240691139,-1.6436739569128604
2.0453503595099827,11.232969526416479,-0.018120603420729735,0.40635437218613235,-1.667154584932969
2.042070742159985,11.161289754162784,-0.018319589357024282,0.3900875417438294,-1.6878123280918405
2.0387561932299136,11.092531026153218,-0.018508732088211157,0.3738983250291412,-1.7054262830569906
2.0354086804866998,11.02667911658212,-0.018685853947498318,0.3577895590941725,-1.7197611233415646
2.0320305764568976,10.963719244052943,-0.01884863527252604,0.34176458011891947,-1.7305657659844944
2.0286246859472903,10.903635976171941,-0.018994592611999202,0.325827285225558,-1.7375719499060658
2.0251942777743004,10.846413122275017,-0.019121053754553294,0.30998220251805064,-1.7404927379542943
2.0217431213212627,10.792033612745186,-0.01922512905697778,0.2942345700356299,-1.7390209659460703
2.0182755286481258,10.740479363273227,-0.019303678422321086,0.2785904240972583,-1.7328276790818198
2.014796403011205,10.691731122365788,-0.01935327309902429,0.26305669709650537,-1.7215606217179842
2.011311294823477,10.645768300461835,-0.019370151209063463,0.24764132405852612,-1.7048428846564179
2.007826466318352,10.60256877925633,-0.019350165514545964,0.23235335600263016,-1.682271870786847
2.0043489665039695,10.562108700369276,-0.019288721311927822,0.21720307607573563,-1.6534188237772773
2.000886718463895,10.524362233523519,-0.01918070135556313,0.2022021110993475,-1.6178292881365899
1.9974486217618255,10.489301326187544,-0.019020373111877344,0.18736352596703815,-1.5750250503454288
1.994044673790319,10.456895439620528,-0.01880127101597376,0.1727018803331237,-1.5245083747965122
1.9906861156152718,10.42711128103786,-0.018516042040107643,0.15823321502986232,-1.4657697277854784
1.987385610627399,10.399912549048036,-0.01815623560292103,0.14397491819039704,-1.398300716358757
1.9841574688226669,10.3752597206921,-0.017712006671881077,0.1299453968755739,-1.3216146903361325
1.981017936969173,10.353109924533445,-0.017171680589162824,0.11616344933170203,-1.2352783622848449
1.9779855872150522,10.33341696601283,-0.016521094456621706,0.10264720089736612,-1.1389587701010364
1.975081856998189,10.31613159738616,-0.015742574619638443,0.08941245051009072,-1.0324905161831963
1.9723318264987735,10.301202148041263,-0.014813319818309524,0.07647031998876144,-0.9159673769955758
1.969765374696442,10.288575631895146,-0.01370281131870649,0.06382430385698476,-0.7898577659435158
1.96741894719747,10.278199381437766,-0.01236860533654031,0.0514673678916722,-0.655131174999655
1.9653383388347718,10.270023035100426,-0.010749265360105436,0.039380924745429036,-0.5133582478256173
1.9635832844743044,10.264000173240326,-0.008751338645088529,0.027539762588994654,-0.366711996567141
1.9622359004938095,10.26008770799353,-0.006219594471521157,0.01593207348650052,-0.21777048422198644
1.9614210347437413,10.258237268200467,-0.0028344694181248143,0.0046283686586683186,-0.06904240676119461
