x,y,v_x,v_y,omega
2.375,32.48,0.0,2.717948717948718,-3.1020408163265305
2.3741590858378117,31.86236141540688,-0.007312297062507099,2.652821582860986,-2.9002372980967928
2.371763521226614,31.259393631311603,-0.01351869955660501,2.590376539706655,-2.7180286289004814
2.3680492825453787,30.670499988171862,-0.018779028106308625,2.5304377484649976,-2.5529472337297374
2.3632184620302974,30.09512246413543,-0.02322810680744071,2.4728450692431037,-2.4028926224222618
2.3574445235399932,29.532738274804693,-0.026980053977812835,2.417452229285035,-2.266069357550257
2.350876664218736,28.982856863282855,-0.030131766207035046,2.364125262209215,-2.1409366898223947
2.3436434485701767,28.44501722362665,-0.03276576117173999,2.3127411695838807,-2.026167448568134
2.3358558476413687,27.918785511056797,-0.03495250777441721,2.2631867658061573,-1.92061431870638
2.3276097896656727,27.403752900316995,-0.036752344188158176,2.21535767540951,-1.823282046558366
2.318988307838479,26.899533659960262,-0.0382170630048275,2.1691574581272706,-1.7333044299702742
2.310063354578483,26.40576341546777,-0.03939122621253149,2.1244968418074452,-1.6499251885711348
2.3008973386695097,25.9220975782576,-0.04031325995245084,2.0812930469766484,-1.572481995799256
2.29154443133624,25.44820992103344,-0.04101636903250269,2.0394691897552115,-1.500393098900965
2.2820516790128362,24.983791282717217,-0.04152930334492166,1.9989537521249645,-1.4331460662726074
2.272459953880586,24.528548388528222,-0.04187700215290779,1.9596801103880421,-1.3702882906047829
2.2628047678428014,24.082202772708104,-0.04208113730608911,1.921586114134707,-1.3114189467941835
2.2531169712112464,23.64448979302007,-0.04216057253351933,1.8846137092395014,-1.2561821596695464
2.2434233537943586,23.215157727527952,-0.04213175283072177,1.8487085993876073,-1.2042611813977309
2.233747163143434,22.79396694533249,-0.04200903543818809,1.8138199414425267,-1.1553734144169825
2.2241085523024626,22.380689143943343,-0.04180497187460805,1.779900070636984,-1.109266144754076
2.214524967420361,21.97510664682533,-0.041530548839318254,1.7469042521283615,-1.0657128740667925
2.205011483941266,21.57701175539872,-0.041195394457160965,1.7147904559291192,-1.024510157839723
2.195581098725632,21.186206150415778,-0.04080795524400571,1.6835191526181923,-0.9854748727315705
2.1862449843210165,20.802500338193624,-0.04037564827438843,1.6530531275744595,-0.9484418488194672
2.1770127106554367,20.42571313767032,-0.03990499229586834,1.6233573117585922,-0.9132618129581851
2.1678924386347598,20.055671204677044,-0.03940172092741088,1.594398627313386,-0.8797995981041261
2.1588910894617386,19.692208590192884,-0.0388708805771193,1.5661458464619056,-0.8479325805918749
2.1500144929360405,19.335166329678025,-0.03831691529851776,1.5385694623629909,-0.8175493132717505
2.14126751752396,18.984392060871237,-0.03774374045870164,1.5116415707394824,-0.7885483273424704
2.1326541845888185,18.63973966769479,-0.0371548068034003,1.485335761229635,-0.7608370798227908
2.1241932466478977,18.301070445023576,-0.0364185665959107,1.459614001128745,-0.7306670667120279
2.1159013178307533,17.968251187390464,-0.035685162248823225,1.434466500028733,-0.7020364711937455
2.1077775561031173,17.641152410622865,-0.03495624407844748,1.409870689254758,-0.6748469025266913
2.0998207680799332,17.31964968956443,-0.03423321699272011,1.3858051460360166,-0.6490074479995159
2.0920294619517454,17.003623402885488,-0.03351727107847632,1.3622495207373522,-0.624434015443942
2.084401893814543,16.692958493997693,-0.0328094083754591,1.3391844695913169,-0.6010487411787078
2.0769361082231015,16.38754424686318,-0.03211046633272841,1.3165915924479483,-0.5787794561314754
2.0696299736816997,16.087274075594273,-0.031421138375113886,1.294453375107743,-0.5575592037701949
2.062481213694401,15.792045326834575,-0.030741991949220605,1.2727531358461386,-0.5373258042423024
2.055487433917837,15.50175909399804,-0.030073484368726627,1.251474975775897,-0.5180214597864444
2.04864614589079,15.216320042520124,-0.02941597673603127,1.2306037327277117,-0.49959239706140685
2.0419547877553708,14.935636245345076,-0.02876974618065518,1.2101249383596435,-0.48198854254267326
2.0354107423329206,14.659619027936916,-0.028134996623259148,1.1900247782330498,-0.46516322757880685
2.029011352872843,14.388182822159173,-0.027511868246981385,1.1702900546169,-0.4490729200863865
2.0227539367534897,14.12124502842076,-0.0269004458343534,1.1509081518040873,-0.4336769802009973
2.0166357973801414,13.858725885532863,-0.026300766107803,1.1318670037428489,-0.41893743749915097
2.0106542344954077,13.600548347764981,-0.025712824194230967,1.113155063803935,-0.4048187876674641
2.00480655309139,13.346637968627736,-0.025136579318968014,1.0947612765199526,-0.39128780672563956
1.9990900710902648,13.096922790945975,-0.024571959821249913,1.076675051147537,-0.37831338111281015
1.9935021259400514,12.851333242818686,-0.024018867571910716,1.0588862369158432,-0.36586635212609275
1.9880400802549163,12.60980203909217,-0.0234771818640468,1.0413850998364618,-0.35391937335875995
1.9827013266140954,12.372264088000534,-0.022946762838743428,1.0241623009603582,-0.34244677992585554
1.9774832916200933,12.138656402652742,-0.02242745450040569,1.007208875976952,-0.3314244683896072
1.972383439305037,11.908918017068597,-0.02191908736964678,0.9905162160590814,-0.32082978640756515
1.9674033930335355,11.683092795633407,-0.02138566281732318,0.9731813616382237,-0.3286136193735406
1.962543037413175,11.461239850937655,-0.020878299098855777,0.9559746791944046,-0.33876013641804553
1.9577963244928323,11.243330144863027,-0.02039746542586441,0.9388923301502008,-0.35114045459431564
1.9531571156407128,11.029335504029223,-0.01994348111430425,0.9219306336219986,-0.36562986506017425
1.9486192145317542,10.819228584386316,-0.01951652852881336,0.9050860589250287,-0.38210753296576316
1.9441763972769772,10.612982837466959,-0.019116664990985667,0.8883552186346084,-0.400456209550363
1.9398224399240749,10.410572478174068,-0.018743833729904708,0.871734862173154,-0.42056195522586376
1.9355511435412551,10.211972453986132,-0.01839787394678814,0.8552218698958621,-0.44231387247796583
1.9313563570805203,10.017158415468227,-0.018078530059601552,0.8388132476511313,-0.4656038474614164
1.9272319982020518,9.826106687981941,-0.017785460187951355,0.8225061217948405,-0.4903262992028276
1.923172072228095,9.63879424449187,-0.017518243933413016,0.8062977346405511,-0.5163779353540837
1.9191706893826028,9.455198679370188,-0.0172763895056493,0.7901854403305798,-0.5436575134611592
1.915222080461832,9.27529818310386,-0.017059340240183334,0.7741667011157389,-0.5720656067273799
1.9113206110710212,9.099071517811595,-0.016866480549475354,0.7582390840343879,-0.6015043732567307
1.9074607945531596,8.926497993479444,-0.016697141344974385,0.7424002579843162,-0.6318773277616153
1.9036373037276226,8.757557444825096,-0.01655060496404295,0.7266479911839286,-0.6630891147103117
1.8998449815490717,8.592230208701384,-0.016426109632051118,0.7109801490222544,-0.6950452818719148
1.8960788507904414,8.430497101949268,-0.016322853486473825,0.6953946923005081,-0.7276520531904551
1.8923341228480528,8.272339399609507,-0.016239998186470515,0.6798896758713305,-0.7608160998846009
1.8886062057618718,8.117738813400472,-0.016176672128146795,0.6644632476854844,-0.7944443086243214
1.8848907115396518,7.966677470366772,-0.016131973282461434,0.6491136482597397,-0.8284435455803897
1.8811834628701747,7.819137891599741,-0.016104971669515137,0.6338392105840135,-0.8627204150758173
1.8774804993080143,7.675102970926158,-0.01609471147970501,0.6186383604906096,-0.8971810114893118
1.873778083010223,7.5345559534556585,-0.016100212848913394,0.6035096175137271,-0.9317306629685671
1.8700727041040777,7.3974804138701415,-0.016120473291482258,0.5884515962733625,-0.9662736654044768
1.8663610857645736,7.2638602343298935,-0.016154468791161572,0.5734630084244452,-1.0007130049949222
1.8626401890807465,7.133679581860822,-0.0162011545464654,0.5585426652196468,-1.034950067587278
1.8589072177911725,7.006922885075124,-0.016259465362871504,0.5436894807429489,-1.0688843328307749
1.8551596229712422,6.883574810063379,-0.016328315680001766,0.5289024758809187,-1.1024130509919743
1.8513951077580573,6.763620235279433,-0.01640659921725865,0.5141807831099322,-1.1354309000875
1.8476116322031984,6.647044225219879,-0.016493188216295473,0.49952365219053807,-1.1678296207667669
1.8438074183492197,6.5338320026773395,-0.016586932253085464,0.4849304568750352,-1.1994976261330506
1.8399809556327094,6.423968919320291,-0.016686656586134826,0.47040070275145884,-1.2303195834239142
1.8361310067252514,6.317440424321685,-0.016791160000454518,0.4559340363668594,-1.2601759641829098
1.8322566139337977,6.214232030723025,-0.016899212099144273,0.44153025579540855,-1.288942559246576
1.8283571062940394,6.114329279179625,-0.01700954998571188,0.42718932284286837,-1.3164899545496709
1.8244321075045877,6.017717698685189,-0.017120874270388498,0.41291137710874193,-1.3426829634269295
1.820481544866404,5.924382763819125,-0.017231844322513797,0.39869675216139117,-1.3673800107769232
1.816505659411308,5.834309847996774,-0.01734107267832006,0.3845459941199169,-1.390432464176957
1.812505017425933,5.747484172130299,-0.017447118498854688,0.37045988297986915,-1.4116839068341125
1.808480523603627,5.663890748024809,-0.0175484799559817,0.3564394570678692,-1.4309693471816352
1.8044334360871233,5.583514315739816,-0.017643585404920267,0.34248604106250746,-1.4481143600637494
1.8003653836999756,5.506339274039092,-0.017730783178972167,0.32860127807421535,-1.462934154916449
1.7962783857056608,5.432349602932291,-0.017808329815068344,0.31478716633276504,-1.4752325673244293
1.79217487448101,5.361528777179451,-0.017874376486242984,0.30104610108322344,-1.4848009720755468
1.7880577215467124,5.2938596694866895,-0.017926953377214127,0.2873809223320994,-1.4914171187256762
1.7839302674640973,5.229324441971684,-0.017963951689005195,0.2737949691027208,-1.494843895287989
1.779796356187115,5.167904424329112,-0.01798310289344898,0.2602921408326724,-1.4948280327919925
1.7756603745556716,5.109579976992201,-0.017981954771276266,0.24687696644482257,-1.4910987743238309
1.7715272977376042,5.054330337490338,-0.01795784364670356,0.23355468139746413,-1.483366548531026
1.7674027415815554,5.002133448181642,-0.017907862058068793,0.2203313125912026,-1.4713217120557927
1.76329302304748,4.952965763653605,-0.017828820846933137,0.20721377026128907,-1.4546334617785328
1.759205230160715,4.906802036429401,-0.017717204255372373,0.19420994473178096,-1.432949071719284
1.7551473033306175,4.863615080339478,-0.017569116006344816,0.18132880387624692,-1.4058936891452694
1.7511281304535298,4.823375512244358,-0.017380213359634893,0.16858048390742328,-1.3730710416809582
1.74715765909496,4.7860514750677225,-0.017145624540971512,0.15597636110679122,-1.3340655787403273
1.7432470304057768,4.7516083488266965,-0.01685984232149311,0.14352908446735715,-1.2884468192751883
1.7394087415876585,4.720008462258001,-0.016516582183882404,0.13125253786912114,-1.2357770329446023
1.735656847213364,4.691210826729385,-0.016108586288243295,0.11916168411884914,-1.175623875840313
1.7320072154113966,4.665170927625624,-0.015627342424516116,0.10727222113124313,-1.1075802577231304
1.728477864305505,4.641840627516434,-0.015062667191933056,0.09559995373127532,-1.0312945123620345
1.725089419546642,4.6211682604933735,-0.014402069841659293,0.08415975951271976,-0.9465147189208507
1.7218657591285842,4.603099025412867,-0.01362975988058153,0.07296402379602407,-0.8531512978666649
1.7188349530778853,4.587575806832952,-0.012725075342888767,0.062020485594533506,-0.7513606147580112
1.716030673372146,4.574540538369636,-0.011659965576582835,0.05132967495603437,-0.6416469286124622
1.7134943645505853,4.563936114041997,-0.010394893741335025,0.040882710501691795,-0.524966966515408
1.7112786876059094,4.55570853827167,-0.008871862299325878,0.030661426631597915,-0.4027976818675265
1.7094533070174833,4.549808289488912,-0.007001012382640448,0.020645084522833826,-0.27709778639241595
1.708116073866595,4.5461881996663465,-0.004627101972909283,0.010833957412528107,-0.15007820402898345
1.7074238538281103,4.5447882971282745,-0.0013922027095672617,0.001339108135908651,-0.02374291883648122
