x,y,v_x,v_y,omega
2.375,32.48,0.0,2.2051282051282053,-7.142857142857143
2.3735305817174273,31.978217013437735,-0.012777550283241679,2.158202112804513,-6.753982207192233
2.3693095766293073,31.48703100539004,-0.02392684178736686,2.112980565871079,-6.396247440715579
2.3626887154706098,31.006062751339414,-0.03364586394043703,2.0693520780474066,-6.066327380829932
2.3539772761331936,30.534957396204618,-0.04210578247187782,2.0272162274725782,-5.761328424890128
2.343447773507415,30.073382085326926,-0.04945510992619974,1.9864821279856173,-5.478722942463584
2.3313407762956695,29.621023916464907,-0.05582312669767076,1.9470671664667003,-5.216295008730791
2.3178690053388813,29.17758815783144,-0.061322707709184646,1.9088959520851818,-4.97209541853589
2.303220836515661,28.742796688243484,-0.06605267336229806,1.8718994356361944,-4.744404171849181
2.287563307085203,28.316386624007933,-0.070099756467769,1.8360141664120864,-4.53169901869563
2.2710447055621548,27.89810910384712,-0.07354025677612784,1.801181661073252,-4.33262895192284
2.2537968104828674,27.487728208424272,-0.07644143956550228,1.7673478643427776,-4.14599176547838
2.2359368317671833,27.085019995195356,-0.07886272317957634,1.7344626854738954,-3.9707149725736612
2.2175690990789394,26.689771632637708,-0.08085669150080549,1.7024795976360902,-3.805839515478089
2.198786534108206,26.301780620575606,-0.08246996041861863,1.6713552898604298,-3.650505806339394
2.179671937639133,25.920854085480077,-0.08374392192114534,1.6410493631441947,-3.5039417234313377
2.160299117326543,25.546808141374182,-0.08471538514485377,1.6115240638635664,-3.3654522548277988
2.140733878050909,25.17946730840931,-0.08541713029544157,1.5827440488744378,-3.234410535612861
2.1210348933769576,24.818663982357158,-0.08587838860848193,1.55467617766602,-3.110250068318724
2.101254473867316,24.46423794923735,-0.08612525930144392,1.5272893277236206,-2.992457951588642
2.0814392456909236,24.116035940110983,-0.08618107266718567,1.5005542298969747,-2.8805689708175577
2.061630751030734,23.77391122174741,-0.08606670698663804,1.4744433210905885,-2.774160428062708
2.041907743439172,23.437735876749528,-0.08543770685302958,1.4488205484562435,-2.6642149006310416
2.02234023105411,23.10738706111629,-0.0847145747562106,1.4237778483544867,-2.5598910216165542
2.0029484574203513,22.782734069549797,-0.08390954379820993,1.399291643528097,-2.460827945908914
1.9837500027258295,22.46365147326987,-0.0830335405019806,1.3753396284712758,-2.3666924492322634
1.9647600681081208,22.15001883770422,-0.08209632573896414,1.351900680795235,-2.277176471900912
1.945991729401078,21.841720459686407,-0.08110661953966766,1.328954780229223,-2.1919949113479644
1.9274561638001118,21.53864512249661,-0.08007221177308303,1.3064829344646507,-2.1108836351177818
1.9091628524984616,21.24068586725133,-0.079000060415179,1.284467111146471,-2.033597689596782
1.8911197619772346,20.9477397792986,-0.07789637889983886,1.262890175398996,-1.9599096828398581
1.8733335063108516,20.659707788408042,-0.07676671385131668,1.2417358323450223,-1.8896083225083977
1.855809492569949,20.376494481662355,-0.07561601433044474,1.2209885741392041,-1.8224970922345265
1.8385520511598785,20.098007928060937,-0.07444869358321402,1.2006336310905201,-1.758393051718136
1.8215645527198168,19.82415951393853,-0.07326868415645266,1.1806569264956193,-1.6971257475933748
1.804849513020931,19.55486378838426,-0.07207948713820489,1.1610450348458268,-1.6385362236071832
1.788408687138463,19.290038317919745,-0.07088421618760514,1.141785143106479,-1.5824761199659483
1.7722431540289634,19.029603549760644,-0.06968563693847889,1.1228650147987587,-1.5288068528543053
1.7563533925175918,18.773482683044968,-0.06848620229083854,1.1042729566419234,-1.4773988661353068
1.740739349589154,18.521601547464243,-0.0672880840434034,1.0859977875382654,-1.428130948123016
1.725400501778457,18.273888488781296,-0.06609320126700612,1.0680288097047572,-1.380889607093561
1.7103359103689495,18.030274260761185,-0.0649032457721894,1.050355781774483,-1.3355684998829505
1.6955442710320408,17.790691923080704,-0.06371970498353915,1.0329688937079593,-1.2920679085215878
1.6810239584717133,17.555076744816787,-0.06254388249756816,1.0158587433695692,-1.2502942603868108
1.6667730665789897,17.323366113145937,-0.061376916569594306,0.9990163146378263,-1.2101596878248684
1.6527894445475262,17.09549944691561,-0.06021979674747903,0.9824329569302179,-1.171581623610228
1.6390826168058905,16.8715564672815,-0.05897000970152791,0.9648973007577257,-1.1583230923460928
1.6256593452274413,16.651630506470077,-0.05775409098063914,0.9475023584720307,-1.1480431055302247
1.6125117910155469,16.43568971195741,-0.056572467383659945,0.9302436807685532,-1.1405814517033468
1.5996320366413128,16.223703231523864,-0.055425396740115256,0.9131170186535634,-1.1357836169849131
1.5870121230280008,16.015641168343514,-0.05431298250607419,0.8961183133494645,-1.1335003804710075
1.574644083512275,15.811474538306076,-0.05323518719589059,0.8792436869760777,-1.1335874290521533
1.5625199748398622,15.611175229398317,-0.052191844738132535,0.8624894339609464,-1.135904989822056
1.550631905433749,15.414715962982086,-0.05118267183676494,0.8458520131367152,-1.1403174783570547
1.5389720611551434,15.2220702568152,-0.0502072784119797,0.8293280404883626,-1.1466931612412397
1.5275327287610403,15.033212389669526,-0.04926517718891787,0.8129142825175143,-1.1549038312947513
1.5163063172471776,14.848117367407554,-0.04835579249684286,0.7966076501952989,-1.1648244940334975
1.5052853772513948,14.666760890384978,-0.047478468336052355,0.7804051934792631,-1.1763330639480587
1.4944626186797836,14.489119322051877,-0.04663247576491473,0.7643040963737923,-1.189310069238439
1.4838309267065117,14.3151696586294,-0.04581701965484148,0.7483016725173222,-1.2036383636799821
1.4733833762876818,14.144889499742316,-0.04503124485672233,0.7323953612834271,-1.2192028443245013
1.4631132453200522,13.978257019890254,-0.04427424181831854,0.7165827243866688,-1.2358901737597197
1.453014026566791,13.815250940642173,-0.04354505168829909,0.700861442987938,-1.2535885056595677
1.4430794384646537,13.655850503439293,-0.04284267093898171,0.68522931529796,-1.2721872123578053
1.4333034349199876,13.50003544289163,-0.042166055536375445,0.6696842546817259,-1.291576613167772
1.4236802141947842,13.347785960452079,-0.04151412468278411,0.6542242882708912,-1.3116477021517239
1.414204226978555,13.199082698349915,-0.04088576415399057,0.638847556095734,-1.332291874014013
1.4048701837371111,13.053906713662297,-0.04027982924987102,0.6235523107531246,-1.3534006467531123
1.3956730614253479,12.912239452397984,-0.039695147374157275,0.608336917632222,-1.374865379657944
1.3866081096478864,12.774062723461864,-0.039130520255941534,0.5931998557253392,-1.3965769851739154
1.3776708563488804,12.639358672361812,-0.038584725822372566,0.5781397190577074,-1.418425633093314
1.3688571131104967,12.508109754510844,-0.03805651972878938,0.5631552187768077,-1.4403004454431902
1.3601629801385229,12.380298707967302,-0.03754463654924452,0.5482451859496353,-1.4620891803516365
1.351584851013261,12.25590852544374,-0.03704779062694487,0.533408575124835,-1.48367790307083
1.3431194172844,12.13492242540087,-0.03656467658054197,0.5186444687262134,-1.5049506422231218
1.3347636729899228,12.017323822026547,-0.03609396945838997,0.5039520823548447,-1.525789029216232
1.3265149191813954,11.903096293880509,-0.035634324528805494,0.4893307710889668,-1.54607191864757
1.3183707685412385,11.792223550963588,-0.03518437668995084,0.47478003688427695,-1.565674987389408
1.3103291501819068,11.68468939994479,-0.03474273947815086,0.4602995371922047,-1.5844703099215351
1.3023883147223805,11.58047770725069,-0.034308003648163936,0.44588909493040224,-1.6023259073640657
1.2945468397441398,11.479572359688508,-0.03387873529305985,0.43154870995812716,-1.6191052675718398
1.286803635736987,11.381957222236938,-0.03345347346479136,0.4172785722294268,-1.6346668335999155
1.2791579526548862,11.28761609259637,-0.03303072724912783,0.4030790768189801,-1.6488634578606025
1.2716093872136194,11.19653265204272,-0.03260897224014908,0.3889508410388451,-1.6615418193996883
1.2641578910757856,11.108690412076058,-0.032186646349710066,0.3748947238886641,-1.6725418019699614
1.2568037800848497,11.024072656296656,-0.031762144875818424,0.36091184810612315,-1.681695831039933
1.2495477447290064,10.942662376877141,-0.03133381474021113,0.3470036251070522,-1.688828168637519
1.2423908620381643,10.864442204930693,-0.030899947788850485,0.3331717831229214,-1.6937541661224804
1.235334609144165,10.78939433400339,-0.030458773028534815,0.3194183988536428,-1.696279476790109
1.2283808787665027,10.717500435846038,-0.03000844764679039,0.30574593294942887,-1.6961992328881115
1.221531996924859,10.648741567551959,-0.0295470466283719,0.29215726960777166,-1.693297195538547
1.214790743227891,10.583098069088805,-0.02907255073656752,0.2786557605066078,-1.687344891702452
1.2081603741481213,10.520549450215768,-0.02858283256577913,0.2652452731719805,-1.678100760417014
1.201644649770237,10.461074265779185,-0.028075640285388337,0.2519302436678594,-1.6653093420727365
1.1952478646017355,10.404649978444777,-0.027548578571148192,0.23871573315309302,-1.6487005608836902
1.1889748831714855,10.351252808091338,-0.026999086039722155,0.2256074873115848,-1.6279891739023016
1.182831181330002,10.300857567414567,-0.026424408234045977,0.21261199683425866,-1.6028744926792966
1.1768228944306023,10.253437483852004,-0.025821564804212632,0.1997365558836907,-1.573040529752132
1.170956873952803,10.20896400885901,-0.025187308915782407,0.18698931362062132,-1.538156786711673
1.165240754690073,10.167406617008535,-0.024518075977521005,0.1743793111661241,-1.4978799904885356
1.1596830354597016,10.128732599588123,-0.02380991733005498,0.1619164924896265,-1.4518572084281338
1.1542931775533811,10.092906860641513,-0.023058412290123276,0.14961167226351424,-1.3997309409331693
1.1490817270669642,10.059891728154092,-0.022258548461328086,0.13747643632275572,-1.3411470130551408
1.1440604701882682,10.029646799783254,-0.02140455483168156,0.12552294081496182,-1.2757663686334997
1.1392426350359475,10.002128851629614,-0.02048966388414988,0.11376356486885388,-1.2032822014122724
1.1346431605639007,9.97729185018612,-0.019505766307561612,0.10221036072675126,-1.1234441854158084
1.1302790636064195,9.95508712104947,-0.018442902887926126,0.09087424046151049,-1.036091751605991
1.1261699511306549,9.935463740362763,-0.017288509944810043,0.07976385246637042,-0.9411980864304117
1.1223387488179308,9.91836921900034,-0.01602629277453021,0.06888415938078755,-0.8389251922525933
1.1188127534886543,9.903750529856751,-0.01463453617570057,0.05823487665041499,-0.7296869450862672
1.1156251745228223,9.891555457093808,-0.013083541788056173,0.04780923433169499,-0.6142103588389326
1.1128174334493341,9.881734077198239,-0.011331597981405832,0.03759406910805203,-0.4935746449703341
1.1104427275920807,9.874239843551852,-0.009318018168623533,0.027573179990957482,-0.3691954922162676
1.1085720700109576,9.869029072140393,-0.0069485694933175204,0.017737875760858918,-0.24271589095094723
1.107306838830779,9.86605577104034,-0.004053440769104704,0.008116916413500729,-0.11577563811025979
