x,y,v_x,v_y,omega
2.375,32.48,0.0,3.846153846153846,-2.2448979591836737
2.3742554549111734,31.684021544051845,-0.007090905607873281,3.734593353352375,-2.060518204846737
2.372162266524831,30.91085509275363,-0.012844221881103297,3.628896659011589,-1.8991452731980978
2.368975728722269,30.159318674330184,-0.017503757190913426,3.528593040259318,-1.7571188522063412
2.3649049636593125,29.428323924829723,-0.02126543388486113,3.4332617168879174,-1.631459045178435
2.36012190237335,28.716866295734878,-0.024287530743353908,3.3425252268724948,-1.519724083915363
2.3547683639136023,28.02401654086879,-0.026698549825671606,3.256043867090264,-1.4199008176091534
2.3489616695504534,27.348913280310903,-0.02860330125194023,3.173510995365797,-1.3303197740476214
2.3427991206442087,26.69075647704649,-0.03008764071229265,3.094649035723831,-1.2495887990698964
2.3363615893690666,26.048801691717323,-0.031222180955729775,3.0192060626491926,-1.1765408539593443
2.3297164126326817,25.42235500424142,-0.03206521653364898,2.946952865692741,-1.110192682814917
2.322919735553937,24.810768509740857,-0.03266504135915649,2.8776804152650004,-1.0497118843836648
2.3160184177585075,24.213436311256245,-0.03306179478779001,2.8111976655408504,-0.9943905254432286
2.3090515906616838,23.629790943944112,-0.033288939467675055,2.7473296421937388,-0.9436238779996423
2.302051934766477,23.059300175454158,-0.03337445001048525,2.685915771996297,-0.8968931939968136
2.295046731311265,22.501464135425458,-0.033341773372486956,2.6268084187532437,-0.8537516797936506
2.2880587312552088,21.95581273387596,-0.033210608113762356,2.56987159600387,-0.8138130203705158
2.2811068757795425,21.421903333960024,-0.0329975392735327,2.5149798317669423,-0.7767419459131621
2.2742068956052606,20.89931864934747,-0.03271655762439163,2.46201716454308,-0.7422464425685553
2.2673718110314036,20.387664840502985,-0.03237948593615243,2.4108762530234618,-0.710071293157388
2.2606123503434326,19.886569787550272,-0.031996330139760616,2.3614575846214207,-0.6799926986304454
2.2539373008709007,19.395681520298677,-0.03157556959863838,2.313668770155678,-0.6518137816384955
2.2473538042920373,18.914666788477312,-0.031124397819107644,2.2674239138573027,-0.6253608131533611
2.240867605640089,18.443209757333683,-0.03064892267564266,2.22264304941535,-0.600480034185514
2.234483263746996,17.981010815567416,-0.030154333449051232,2.1792516340729495,-0.5770349692180531
2.22820432947512,17.52778548413237,-0.02964504056881581,2.137180093879855,-0.5549041474805921
2.222033496967954,17.08326341579089,-0.029124792832763452,2.096363414134256,-0.5339791637349434
2.2159727322420752,16.647187476474194,-0.028596775985127176,2.0567407698342772,-0.5141630226930831
2.2100233827025897,16.219312900520315,-0.02806369581949793,2.0182551916312117,-0.4953687211960851
2.204186270559681,15.799406512747183,-0.027527848398683438,1.9808532633510034,-0.4775180303611739
2.198461772628222,15.387246011092778,-0.026991179519971178,1.9444848476433265,-0.46054044645010644
2.1928498885848287,14.982619304232358,-0.026455335179011177,1.909102836741616,-0.4443722845362525
2.1873502994205616,14.585323899177755,-0.02592170448067898,1.8746629256831775,-0.4289558933937745
2.181962417549422,14.19516633438726,-0.025391456196836183,1.8411234056548662,-0.41423897359230305
2.1766854298021348,13.811961654376066,-0.024865569967806214,1.8084449754041292,-0.40017398370653845
2.171518334342841,13.435532922224805,-0.024344862977851944,1.7765905688936061,-0.386717621963057
2.1664599723863764,13.065710766744534,-0.02383001279799805,1.7455251975851696,-0.37383037264262364
2.1615090554600425,12.702332961376428,-0.02332157697661169,1.7152158059205995,-0.3614761082126035
2.1566641888416966,12.345244032188667,-0.02282000986477541,1.685631138724724,-0.3496217395425837
2.151923891711858,11.994294892585998,-0.022325677086069255,1.656741619395939,-0.3382369077069774
2.1472866144782374,11.64934250257295,-0.021838867996032275,1.6285192378711948,-0.3272937118415741
2.1427507536642434,11.310249550613165,-0.021359806422958674,1.600937447460072,-0.31676646832947614
2.1383146646964577,10.976884156307431,-0.02088865993690436,1.5739710697373888,-0.30663149727229727
2.133976672878172,10.649119592274413,-0.020425547856292928,1.5475962067675508,-0.29686693277665216
2.1297350827954054,10.326834023762984,-0.019970548170058146,1.521790160007974,-0.28745255407167464
2.1255881863672337,10.009910264655161,-0.019523703526814252,1.4965313553046191,-0.27836963488519934
2.1215399140179048,9.698235797635078,-0.01903127122869708,1.4717969020295167,-0.26806385673963523
2.1175936845434116,9.39170229336931,-0.01855186662361885,1.4475698052635146,-0.2582455510259397
2.113746789562364,9.090205161089823,-0.018085228433982095,1.4238314545411253,-0.2488857611530217
2.109996577002108,8.79364362617902,-0.017631081663688892,1.400564116037963,-0.23995757693617645
2.106340453617722,8.501920551496841,-0.01718914104475084,1.3777508809351517,-0.2314359671226841
2.1027758868409516,8.214942269172528,-0.01675911397210941,1.355375617391625,-0.22329762744283035
2.0993004060591587,7.932618422133967,-0.016340702997347634,1.3334229258327577,-0.21552084258216098
2.095911603410515,7.654861814706031,-0.01593360794211629,1.3118780972904485,-0.208085360653185
2.092607134169808,7.381588271662395,-0.015537527683664282,1.2907270745537187,-0.2009722789045591
2.089384716788971,7.112716505163657,-0.015152161657638637,1.2699564159104315,-0.19416393954602884
2.0862421326476213,6.848167989058648,-0.014777211117123502,1.2495532612801254,-0.1876438346906696
2.0831772255612586,6.587866840065914,-0.01441238018156688,1.2295053005554377,-0.18139651952447414
2.080187901088204,6.331739705389129,-0.0140573767046698,1.2098007439853684,-0.17540753290899094
2.077272125670644,6.079715656353638,-0.013711912986376031,1.1904282944478903,-0.16966332470716594
2.0744279256402502,5.831726087682018,-0.013375706350708963,1.17137712147231,-0.16415118919720573
2.0716533861145567,5.5877046220546625,-0.013048479608277472,1.152636836883462,-0.15885920400538095
2.068946649806614,5.347587019627106,-0.012729961419747844,1.1341974719504089,-0.15377617404729202
2.0663059157672286,5.111311092199461,-0.012419886574397476,1.1160494559319347,-0.14889158001914213
2.063729438076339,4.878816621755025,-0.01211799619597975,1.09818359591985,-0.14419553102680333
2.061215524497679,4.65004528310509,-0.011824037886497038,1.0805910578890687,-0.13967872098161713
2.058762535108805,4.424940570395318,-0.011537765817064855,1.0632633488706544,-0.13533238842854434
2.0563688809167617,4.203447727245983,-0.011258940773824878,1.04619230017062,-0.13114827950499947
2.0540330224681007,3.9855136803139253,-0.010987330165801681,1.0293700515632789,-0.12711861375793118
2.0517534684606207,3.7710869760784718,-0.010722708000675875,1.0127890363934366,-0.12323605257285063
2.049528774363017,3.560117720666856,-0.010464854833645489,0.9964419675267266,-0.11949366999190963
2.0473596060594623,3.3526871711555337,-0.010193890914492628,0.979087075438244,-0.14033590267015675
2.045244677730055,3.1488892690064816,-0.009948283651290647,0.9618453259812851,-0.16299978207798976
2.0431786603223925,2.9487005821205123,-0.009728072612165496,0.9447135967422376,-0.18737968795220628
2.0411562269556676,2.75209832166507,-0.009533197547118975,0.9276888837857997,-0.213372781882289
2.0391720729798806,2.559060317705054,-0.009363506984184627,0.9107682967857709,-0.2408787855679422
2.037220934301337,2.3695649958166953,-0.009218766144799662,0.8939490545319319,-0.2697997655457276
2.0352976041123116,2.183591354607092,-0.009098664226870728,0.8772284807976259,-0.30003992355374165
2.033396948152994,2.001118944065084,-0.009002821099964134,0.8606040005548191,-0.3315053917204819
2.031513918624905,1.8221278446716447,-0.008930793453266523,0.8440731365255499,-0.3641040317757577
2.029643566866804,1.6465986472000793,-0.008882080433410357,0.8276335060607948,-0.3977452374876775
2.027781054896675,1.4745124331380062,-0.008856128805911764,0.8112828183399012,-0.43233973953029325
2.0259216659166204,1.3058507556642986,-0.008852337670799829,0.7950188718859008,-0.4677994119812507
2.0240608138713863,1.1405956211148869,-0.008870062760000411,0.7788395523942276,-0.5040370796375631
2.0221940521457658,0.9787294708716523,-0.008908620341149193,0.7627428308746752,-0.5409663253201097
2.020317081481224,0.820235163608384,-0.008967290749723217,0.7467267621088423,-0.578501296313298
2.018425757187792,0.6650959578270275,-0.009045321568673131,0.7307894834278919,-0.6165565090550892
2.016516095723513,0.5132954946161874,-0.009141930472084924,0.7149292138182076,-0.6550466511537476
2.0145842807105323,0.36481778056189285,-0.009256307746774706,0.6991442533655261,-0.6938863797606326
2.012626668454296,0.21964717073811357,-0.009387618503096804,0.683432983051396,-0.7329901152723904
2.010639793030193,0.0777683517011738,-0.00953500458359641,0.6677938649194279,-0.7722718292702349
2.008620371000495,-0.060833675591808856,-0.009697586175434038,0.6522254426328099,-0.8116448255276938
2.006565305823454,-0.19617361302540104,-0.009874463129718555,0.636726342449048,-0.8510215128302223
2.004471692016096,-0.3282658828200624,-0.01006471598797454,0.6212952746429399,-0.890313168249288
2.002336819132504,-0.45712464537609065,-0.01026740671290092,0.6059310354144906,-0.9294296893986612
2.000158175620332,-0.5827638175737349,-0.010481579117310126,0.5906325093249569,-0.9682793340703011
1.997933452619944,-0.705197091645573,-0.01070625898162502,0.5753986723115885,-1.0067684454999564
1.9956605477729903,-0.8244379547489942,-0.010940453846503636,0.5602285953400716,-1.0448011613468537
1.9933375691104922,-0.940499709379857,-0.011183152463002582,0.5451214487633614,-1.0822791042860636
1.9909628390946748,-1.053395494784013,-0.011433323878114647,0.5300765074667043,-1.1191010519048255
1.9885348988939853,-1.1631383095416226,-0.011689916128452191,0.5150931568914544,-1.1551625833639612
1.9860525129770306,-1.2697410355199565,-0.011951854509213324,0.5001709000450376,-1.190355700031556
1.98351467411874,-1.3732164634149342,-0.01221803937926875,0.4853093656214313,-1.2245684170180406
1.9809206089210223,-1.473577320129678,-0.012487343456136587,0.4705083173761515,-1.2576843222403782
1.97826978396073,-1.5708362982710256,-0.012758608546647137,0.45576766492236326,-1.2895820993206268
1.9755619126900719,-1.6650060880826558,-0.013030641650097017,0.44108747614077504,-1.3201350102855196
1.9727969632289606,-1.7560994121771571,-0.013302210360485874,0.42646799142589,-1.3492103336874732
1.9699751672054133,-1.8441290634795422,-0.013572037482822959,0.4119096400254108,-1.3766687534276438
1.9670970298193655,-1.929107946852909,-0.013838794765250247,0.39741305876854177,-1.4023636932505061
1.9641633413274897,-2.0110491249435114,-0.014101095633567111,0.3829791135228941,-1.426140591630994
1.9611751901722485,-2.0899658688591387,-0.014357486797301406,0.3686089237687754,-1.4478361116409255
1.958133978008021,-2.165871714381879,-0.014606438576293899,0.35430389073350815,-1.467277280437954
1.95504143691132,-2.238780524515441,-0.014846333773238853,0.34006572958610465,-1.4842805533812218
1.9518996491016887,-2.3087065592784413,-0.015075454889917681,0.3258965062520201,-1.4986507986106634
1.9487110695458094,-2.3756645537787193,-0.015291969451788318,0.31179867946491485,-1.5101801994775483
1.945478551871004,-2.4396698057381982,-0.015493913165407417,0.29777514872061306,-1.5186470748435883
1.9422053780773971,-2.500738273780641,-0.01567917058323,0.28382930882646196,-1.5238146215049113
1.9388952926130687,-2.558886687938937,-0.015845452886563364,0.2699651117287272,-1.5254295896240713
1.9355525414670756,-2.614132673973785,-0.01599027231337293,0.25618713622218825,-1.5232209122127358
1.9321819170466759,-2.666494893202227,-0.016110912642814564,0.24250066595344485,-1.5168983250845467
1.9287888097456753,-2.7159931995811135,-0.016204394985760026,0.228911775750261,-1.5061510367733641
1.925379267293505,-2.7626488157261804,-0.01626743789205161,0.21542742563135395,-1.490646542341376
1.9219600632203317,-2.8064845292911684,-0.016296410423885365,0.20205556070189515,-1.4700297261578554
1.9185387761162234,-2.8475249105568636,-0.016287276281909548,0.1888052132570881,-1.443922474478974
1.915123881858396,-2.8857965509914365,-0.016235526173588102,0.17568660040553852,-1.411924130416304
1.9117248617236575,-2.921328320643738,-0.016136094157256125,0.1627112058068467,-1.3736132879409129
1.9083523304508057,-2.954151639075036,-0.01598325129847491,0.14989182687219502,-1.328551660513872
1.9050181901354493,-2.9843007494766525,-0.015770465990633278,0.13724255790513462,-1.276291103372862
1.9017358187756543,-3.011812977762652,-0.015490213626461222,0.12477866386629996,-1.2163853510416727
1.898520307095966,-3.0367289466208263,-0.015133707132476784,0.11251627764011327,-1.1484086827598663
1.8953887652232315,-3.059092697525621,-0.014690501179278708,0.10047182621507007,-1.0719845422041396
1.8923607339618096,-3.0789516508939414,-0.014147891786645356,0.0886610630070519,-0.9868279955746246
1.8894587572319503,-3.0963563075005567,-0.013489981831062434,0.07709757134169583,-0.892806410429866
1.8867092082245005,-3.111359570808439,-0.012696199192268935,0.06579065063811677,-0.7900218511260642
1.8841435212464652,-3.124015572105556,-0.011738914884256893,0.054742695048726406,-0.6789142514616314
1.88180008204337,-3.1343779581506226,-0.010579553716650165,0.043946695856697394,-0.5603727996292652
1.8797272187450575,-3.142497850048059,-0.009162001505372249,0.03338560792838712,-0.43582036379338873
1.8779881834914283,-3.1484222706034615,-0.007400239005383645,0.02303744498021576,-0.30720423146831355
1.8766704977572326,-3.1521951798697714,-0.005149148939337449,0.01289502422275297,-0.17680395282904546
1.8759095702277484,-3.1538679799411184,-0.0020977799128921427,0.0030364050281650023,-0.04679347076091392
