x,y,v_x,v_y,omega
2.375,32.48,0.0,4.0,-5.183673469387755
2.3737145384982052,31.76952293385456,-0.014282905575498297,3.8941896238381766,-4.801287814486584
2.370075408572919,31.077638672714848,-0.026151871372126025,3.7934132777141927,-4.461556115709067
2.3644817087113084,30.40347502419094,-0.03600034931243617,3.6972939281070043,-4.158370262583815
2.357267960605392,29.746224164912043,-0.044152407419968,3.605493397214088,-3.886650568030905
2.348715390819302,29.105136122610457,-0.05087614575880922,3.5177070728035322,-3.6421495299754776
2.3390610532451617,28.47951312746344,-0.056394271731641035,3.433659539941063,-3.421297220839922
2.3285052445674426,27.86870468454557,-0.06089249135412577,3.353100936924188,-3.2210786019437334
2.31721756163963,27.272103250340617,-0.06452620784378711,3.2758038875752877,-3.038935525687147
2.305341872042087,26.68914041966557,-0.0674258987955837,3.2015608977030308,-2.8726879749329295
2.2930004102047663,26.119283547222707,-0.06970145495242441,3.1301821294398873,-2.7204703981070715
2.280297166438643,25.562032741811603,-0.07144569800450291,3.0614934862390557,-2.5806799676792718
2.267320701507811,25.016918182050304,-0.07273724567140169,2.9953349555531474,-2.4519343138664933
2.2541464924364614,24.48349771102218,-0.0736428551213768,2.9315591669815566,-2.3330368311820173
2.2408388942071498,23.96135467412195,-0.07421934742652708,2.870030131909864,-2.2229480700237145
2.2274527854801014,23.450095969916585,-0.07451519398512467,2.8106221370386444,-2.120762042700583
2.214034953409306,22.949350288356477,-0.074571829023714,2.753218769184806,-2.0256865176508883
2.2006252622675233,22.45876651438885,-0.07442473921831586,2.697712052677724,-1.9370265650334126
2.18725764232491,21.978012278104593,-0.07410437125516647,2.6440016838139804,-1.8541707645952694
2.1739609288009842,21.506772635118764,-0.0736368901217821,2.59199434936193,-1.776579602563132
2.1607595753779454,21.044748863042035,-0.07304481457865296,2.5416031181572656,-1.703775675629899
2.1476742624549945,20.59165736172234,-0.07234755123191283,2.492746896506016,-1.6353353924662393
2.134722416828372,20.147228646482688,-0.07156184461944959,2.4453499394901153,-1.5708819207890858
2.121918656636175,19.711206424901434,-0.07070215751606733,2.3993414114126823,-1.51007917408415
2.109275173081885,19.283346748812832,-0.06978099308715394,2.3546549895718156,-1.4526266690777616
2.0968020585441782,18.86341723417994,-0.0688091684429246,2.3112285063491873,-1.3982551148928926
2.084507589112553,18.451196342334082,-0.0677960474640258,2.2690036252714565,-1.346722618986056
2.0723984682944474,18.046472716805255,-0.06674973940381113,2.227925547271069,-1.2978114146011261
2.060480037568714,17.649044570603785,-0.0656772686598937,2.187942743856376,-1.2513250304982206
2.048756458571511,17.25871911936848,-0.0645847201979174,2.1490067143136655,-1.207085836833235
2.037230870960893,16.875312056282688,-0.06347736436450513,2.1110717644173467,-1.1649329118397234
2.02590552938894,16.49864706508654,-0.062359764212749226,2.0740948044287553,-1.1247201828467104
2.014781922493622,16.12855536788956,-0.061235867957447634,2.038035164426577,-1.0863148025100273
2.0038608763891794,15.76487530481964,-0.06010908875858145,2.0028544252392333,-1.0495957272259158
1.993142644769327,15.40745194283788,-0.058982373684226666,1.968516263446986,-1.0144524697627744
1.9826269874303728,15.05613671130924,-0.0578582634152633,1.9349863090934658,-0.9807840023743862
1.97231323876179,14.710787062150146,-0.056738944013434725,1.9022320148964653,-0.9484977901948299
1.9622003675320072,14.37126615258033,-0.05562629187304161,1.870222535879289,-0.9175089376824066
1.9522870291107193,14.037442548689857,-0.05452191280793529,1.8389286184593026,-0.8877394333756876
1.9425716111104556,13.70918994819666,-0.05342717608388126,1.808322498131788,-0.8591174803294801
1.9330522732950586,13.386386920916902,-0.05234324408719787,1.778377804976647,-0.8315769013778401
1.9237269824874048,13.068916665602497,-0.051271098220065967,1.7490694762945018,-0.8050566098791933
1.9145935431100831,12.75666678191861,-0.050211561527953766,1.7203736757486687,-0.7795001378795745
1.9056496239082286,12.449529056440596,-0.04916531849265081,1.6922677184514863,-0.754855214720648
1.896892781331189,12.14739926164599,-0.04813293236334519,1.6647300014885744,-0.7310733900498718
1.8883204799873246,11.850176966963893,-0.0471148603462601,1.6377399394236234,-0.7081096959861292
1.8799301105325388,11.557765361022465,-0.04611146692913736,1.6112779043700212,-0.6859223438763118
1.8717190053067965,11.270071084306245,-0.045123035579109357,1.5853251702546556,-0.664472451664215
1.8636844519928562,10.987004071499253,-0.04414977902022875,1.559863860934126,-0.6437237983972804
1.8558237055367997,10.708477402848246,-0.04319184826928656,1.5348769018548665,-0.6236426028314759
1.8481339985399285,10.434407163933404,-0.042249340584838,1.510347974976721,-0.6041973234702012
1.8406125503055348,10.164712313282077,-0.04132230646398049,1.4862614767047,-0.5853584776982297
1.8332614277369261,9.899315477921348,-0.040356833187226555,1.4625922495256176,-0.5657512406368325
1.8260820177498747,9.638141860996782,-0.03941438889112391,1.4393368274140237,-0.5469653534774163
1.8190702166063004,9.381118212788863,-0.038494512704144675,1.4164814860073198,-0.5289572507974849
1.812222004776039,9.128173702213193,-0.03759672985431965,1.3940130759445521,-0.5116861141117002
1.8055334491005275,8.879239816057758,-0.03672055542913911,1.3719189924491717,-0.4951136709158776
1.7990007043259073,8.634250263523462,-0.03586549762219607,1.350187146820802,-0.4792040104028536
1.7926200140921602,8.39314088573687,-0.03503106053054835,1.3288059396969165,-0.46392341430660433
1.786387711454122,8.15584956992803,-0.03421674655876581,1.3077642359568367,-0.449240201488471
1.780300219000754,7.922316167988335,-0.033422058478656334,1.287051341150904,-0.435124585019304
1.774354048630792,7.692482419143509,-0.03264650118758755,1.266656979347165,-0.42154854063588176
1.7685458010356374,7.466291876495575,-0.03188958320302103,1.2465712722965332,-0.40848568556092674
1.7628721649340031,7.243689837204613,-0.031150817926248266,1.2267847198252477,-0.3959111667750347
1.7573299160972562,7.024623276096985,-0.03042972470427432,1.207288181370602,-0.38380155791724513
1.7519159161994982,6.80904078250121,-0.029725829715258712,1.1880728585824456,-0.3721347640700425
1.7466271115221403,6.5968925001260885,-0.02903866669982802,1.1691302789189217,-0.3608899337553511
1.741460531538948,6.388130069808053,-0.028367777557863513,1.1504522801703498,-0.3500473775315204
1.736413287404221,6.182706574966208,-0.02771271282799059,1.1320309958501495,-0.3395884926382046
1.7314825703638599,5.98057648961403,-0.02707303206491208,1.11385884139626,-0.3294956931871619
1.726665650106507,5.781695628786604,-0.026448304127897542,1.0959285011306954,-0.3197523454429543
1.7219598730697043,5.586021101251259,-0.025838107392133318,1.078232915928709,-0.31034270777890205
1.717362660714022,5.3935112643779455,-0.0252420298932255,1.0607652715525624,-0.30125187493091304
1.7128715077763803,5.204125681053483,-0.02465966941390569,1.0435189876081312,-0.2924657262054269
1.708483980512248,5.01782507853105,-0.024090633520896472,1.0264877070855511,-0.2839708773280569
1.7041977149350636,4.834571309113045,-0.023534539558931398,1.0096652864478497,-0.27575463564693703
1.7000104150600328,4.654327312571677,-0.022991014608077016,0.993045786234028,-0.267804958429583
1.695924622520184,4.477276366015708,-0.02240668027913174,0.9741869532767379,-0.30856216559396293
1.6919397898599864,4.3036108949615475,-0.021869238167507982,0.9554293917694785,-0.3504368817119627
1.6880476199943466,4.13331289547218,-0.02137709367293567,0.9367706025568098,-0.3933299381847491
1.6842401033510668,3.966364804766961,-0.020928646807952728,0.9182081830567502,-0.437143460172275
1.6805095186378418,3.8027494840468634,-0.020522294450100016,0.8997398249443338,-0.4817806492338067
1.6768484332299374,3.6424502017058806,-0.020156432304395067,0.8813633121776853,-0.5271455664593956
1.673249703229256,3.4854506168667143,-0.01982945659206474,0.8630765193685949,-0.573142915122409
1.6697064732428486,3.331734763178325,-0.019539765479128505,0.844877410502388,-0.6196778218541273
1.6662121759266812,3.1812870328117704,-0.019285760256064183,0.8267640380148967,-0.6666556153038237
1.6627605313386664,3.034092160589047,-0.019065846277433216,0.8087345422375867,-0.7139816012010685
1.6593455461435804,2.8901352081773766,-0.018878433667967626,0.790787151225432,-0.7615608326805425
1.6559615127115355,2.749401548278346,-0.01872193779919963,0.7729201809860221,-0.8092978746625711
1.6526030081511678,2.611876848737662,-0.018594779538219103,0.7551320361326895,-0.857096561003981
1.6492648933186491,2.477547056496686,-0.018495385267543157,0.7374212109892502,-0.9048597430426657
1.6459423118440593,2.346398381301512,-0.01842218667234316,0.7197862911793341,-0.9524890280542249
1.642630689217596,2.218417279078828,-0.018373620288360547,0.7022259557393605,-0.9998845060189183
1.6393257319795793,2.0935904348801877,-0.018348126800714133,0.6847389798010882,-1.0469444629604807
1.6360234270602778,1.9719047452873149,-0.01834415008041311,0.6673242378975043,-1.0935650789635423
1.6327200413182883,1.853347300160614,-0.018360135941691537,0.6499807079547417,-1.1396401088018442
1.6294121213296067,1.7379053636008237,-0.018394530599216027,0.6327074760429428,-1.1850605429134582
1.626096493483702,1.6255663539795933,-0.01844577879972492,0.6155037419707114,-1.2297142462401678
1.6227702644479371,1.5163178228783138,-0.01851232159766326,0.5983688258212833,-1.2734855722045566
1.6194308220676552,1.4101474327554335,-0.018592593738802208,0.5813021755440528,-1.316254948829005
1.6160758367763006,1.307042933140501,-0.018685020609581823,0.5643033757329807,-1.357898433705122
1.6127032635981784,1.206992135127571,-0.01878801470288704,0.5473721577439995,-1.3982872342005201
1.6093113448360452,1.109982883911158,-0.01889997154303702,0.5305084113272734,-1.4372871889441243
1.60589861354683,1.0160030290737296,-0.019019265003798216,0.513712197977479,-1.4747582062656375
1.6024638979216128,0.9250403922944592,-0.019144241943058637,0.49698376623664575,-1.5105536548869998
1.5990063267007766,0.8370827321033616,-0.019273216066233705,0.48032356922001124,-1.5445197017865804
1.59552533577226,0.7521177052526973,-0.019404460917284483,0.46373228467627303,-1.5764945918008775
1.5920206761204017,0.6701328242172373,-0.019536201881140414,0.44721083793993666,-1.6063078632252856
1.5884924233153404,0.5911154102659602,-0.019666607063986853,0.43076042818536653,-1.6337794934728838
1.5849409887587735,0.5150525414688225,-0.019793776897864938,0.4143825584495001,-1.658718968819661
1.5813671329316175,0.4419309949126671,-0.01991573229276086,0.3980790699522449,-1.6809242725120168
1.5777719809233846,0.37173718229919217,-0.020030401132049257,0.3818521813086147,-1.700180786193622
1.5741570405627772,0.30445707798519805,-0.020135602874697366,0.36570453329133024,-1.7162601009526255
1.570524223515096,0.24007613840149133,-0.020229030988426672,0.34963923986099815,-1.7289187366319405
1.566875869766068,0.17857921165391843,-0.02030823288966139,0.3336599462231201,-1.7378967718758322
1.5632147759755604,0.11995043597256938,-0.020370587004870055,0.31777089468076386,-1.7429163934242644
1.5595442282612,0.06417312554106758,-0.02041327648802203,0.30197699900259345,-1.74368038246663
1.5558680400653828,0.011229642121925565,-0.02043325902106001,0.2862839278767462,-1.739870569975729
1.5521905958758715,-0.03889874918061054,-0.020427231973508986,0.2706981977070032,-1.7311463141340244
1.5485169017201468,-0.08623204167279397,-0.020391591978988526,0.25522727442834403,-1.717143084577347
1.5448526435526575,-0.1307916678431127,-0.02032238765977913,0.2398796830196142,-1.6974712851203517
1.541204254927762,-0.1726007002710901,-0.020215263727949812,0.22466512173568665,-1.6717155160720032
1.537578995741303,-0.21168407301460235,-0.020065393899370405,0.2095945754144299,-1.639434579639211
1.5339850443997767,-0.24806882242260286,-0.01986739878425833,0.1946804180078174,-1.600162682252636
1.5304316066533459,-0.2817843439616041,-0.01961524284274794,0.1799364879810773,-1.553412507007192
1.526929045700903,-0.312862657813227,-0.019302101073286587,0.16537811037032657,-1.4986811462287313
1.523489040366288,-0.3413386699749026,-0.018920180422435564,0.1510220247593668,-1.435460333918707
1.5201247816983918,-0.367250406408985,-0.018460471443077418,0.13688615784152702,-1.363253037369469
1.5168512241708474,-0.39063918428665545,-0.017912389974082923,0.12298915191039604,-1.2815992752973109
1.5136854172468,-0.4115496655494155,-0.017263242515333534,0.10934952878694851,-1.1901149740963515
1.5106469588675422,-0.43002971396971645,-0.01649740614308551,0.09598434254974893,-1.0885485060779194
1.507758638324916,-0.4461299512785146,-0.015595044330540672,0.08290718310354311,-0.9768595678859096
1.5050473782522833,-0.45990289314396193,-0.014530067587598642,0.07012550429031914,-0.855322626539906
1.5025456549382907,-0.4714015726637797,-0.013266858123428623,0.05763760148543689,-0.7246491776331215
1.5002936963488094,-0.48067769130459936,-0.011754903981920082,0.04543038341256463,-0.5861051090976925
1.4983430001701104,-0.48777968857576326,-0.009919498003625963,0.033480697378163435,-0.4415691550993067
1.4967623688604117,-0.49275189961304733,-0.007643072104136921,0.02176609192502124,-0.2934446947007173
1.4956501878485524,-0.49563789952296133,-0.004714494694299277,0.010300573740657884,-0.14432876702049235
1.4951732830835156,-0.4965010585174525,-0.0005844471394417933,-0.0007099182463232035,0.0035440213122424347
