x,y,v_x,v_y,omega
2.375,32.48,0.0,3.4871794871794872,-3.3469387755102042
2.3741950757786796,31.825649500666888,-0.00847288654021528,3.4007205058006256,-3.118149926979305
2.3719076727307016,31.187369179671624,-0.015605040280604207,3.318019715202149,-2.9128739302149906
2.368373176139636,30.564469324440985,-0.021600186993771975,3.2388208661729796,-2.7279939860798996
2.3637914429869227,29.95630667137098,-0.02662858303478925,3.162891271406027,-2.5608797170714652
2.358332589211477,29.362280194443585,-0.030833035654113758,3.0900190120402136,-2.409301185353034
2.352141745415823,28.781827385072926,-0.034333741142245494,3.0200105602825222,-2.2713597735389226
2.345342981675907,28.214420951350327,-0.03723219296213469,2.952688742060642,-2.1454323059520366
2.3380425597284873,27.659565877735155,-0.03961435385280424,2.887890980204333,-2.0301256329228656
2.3303316381049757,27.116796796365005,-0.041553242184159754,2.8254677710603846,-1.9242395329311441
2.3222885303724174,26.585675629211973,-0.04311104973750642,2.7652813568662618,-1.8267362644654357
2.313980596779493,26.065789466782324,-0.04434088281959527,2.7072045634458597,-1.7367154622422594
2.3054658339875758,25.556748654305505,-0.04528819920058378,2.6511197784153766,-1.6533933502432727
2.2967942152203897,25.05818506065315,-0.04599199834874235,2.5969180495041524,-1.5760854582046484
2.2880088233558906,24.56975050877094,-0.04648581075124815,2.54449828609805,-1.504192194333756
2.279146811652324,24.09111534934957,-0.0467985229705068,2.493766549916367,-1.437186756661466
2.2702402205197894,23.621967161922882,-0.04695506789827883,2.444635422996183,-1.3746049671439344
2.261316673690342,23.16200956965332,-0.046977003990642835,2.397023442999198,-1.3160366928386271
2.2523999730491835,22.710961155818705,-0.04688300275839074,2.3508545973651596,-1.2611185820515638
2.2435106080688243,22.2685544715063,-0.0466892601927616,2.3060578690812097,-1.2095278939751744
2.234666193082321,21.83453512529588,-0.046409844928326165,2.2625668278705615,-1.1609772408277985
2.2258818434191556,21.408660946808755,-0.04605699363130782,2.2203192614676106,-1.1152100940332574
2.2171704996118713,20.990701216944004,-0.04564136223484076,2.1792568423719056,-1.071996932216018
2.20854320738713,20.580435958440543,-0.04517224013086033,2.1393248260855673,-1.0311319300342447
2.200009359920726,20.177655281113424,-0.04465773319970489,2.1004717773577943,-0.9924301041438416
2.1915769078138703,19.78215877673123,-0.044104920556673026,2.0626493214021258,-0.9557248466767392
2.183252541398841,19.393754959042173,-0.04351998907521665,2.025811917430072,-0.9208657881522838
2.175041849274675,19.012260744930252,-0.04290834907390141,1.9899166521690885,-0.887716941216855
2.166949456382588,18.637500973099527,-0.04227473400069506,1.9549230513122389,-0.8561550844168586
2.15897914443586,18.269307957051474,-0.04162328649117596,1.9207929070882928,-0.8260683516673903
2.1511339571032964,17.90752106944481,-0.04095763279896802,1.88749012035026,-0.7973549984338261
2.1434162919955377,17.551986355214126,-0.04028094728270343,1.854980555762263,-0.769922320097683
2.1358279812082954,17.202556171078506,-0.039596008372479854,1.8232319088232227,-0.7436857016935006
2.1283703619269407,16.859088849297876,-0.038905247220723756,1.7922135836044348,-0.7185677813113656
2.1210443383852744,16.521448383736498,-0.038210790059977594,1.7618965801995323,-0.6944977120664205
2.1138504362915427,16.189504136473307,-0.037514495137197366,1.732253390991987,-0.6714105097288037
2.106788850681775,15.863130563359846,-0.036817984965619624,1.7032579049391618,-0.6492464749556245
2.099859488029977,15.542206957070928,-0.03612267452699538,1.6748853191547306,-0.6279506806286148
2.0930620033331806,15.226617206322505,-0.03542979596559605,1.6471120571444615,-0.6074725161244936
2.0863958327938312,14.916249570047839,-0.03474042023808035,1.619915693115174,-0.5877652814689338
2.0798602226400256,14.61099646542765,-0.03405547611776712,1.593274881834181,-0.5687858252815968
2.0734542545537002,14.310754268764477,-0.03337576689618285,1.567169293567645,-0.5504942212357147
2.0671768681162135,14.01542312827673,-0.032701985077365554,1.5415795536717782,-0.5328534784533132
2.061026880628464,13.724906787965026,-0.03203472531999773,1.5164871864514216,-0.5158292818548356
2.055003004617512,13.439112421773146,-0.03137449584791859,1.491874562936774,-0.4993897589950092
2.049108919433588,13.157951115305341,-0.030668506088120485,1.4677181367243426,-0.4820216084332871
2.043347598563651,12.881337042042205,-0.029976976753320436,1.444008950256052,-0.4654153827963138
2.037716298901837,12.60918668896473,-0.029299861792087857,1.4207316084542172,-0.44952889367322246
2.03221228999678,12.341419404146404,-0.028637074050619802,1.3978713896334174,-0.4343227301638629
2.0268328612841118,12.077957272329076,-0.027988491345888277,1.3754142084437269,-0.419760046896354
2.0215753282362687,11.81872499730974,-0.02735396178930186,1.353346581233486,-0.4058063703823841
2.0164370375633185,11.563649790695958,-0.026733308452277123,1.331655593648438,-0.39242942194085784
2.011415371582259,11.312661266620879,-0.026126333453612524,1.3103288702997884,-0.37959895560850426
2.0065077518580017,11.06569134203934,-0.02553282153857006,1.2893545463479668,-0.3672866096223025
2.0017116422068035,10.822674142254417,-0.024952543210888297,1.2687212408617436,-0.35546577020576814
1.9970245511419864,10.583545911349269,-0.02438525747139484,1.2484180318240163,-0.34411144652164266
1.9924440338322251,10.348244927222702,-0.023830714210303586,1.2284344326661576,-0.333200155769379
1.987967693634265,10.116711420948285,-0.02328865629454062,1.2087603702224285,-0.32270981750880595
1.9835931832545728,9.88888750019671,-0.022758821386429706,1.1893861640046932,-0.3126196563830145
1.9793182055879215,9.664717076479231,-0.022240943525687097,1.1703025067056136,-0.3029101124951989
1.9751405142752114,9.444145795986852,-0.02173475450284219,1.1515004458457538,-0.2935627587670716
1.971057914017801,9.227120973815278,-0.021239985048844116,1.132971366486613,-0.2845602246715818
1.967068260681207,9.013591531379973,-0.020756365862672155,1.1147069749376441,-0.27588612579089883
1.9631694612171153,8.80350793683877,-0.02028362849618681,1.0966992833908094,-0.2675249987027635
1.9593594734292243,8.596822148351624,-0.019821506113192028,1.0789405954212672,-0.25946224074504576
1.955636305605391,8.39348756001835,-0.019369734137687496,1.0614234922973884,-0.2516840542502903
1.9519980160358794,8.193458950345583,-0.01892805080453822,1.0441408200475208,-0.24417739487970572
1.9484427124351449,7.996692433103764,-0.01849619762424693,1.0270856772347932,-0.23692992371993737
1.9449685512824866,7.803145410443953,-0.018073919772156916,1.0102514033948027,-0.2299299628364628
1.941573737095066,7.612776528152491,-0.017660966411215707,0.9936315680942894,-0.22316645400493526
1.9382599734501262,7.425744351251005,-0.017220756167097912,0.9751281887634393,-0.25811533350114113
1.9350260996272624,7.242217742341062,-0.016820020915681192,0.956730852393864,-0.29441714225637156
1.9318647171376466,7.062176813125387,-0.01645768950132672,0.9384368235605977,-0.33196972853796985
1.9287686344115522,6.885602185121257,-0.016132654983876997,0.9202434712196957,-0.37067272622182973
1.925730873189113,6.712474970129922,-0.015843778936537396,0.9021482655312132,-0.4104273338563103
1.9227446741338856,6.542776751276069,-0.015589895329012912,0.8841487750356688,-0.4511360961562064
1.919803501745505,6.376489564550564,-0.01536981402236128,0.8662426641801544,-0.49270268699512854
1.9169010486429647,6.21359588079013,-0.015182323899115946,0.848427691192827,-0.5350316929503353
1.9140312392858534,6.054078588027625,-0.015026195649425231,0.8307017063072151,-0.578028396432169
1.9111882331971919,5.897920974146082,-0.014900184231222705,0.8130626503406161,-0.6215985574003423
1.9083664277483483,5.745106709768503,-0.01480303101976241,0.7955085536339039,-0.6656481926308865
1.9055604605638472,5.5956198313137655,-0.014733465659195194,0.7780375353633417,-0.7100833514499697
1.9027652116017344,5.449444724146584,-0.01469020762620149,0.7606478032385727,-0.7548098867932995
1.89997580496351,5.306566105746455,-0.01467196751300297,0.7433376536048865,-0.7997332203815775
1.8971876104865144,5.166969008816633,-0.01467744803431998,0.7261054719722077,-0.8447581007225075
1.894396245171055,5.030638764249453,-0.014705344759990701,0.708949733998107,-0.8897883525570687
1.891597574494517,4.897560983858664,-0.014754346571986023,0.6918690069575757,-0.9347266162609077
1.8887877136652453,4.767721542782542,-0.014823135841402277,0.6748619517384504,-0.9794740755894135
1.8859630288701354,4.641106561453597,-0.014910388317649114,0.657927325408338,-1.0239301720158003
1.8831201385717082,4.517702387021156,-0.015014772718424432,0.641063984406819,-1.0679923037537284
1.8802559149129707,4.397495574102059,-0.015134950005129108,0.6242708884257656,-1.1115555073779038
1.8773674852916977,4.280472864721769,-0.015269572324061698,0.6075471050509841,-1.1545121197559758
1.8744522341699588,4.1666211672931475,-0.01541728158898008,0.5908918152503133,-1.196751417781153
1.8715078051898475,4.0559275344627,-0.015576707675347332,0.5743043198070229,-1.2381592331456803
1.8685321036725724,3.948379139633783,-0.01574646619070675,0.5577840468131603,-1.2786175391194379
1.8655232995854447,3.84396325195274,-0.01592515577905777,0.5413305603557286,-1.318004005994714
1.862479831070011,3.742667209516732,-0.016111354909718545,0.5249435705496136,-1.3561915215280336
1.8594004086347686,3.644478390530452,-0.016303618092833105,0.5086229450954476,-1.3930476723546292
1.8562840201277944,3.549384182102372,-0.016500471454262776,0.49236872256856284,-1.4284341819750555
1.853129936618407,3.457371946329012,-0.016700407591919396,0.4761811276773541,-1.462206300524478
1.8499377193329472,3.3684289832668703,-0.016901879623447955,0.4600605887662362,-1.4942121411467109
1.8467072278081955,3.282542490335434,-0.017103294321305713,0.4440077578804514,-1.5242919574284712
1.8434386294472067,3.199699517629817,-0.01730300421541817,0.42802353375763685,-1.5522773560377683
1.8401324106868335,3.1198869185472127,-0.017499298525353525,0.4121090881645156,-1.577990438504139
1.8367893900144514,3.043091295046249,-0.017690392762879006,0.3962658960561638,-1.601242866053135
1.8334107331039609,2.9692989367614864,-0.017874416821229765,0.38049577009923324,-1.621834841675203
1.8299979703787774,2.8984957530861557,-0.018049401338596532,0.36480090016740657,-1.6395540043356571
1.826553017353152,2.830667197214307,-0.018213262089040526,0.34918389848363446,-1.6541742316619321
1.8230781981540007,2.7657981809997807,-0.018363782112550738,0.33364785114295764,-1.6654543499355738
1.819576272685064,2.7038729793460377,-0.018498591244679636,0.3181963767911672,-1.6731367542968116
1.816050467965912,2.64487512269303,-0.01861514264113125,0.3028336932404991,-1.6769459485142155
1.8125045142632894,2.588787276024359,-0.018710685807525,0.2875646927455245,-1.6765870236214022
1.8089426867363012,2.5355911026964897,-0.018782235529194193,0.27239502649521197,-1.6717441098570125
1.8053698534473162,2.485267111319107,-0.018826535933807138,0.2573311985298677,-1.6620788591401692
1.801791530758658,2.4377944839366528,-0.018840018683646098,0.24238066865387015,-1.6472290494242752
1.7982139473594734,2.393150883946987,-0.018818753939349724,0.2275519628162989,-1.6268074530788756
1.7946441184774617,2.3513122426564017,-0.018758392187089013,0.21285478761092858,-1.600401186854182
1.791089932275546,2.312252524285345,-0.018654094148865874,0.19830014261073806,-1.5675718725052177
1.7875602510958433,2.275943470873802,-0.018500444584846055,0.1839004196160414,-1.5278571013603437
1.7840650312296067,2.2423543312920025,-0.018291343480803524,0.16966947071868288,-1.4807739362623424
1.7806154664931853,2.211451583033174,-0.018019864271000764,0.15562261621633586,-1.4258255315697583
1.7772241634664887,2.183198662487648,-0.017678062325806477,0.1417765474207681,-1.3625124444831254
1.7739053604593191,2.1575557300784425,-0.017256706170713825,0.12814905688666706,-1.2903508864060542
1.7706752092142568,2.134479512251321,-0.016744885882573377,0.11475849918827731,-1.2089010328704424
1.767552149860557,2.113923283838389,-0.016129423103740773,0.10162285252680367,-1.1178094929950895
1.7645574286896208,2.0958370811089146,-0.015393957642955544,0.08875822883608511,-1.016870802986287
1.761715839749062,2.080168262388632,-0.014517504889242047,0.07617670506161513,-0.9061124502253939
1.7590568229272487,2.0668625423229123,-0.013472145866688457,0.06388350615648879,-0.7859044398142624
1.7566161374276836,2.0558655767090848,-0.012219280444521731,0.05187402662064222,-0.6570841125198885
1.7544384843855785,2.047124985247308,-0.010703383156586537,0.040132199292780064,-0.5210651586496147
1.7525817900020897,2.040592224907865,-0.00884076824856033,0.028633699017151328,-0.3798658758624597
1.75112487262569,2.036222669787879,-0.006495204134592603,0.017361618035327188,-0.2359601240900298
1.7501847019660444,2.0339692017001916,-0.0034013291248351234,0.006359098677177691,-0.09186082154370542
