x,y,v_x,v_y,omega
2.375,32.48,0.0,2.769230769230769,-7.63265306122449
2.373469235945442,31.932292535842983,-0.015307640545582514,2.7078438723393603,-7.186667617089139
2.369084006004898,31.396624573300155,-0.028544658859856166,2.648835753088924,-6.779435847605837
2.36223155945455,30.872536348829655,-0.039979806643621454,2.5920464916160753,-6.406522464348358
2.3532492481195955,30.35959847405383,-0.04984330670592511,2.5373322561421765,-6.064103156311528
2.3424316064848254,29.857408943835686,-0.05833310964177413,2.484563046039249,-5.748866674146797
2.3300362963679366,29.365590555382262,-0.06561999152711306,2.433620838494988,-5.457934885191724
2.3162891234619645,28.883788666180767,-0.07185173753261168,2.384398053519997,-5.188797061927937
2.301388289933317,28.411669233599866,-0.07715659775386019,2.33679627228898,-4.939255538230661
2.2855080142962994,27.94891709049115,-0.08164615861631758,2.290725158798199,-4.707380514086053
2.2688016243006883,27.495234420008913,-0.0854177413397928,2.2461015460241773,-4.491472274168512
2.2514042086667567,27.050339399785003,-0.08855641499952366,2.2028486562149068,-4.290029453065611
2.2334348978143312,26.61396499102688,-0.09113669352473275,2.160895431366325,-4.101722261149886
2.214998831261386,26.185857852404464,-0.09322397200471783,2.120175954857852,-3.9253698022998913
2.196188859376713,25.765777362016614,-0.09487574684201175,2.080628949020659,-3.7599207838493744
2.1770870191104117,25.35349473347776,-0.0961426558210006,2.042197336367878,-3.6044370519396898
2.1577658167803087,24.94879221438788,-0.0970693674800285,2.0048278545309195,-3.4580794904435073
2.1382893456456187,24.551462357257634,-0.09769534386687317,1.9684707167715318,-3.320095905195538
2.118714261607913,24.161307354441668,-0.09805549651018357,1.9330793113881337,-3.1898105821954403
2.0990906367549824,23.778138429853627,-0.09818075201912284,1.8986099344922682,-3.0666152623633365
2.0794627074578007,23.40177528124829,-0.09809854095269298,1.8650215515610722,-2.9499613190953085
2.059869531228195,23.03204556769983,-0.0978332213433642,1.832275583923569,-2.8393529604120396
2.0403455644526525,22.668784437612473,-0.09740644641206243,1.8003357169499692,-2.734341306565978
2.02092117136225,22.31183409319617,-0.09683748449196156,1.7691677272130903,-2.6345192178558565
2.001623073120731,21.961043387844658,-0.09614349792322732,1.738739326302009,-2.5395167671002925
1.9824747446644388,21.616267453283683,-0.09533978663969633,1.7090200193077614,-2.4489972675404448
1.9634967658703035,21.277367353724593,-0.09444000130165693,1.6799809762830997,-2.3626537805070726
1.9447071327296692,20.944209764574893,-0.09345633010468679,1.6515949152139122,-2.280206038504062
1.9261215334404573,20.61666667352975,-0.09239966278743082,1.6238359952375447,-2.2013977288328537
1.90775359367664,20.294615102105013,-0.09127973485074195,1.5966797190098245,-2.1259940908360635
1.8896150947345536,19.97793684587767,-0.09010525457012322,1.5701028432635853,-2.0537797865375675
1.8717161677756047,19.666518231879174,-0.0888840150193654,1.5440832967213718,-1.984557010114754
1.8540654669722074,19.360249891744303,-0.08762299301460735,1.518600104627349,-1.9181438064313352
1.8366703240081788,19.05902654935645,-0.0863284366256806,1.4936333192511662,-1.8543725729292924
1.8195559213075008,18.762753737517578,-0.08481559038109655,1.4690947991375498,-1.7875405122949568
1.80274407105173,18.471340285376225,-0.08330291217661127,1.445039722275974,-1.7237763681897202
1.7862344221596034,18.184691254976002,-0.08179357674465616,1.4214505817262444,-1.6629027150576035
1.7700260287701517,17.902715127733813,-0.08029035714986213,1.3983106906956368,-1.6047543422158235
1.7541174261871555,17.625323645298593,-0.07879566868009867,1.3756041336565663,-1.5491772785058575
1.7385066985288637,17.352431659834316,-0.07731160790281938,1.3533157209862101,-1.496027905323562
1.7231915389941619,17.083956993052922,-0.07583998744419837,1.331430946827726,-1.4451721490793439
1.7081693035517012,16.819820303379906,-0.07438236698040848,1.3099359499024548,-1.396484745140085
1.693437058766548,16.55994496068677,-0.07294008087112262,1.2888174770288794,-1.3498485661827568
1.6789916243980674,16.30425692807113,-0.07151426281368381,1.268062849127543,-1.3051540086617326
1.664829611331565,16.052684650207176,-0.07010586785134061,1.2476599295120039,-1.2622984317716248
1.6509474553434722,15.805158947827525,-0.06871569202958823,1.2275970942845096,-1.221185643887046
1.6373414471444905,15.561612917931903,-0.06734438996022664,1.2078632046717108,-1.1817254319902792
1.6240077590962088,15.321981839349668,-0.06599249052259047,1.1884475811506277,-1.143833130066327
1.610942468953454,15.086203083311762,-0.06466041090495799,1.1693399792284367,-1.1074292228598346
1.5981415809463657,14.854216028713754,-0.06334846916592407,1.1505305667516477,-1.0724389817565758
1.5856010444822626,14.625961981775486,-0.0620568954751083,1.1320099026310333,-1.0387921298792786
1.5733167707172915,14.401384099824543,-0.06078584217460347,1.1137689168784062,-1.0064225337785364
1.5612846472211568,14.180427318950692,-0.05953539278674189,1.0957988918601222,-0.9752679193587251
1.549500550934503,13.963038285296665,-0.05830557007979699,1.0780914446801229,-0.9452696099099869
1.5379603595974318,13.7491652897674,-0.0570963432909132,1.0606385106125176,-0.9163722843237524
1.5266599618088739,13.538758205955126,-0.05590763459466527,1.0434323275102184,-0.8885237537538063
1.515595265859806,13.331768431091898,-0.05473932489601316,1.0264654211220503,-0.8616747551500848
1.5047622074684162,13.12814882985408,-0.05359125901788708,1.0097305912561294,-0.8357787602404203
1.4941567565320195,12.927853680855247,-0.052463250346076816,0.9932208987321923,-0.8107917986682524
1.4837849731109443,12.73102534339164,-0.05125458386467785,0.9750624759038942,-0.8239393374553494
1.473649990853493,12.53781684515549,-0.050095238709833866,0.9570225064576043,-0.8390819559648083
1.463742055592393,12.348204824177795,-0.04898411390116626,0.9390977033193306,-0.8560947949072052
1.4540516389641611,12.162166562249006,-0.047920052381153114,0.9212849159685803,-0.874856194277569
1.4445694489957472,11.979679958142242,-0.04690184730298463,0.9035811250990518,-0.8952474109212181
1.4352864394897717,11.800723501856357,-0.045928247756770985,0.8859834377597846,-0.9171523444501865
1.4261938183166505,11.625276249784406,-0.044997963974441196,0.8684890829597097,-0.9404572703384586
1.4172830547141981,11.45331780071627,-0.04410967205008209,0.851095407721655,-0.9650505790533668
1.4085458856882813,11.284828272586608,-0.04326201820908597,0.8337998735749546,-0.9908225201013375
1.3999743216017448,11.119788279881224,-0.04245362265627852,0.8166000534789057,-1.0176649498788009
1.3915606510331011,10.958178911616088,-0.04168308303015888,0.7994936291724588,-1.045471082223515
1.3832974449813373,10.799981709803966,-0.04094897748747843,0.7824783889487457,-1.074135240557736
1.3751775604886305,10.645178648323451,-0.04024986743958848,0.7655522258563986,-1.103552610502441
1.367194143748744,10.493752112104499,-0.039584299959276904,0.7487131363331209,-1.1336189918209643
1.3593406327653998,10.345684876543118,-0.038950809874165944,0.7319592192806945,-1.1642305485206537
1.35161075962197,10.200960087055588,-0.038347921560133405,0.7152886755946032,-1.195283555902104
1.3439985524213942,10.05956123867955,-0.037774150445623655,0.6986998081657663,-1.2266741432967987
1.3364983369533212,9.921472155625313,-0.037228004235106374,0.6821910223765906,-1.2582980311750485
1.329104738144081,9.786676970675781,-0.0367079838572945,0.6657608271187222,-1.2900502612364941
1.3218126813442497,9.655160104327347,-0.03621258414101883,0.6494078363656071,-1.3218249180145418
1.3146173935082632,9.526906243556851,-0.03574029421884573,0.6331307713393373,-1.3535148404334278
1.3075144043208202,9.40190032009108,-0.035289597655583364,0.6169284633183783,-1.3850113216516475
1.3004995473256904,9.280127488045167,-0.034858972295715114,0.6007998571407551,-1.4162037954078806
1.2935689611140702,9.161573100784466,-0.03444688982048776,0.5847440154662641,-1.4469795069551106
1.286719090631839,9.046222686850697,-0.03405181500182263,0.5687601238714065,-1.4772231665255378
1.2799466886680206,8.934061924777339,-0.033672204636362404,0.5528474968621911,-1.506816583113775
1.2732488175905083,8.825076616600832,-0.03330650613876019,0.5370055849028862,-1.5356382762001075
1.2666228513997626,8.7192526598532,-0.032953155768698145,0.521233982573421,-1.5635630628618056
1.2600664781767907,8.616576017797396,-0.03261057646101947,0.5055324379846345,-1.590461617542709
1.25357770300842,8.51703268763902,-0.03227717522268634,0.48990086359914,-1.6162000015759406
1.2471548514807578,8.420608666416467,-0.03195134005393781,0.4743393486264029,-1.6406391593912513
1.2407965738409743,8.32728991423544,-0.031631436343896056,0.45884817318385573,-1.6636343782013598
1.2345018499383038,8.237062314472897,-0.031315802682808536,0.44342782444155276,-1.685034707871321
1.2282699950676301,8.149911630529147,-0.03100274602392865,0.4280790149959394,-1.7046823376611782
1.2221006668534888,8.065823458654705,-0.030690536117484773,0.412802703748467,-1.7224119266373858
1.2159938733290465,7.984783176320221,-0.030377399126939368,0.39760011959638414,-1.7380498848332222
1.2099499823840176,7.906775885533097,-0.030061510323348365,0.38247278827486947,-1.7514136027884617
1.2039697327780363,7.831786350433642,-0.029740985736465383,0.3674225627196899,-1.7623106280355771
1.198054246942351,7.75979892842723,-0.029413872620388838,0.35245165734443135,-1.7705377885958244
1.1922050458237428,7.690797494028708,-0.029078138565692153,0.33756268664077804,-1.7758802658474873
1.1864240660614611,7.624765354514018,-0.028731659057123608,0.32275870850613164,-1.778110622575516
1.1807136798324378,7.561685156396649,-0.028372203233109964,0.30804327266755877,-1.7769877970960448
1.1750767177545418,7.501538781681322,-0.02799741754584911,0.2934204744857256,-1.772256081764795
1.1695164953057946,7.4443072328068745,-0.027604806941622925,0.2788950142587441,-1.763644114910006
1.1640368433047303,7.3899705051948565,-0.02719171306902029,0.2644722618614368,-1.7508639306757936
1.1586421431117646,7.338507446399927,-0.026755288860638,0.25015832608787525,-1.7336101334017406
1.1533373673662937,7.289895601058909,-0.02629246859407098,0.2359601273222985,-1.7115592947993181
1.148128127289178,7.244111041225466,-0.02579993217708707,0.2218854710121262,-1.684369717252302
1.1430207278864113,7.201128182357738,-0.025274061850577942,0.20794311766514254,-1.6516817705483795
1.1380222328362657,7.160919586344058,-0.024710888650877467,0.1941428424716652,-1.6131190997507323
1.1331405415067195,7.12345575471743,-0.02410602464458402,0.18049547379461386,-1.5682911287402161
1.128384481555785,7.088704917917788,-0.02345457486475968,0.1670128942018187,-1.5167974598692173
1.1237639221097242,7.056632830509386,-0.02275101959584845,0.15370797988221258,-1.4582350097335621
1.1192899149016058,7.027202588152758,-0.021989052485335576,0.14059444368405988,-1.3922090375127103
1.1149748744690462,7.000374490430747,-0.021161351840260773,0.12768653353602483,-1.3183496185817298
1.1108328143052206,6.9761059847956375,-0.020259249797994143,0.11499852281506029,-1.2363355636506932
1.1068796648745647,6.954351740857721,-0.019272244508565926,0.10254391656410365,-1.1459281773841865
1.1031337133541246,6.935063919369384,-0.018187270695834364,0.09033429831927285,-1.047017320906419
1.0996162263791651,6.918192711464833,-0.01698759905375927,0.07837778072623203,-0.9396814085715625
1.0963523498741123,6.9036872188590195,-0.01565116599676775,0.0666771453319106,-0.8242601509372466
1.0933724313819333,6.8914967003476555,-0.014148018925022834,0.05522803978172969,-0.7014324228276713
1.0907139978172222,6.8815720812674,-0.012436316722086962,0.04401815102081082,-0.5722800390628554
1.088424802506528,6.873867342867403,-0.010455636384856516,0.033029232979166476,-0.43830226671572914
1.0865678477564795,6.868339852200467,-0.008113911115627526,0.022245673690204387,-0.3013326200536117
1.0852310868875539,6.864947376772939,-0.0052536975736300435,0.01167908058506538,-0.1633127176417165
1.0845545472797053,6.863633519206214,-0.0015116985048546768,0.001459495082186603,-0.025931969253698478
