x,y,v_x,v_y,omega
2.375,32.48,0.0,2.3076923076923075,-2.1224489795918373
2.374682746492524,32.0456810891886,-0.00333951060501051,2.2640857008487316,-2.0211438156327377
2.3737676129465246,31.619528102826,-0.006293474089718315,2.2217352082312667,-1.9267898094028346
2.3723239308494604,31.20130807932891,-0.008903179563592909,2.180580828580165,-1.838752722636986
2.3704136409661727,30.790799092922644,-0.01120513499732623,2.140566396748995,-1.7564675783725863
2.368092143848581,30.387789554804172,-0.013231676766798067,2.1016392676559397,-1.6794300140670688
2.3654090426362266,29.992077571254246,-0.015011493889565497,2.0637500328696254,-1.607188841230018
2.36240879311751,29.603470352891485,-0.016570079991658944,2.0268522656857595,-1.539339626033664
2.359131273750038,29.22178366998903,-0.01793012387647164,1.9909022911821608,-1.4755191365188072
2.3556122864415916,28.846841349392108,-0.019111847791382506,1.955858978259139,-1.4154005274921762
2.3518839973039776,28.4784748091028,-0.02013330102560844,1.9216835511019852,-1.3586891551315774
2.3479753252563964,28.116522627051403,-0.02101061526471772,1.8883394178600819,-1.3051189305567572
2.3439122852293117,27.760830140964227,-0.021758227125650245,1.8557920146365152,-1.2544491358840106
2.3397182917683916,27.411249076576034,-0.022389072462979165,1.8240086631339298,-1.20646163811668
2.3354144280319162,27.067637201729358,-0.02291475634202489,1.7929584405152803,-1.1609584460761584
2.3310196844901143,26.729858004159603,-0.023345701992732705,1.76261206021901,-1.1177595638059972
2.3265511710516478,26.39778039098966,-0.02369128157007401,1.7329417626225063,-1.076701100773317
2.322024305844572,26.071278408155425,-0.023959931135984096,1.7039212145799347,-1.0376336049803712
2.317452983453176,25.75023097815777,-0.024159251931344248,1.6755254169743454,-1.0004205899745569
2.3128497250469175,25.434521654690595,-0.024296099713483968,1.647730619522225,-0.9649372308622257
2.30822581252394,25.124038392831366,-0.024376663686280556,1.620514242153872,-0.9310692079170927
2.3035914085215485,24.818673333601875,-0.0244065363388889,1.5938548023670924,-0.8987116793319286
2.298955663913058,24.51832260181544,-0.02439077532943196,1.5677318480163984,-0.8677683671783523
2.2943268142090814,24.222886116223513,-0.02433395839664219,1.5421258950565255,-0.8381507427847298
2.2897122661070237,23.93226741106131,-0.024240232151329404,1.5170183698088113,-0.8097772995751898
2.2851186752813617,23.64637346817001,-0.024113355487217162,1.4923915553627636,-0.7825729029823365
2.280554529042548,23.365115328067134,-0.023930289131875837,1.4682204457201475,-0.7552937909435993
2.276027081437576,23.088407135104248,-0.023727054078356954,1.4444973749418346,-0.7292190625296987
2.271539937965373,22.816165229651368,-0.02350603510272518,1.421206892983209,-0.7042816334287627
2.267096272851742,22.548308823173684,-0.023269387146023692,1.3983342278345114,-0.6804188601449167
2.262698870601068,22.284759872969097,-0.02301905759791109,1.375865248003227,-0.6575721992987638
2.258350163530815,22.025442963799307,-0.022756806299487432,1.353786427468257,-0.6356868965505548
2.2540522656984705,21.770285195962792,-0.022484223514669808,1.3320848129161034,-0.6147117022726356
2.2498070035859983,21.5192160793926,-0.022202746090301623,1.310747993085933,-0.5945986114048599
2.2456159438674526,21.27216743339322,-0.021913671999650948,1.2897640700653894,-0.5753026251979502
2.2414804185505353,21.02907329165972,-0.0216181734415864,1.2691216323925538,-0.5567815327897886
2.237401547752015,20.78986981224842,-0.021317308648096334,1.2488097298316827,-0.5389957107722404
2.233380260339566,20.554495192192775,-0.021012032535580538,1.2288178497014155,-0.5219079390947244
2.2294173126482684,20.322889586479942,-0.020703206320183788,1.209135894644168,-0.5054832318182931
2.2255133054584624,20.094995031123965,-0.02039160620409129,1.189754161734517,-0.48968868138300864
2.2216686994024193,19.870755370090087,-0.020077931227937083,1.1706633228326397,-0.4744933151841202
2.217883828950227,19.65011618584183,-0.01976281037408878,1.1518544060963714,-0.4598679633708921
2.214158915110031,19.43302473329831,-0.01944680899639297,1.1333187785722842,-0.4457851368875881
2.2104940769642085,19.219429877003662,-0.0191304346438459,1.1150481297924082,-0.43221891487055686
2.2068893421508893,19.00928203132404,-0.018814142338463277,1.0970344563088925,-0.4191448405998745
2.2033446563894166,18.802533103499805,-0.018498339361248697,1.0792700471040961,-0.40653982527971555
2.1998598921386203,18.599136439392176,-0.01818338959450307,1.0617474698183271,-0.3943820589895322
2.1964348564680916,18.39904677177396,-0.017869617463692596,1.0444595577417888,-0.3826509282090936
2.1930692982148665,18.202220171023974,-0.017557311517624317,1.0273993975212607,-0.37132693937524425
2.1897629144909305,18.008613998093566,-0.01724672768170145,1.0105603175356794,-0.36039164797755374
2.1865153566006974,17.81818685962235,-0.01693809221548741,0.9939358768981238,-0.3498275927444447
2.1833280116797273,17.631100170156607,-0.01661290695261891,0.9753976964255401,-0.38151521425801166
2.1801993927175536,17.44752548893492,-0.01631992422815842,0.9569673690658778,-0.4146256082941
2.1771234473500063,17.267442589784515,-0.016058448061812593,0.93864209567524,-0.4490541123584524
2.1740942608103198,17.09083176810706,-0.015827726040153436,0.9204191851400694,-0.48469792202581563
2.1711060661350023,16.917673820668092,-0.015626954752657213,0.9022960510596022,-0.5214558672189048
2.1681532533826107,16.74795002598223,-0.015455284746206535,0.884270208791554,-0.5592281910087189
2.165230377954007,16.581642125225628,-0.015311825028568215,0.8663392728568781,-0.597916330008001
2.162332168097214,16.41873230360753,-0.015195647148200434,0.8485009547020407,-0.6374226954156582
2.159453531675038,16.25920317213294,-0.015105788874704556,0.8307530608199779,-0.6776504537485828
2.156589562269318,16.103037749687832,-0.01504125750129274,0.8130934912337623,-0.7185033062681311
2.1537355446918576,15.950219445377368,-0.015001032787766135,0.795520238350069,-0.759885266071012
2.150886959968852,15.80073204104579,-0.014984069559662756,0.7780313861928275,-0.8017004317679274
2.1480394898629247,15.654559673904526,-0.014989299976411416,0.7606251100310292,-0.8438527566172844
2.1451890209947093,15.511686819191812,-0.015015635478489135,0.743299676418597,-0.8862458119148701
2.1423316486242867,15.372098272783532,-0.01506196842069382,0.726053443668575,-0.9287825433626129
2.1394636801517315,15.235779133670086,-0.015127173395678765,0.7088848627887396,-0.9713650190494398
2.1365816383955045,15.102714786208594,-0.015210108248815484,0.6917924789111629,-1.0138941675735995
2.133682264707556,14.97289088205287,-0.015309614782218222,0.6747749332543758,-1.0562695047174133
2.1307625219847237,14.84629332165565,-0.015424519142334893,0.6578309656636971,-1.0983888469508576
2.1278195976374272,14.7229082352282,-0.015553631881838921,0.6409594177831608,-1.1401480098882006
2.124850906578806,14.602721963031264,-0.015695747682592652,0.6241592369214387,-1.181440489650621
2.1218540943003568,14.48572103485871,-0.0158496447221381,0.607429480684413,-1.2221571248957785
2.118827040103917,14.371892148560104,-0.016014083661439825,0.5907693224588016,-1.2621857370612843
2.1157678605645733,14.261222147431269,-0.016187806226385024,0.5741780578447354,-1.3014107461316773
2.1126749133048404,14.153697996281704,-0.01636953334975425,0.5576551121507017,-1.3397127589770852
2.1095468011673915,14.049306755964587,-0.016557962833919193,0.5412000490821165,-1.3769681270260887
2.106382376881876,13.94803555612813,-0.016751766487293793,0.5248125807753286,-1.4130484697264465
2.1031807483310367,13.849871565915986,-0.01694958667943841,0.5084925793524796,-1.44782015991802
2.0999412845326875,13.754801962308523,-0.017150032250551336,0.49224009019976767,-1.4811437668978074
2.0966636224673176,13.662813895755285,-0.017351673700710737,0.4760553472027336,-1.5128734526067344
2.093347674896367,13.5738944527013,-0.01755303757245656,0.4599387902076469,-1.5428563160267423
2.0899936393339287,13.488030614554834,-0.01775259992688988,0.4438910850182989,-1.5709316805681681
2.0866020083550523,13.40520921258123,-0.017948778798128093,0.42791314628279986,-1.5969303189870634
2.083173581447364,13.325416878135204,-0.01813992549332616,0.41200616367535936,-1.6206736102533552
2.0797094786399146,13.248639987561894,-0.01832431458509119,0.39617163183315124,-1.641972622872828
2.076211156174492,13.174864601003865,-0.018500132419359144,0.3804113845671585,-1.6606271195654483
2.07268042452094,13.104076394246999,-0.018665463933815726,0.3647276339261672,-1.6764244790906002
2.0691194690801185,13.036260582622688,-0.01881827754851452,0.34912301475080204,-1.689138532636484
2.0655308739672886,12.9714018358581,-0.018956407849693893,0.3336006354027608,-1.6985283149216919
2.061917649326531,12.90948418263357,-0.019077535737232386,0.31816413538177396,-1.7043367345255964
2.0582832626955456,12.850490903471872,-0.019179165641559283,0.30281775053083665,-1.7062891747509077
2.0546316750231894,12.794404410458728,-0.01925859933061006,0.28756638644962657,-1.7040920466680323
2.050967382044226,12.741206112194643,-0.019312905711111165,0.2724157005407546,-1.6974313315685476
2.0472954618445804,12.69087626233372,-0.019338885864104725,0.2573721927321183,-1.68597117331439
2.0436216296176286,12.64339379012128,-0.01933303231433526,0.242443304240925,-1.6693526156009433
2.0399523008365326,12.598736111571167,-0.01929148117088712,0.22763752260236567,-1.647192630209403
2.036294664379809,12.556878920438237,-0.01920995521567693,0.21296448932322223,-1.619083657559943
2.0326567675970746,12.517795959114657,-0.019083695128896013,0.19843510355657432,-1.5845939913484006
2.0290476159717823,12.481458771272635,-0.01890737461102196,0.1840616105699933,-1.5432695004810213
2.025477291065124,12.447836440881506,-0.018674992827487476,0.16985765670503727,-1.4946374156660893
2.0219570920397056,12.416895326710126,-0.018379733755865074,0.1558382819410733,-1.4382132434531074
2.018499708647316,12.388598808373501,-0.018013775637705363,0.14201980581285586,-1.3735123410335697
2.0151194377636608,12.362907070411875,-0.01756802313761616,0.1284195411516383,-1.3000683212002417
2.0118324624289983,12.33977696591992,-0.01703171722725427,0.11505524297418664,-1.2174612595281318
2.0086572236548275,12.319162021613785,-0.016391848816648732,0.10194417077460038,-1.125359550481911
2.0056149338097575,12.30101267097102,-0.015632254815665315,0.08910162546504878,-1.0235798664935434
2.0027303107240897,12.285276825444083,-0.014732198717679402,0.0765388537658801,-0.9121691345196093
2.00003266112706,12.271900898853715,-0.013664112830004039,0.06426037350114111,-0.7915088632307113
1.9975575241796437,12.260831347945693,-0.012389960300691394,0.05226121500436769,-0.6624322027567402
1.995349233421618,12.252016606614063,-0.010855205573262736,0.040525535854884304,-0.5263238165979441
1.9934650781576702,12.245408840257877,-0.00897800773145327,0.02902989947340004,-0.38514198288053714
1.9919827091619968,12.24096395614177,-0.006625876433527689,0.017758354380368737,-0.24127492091118324
1.9910166342941835,12.238635467798542,-0.0035433327013489266,0.006752049232562013,-0.0971508936231194
