x,y,v_x,v_y,omega
2.375,32.48,0.0,3.3846153846153846,-5.795918367346939
2.373024156599022,31.712632235901047,-0.01718124696502374,3.28814778146244,-5.334491292325124
2.367454262641217,30.966874577763715,-0.03125261353763058,3.196701419731746,-4.928684521905814
2.358943052239876,30.24162014248512,-0.04275791169142307,3.109858887038639,-4.569904495207761
2.348030036705271,29.53585241847313,-0.05213787556601132,3.027251756543885,-4.251119788931207
2.335162739624352,28.848634892784794,-0.059751664268065774,2.9485528146590356,-3.966538525299925
2.3207135545820523,28.179102283207488,-0.06589342305627875,2.873469877317561,-3.7113601226566986
2.304993218367253,27.526453055282257,-0.07080515272458912,2.801740800293143,-3.4815824715895247
2.2882616449964495,26.88994298203864,-0.07468678963022218,2.7331294018252486,-3.2738508953316607
2.270736686104086,26.26887956014255,-0.07770415725989356,2.6674220929233767,-3.085338926357812
2.2526012508960145,25.662617137058156,-0.07999527933203379,2.604425064332221,-2.9136535286021275
2.2340091202789156,25.070552634203903,-0.08167542168621597,2.5439619170091134,-2.756759257223648
2.2150897155849987,24.49212177398364,-0.08284114086958445,2.4858716501235922,-2.6129172000160144
2.1959520259583027,23.926795736079136,-0.08357355153646788,2.430006940350376,-2.480635537272804
2.1766878553125117,23.374078181946082,-0.08394097581823287,2.376232660806597,-2.3586292931533874
2.157374516472912,22.833502597081726,-0.08400110104785304,2.3244245988834704,-2.24578740267232
2.138077074249645,22.304629909055674,-0.0838027443718588,2.2744683404734993,-2.1411456344234714
2.1188502189713643,21.78704634604349,-0.08338730152623561,2.2262582944150657,-2.0438642256182704
2.0997398361133395,21.28036150606036,-0.08278994071745872,2.1796968358730284,-1.953209328516598
2.0807843250905336,20.78420661154606,-0.08204058991563762,2.134693551207836,-1.868537554399074
2.0620157103059595,20.298232927616674,-0.08116475603718042,2.0911645699172765,-1.7892830464484462
2.0434605795791443,19.822110325335913,-0.08018420680469196,2.0490319716545304,-1.7149466263043145
2.025140878693718,19.35552597389413,-0.07911754002509984,2.008223258274008,-1.6450866480956796
2.0070745856621777,18.898183147712345,-0.07798066024916321,1.9686708824371688,-1.5793112640391151
1.9892762841504779,18.44980013628773,-0.07678717898300931,1.9303118256029643,-1.5172718614448437
1.9717576521335574,18.010109246124852,-0.07554875159890886,1.8930872192916366,-1.4586574754119372
1.9545278791073735,17.578855885401197,-0.07427536167225535,1.8569420043923444,-1.4031900170740597
1.9375940229394921,17.155797723133762,-0.07297556152671232,1.8218246240201061,-1.3506201858677562
1.920961315600856,16.740703915576432,-0.071656676200558,1.7876867460436539,-1.300723957396778
1.9046334255084214,16.333354393410048,-0.07032497677713342,1.7544830119248858,-1.2532995571931893
1.8886126829601388,15.933539204009431,-0.06898582799054181,1.7221708089500538,-1.2081648459152416
1.8729002741108889,15.541057903699926,-0.06764381417684875,1.6907100633065077,-1.1651550539684052
1.8574964080808978,15.155718995465222,-0.0663028469535099,1.6600630517778896,-1.1241208137373282
1.8424004610749645,14.777339408048785,-0.0649662574459103,1.6301942301041785,-1.0849264460063452
1.8276111007958304,14.405744012813653,-0.06363687541612321,1.6010700762882741,-1.0474484640689203
1.8131263939373357,14.0407651750971,-0.06231709726644024,1.5726589473339094,-1.0115742647568242
1.7989438991257085,13.682242337125011,-0.0610089445737979,1.5449309480755578,-0.9772009803779365
1.7850607473266096,13.33002162984124,-0.05971411454880093,1.5178578109137582,-0.9442344695140965
1.7714737114400905,12.983955511264892,-0.05843402359484337,1.4914127854023331,-0.9125884279399916
1.7582025454608896,12.643905241238478,-0.05696741970255516,1.4655460843925538,-0.8763539273813898
1.745264718575736,12.309737546337203,-0.05553542277704318,1.4402599582272397,-0.841969537714027
1.7326522789267211,11.98132153133912,-0.05413796547525744,1.4155314765386973,-0.8093168845783096
1.7203573058663009,11.658531440246477,-0.05277484374578884,1.3913388807886233,-0.7782866044830963
1.7083719387810508,11.341246395386122,-0.051445739604212636,1.3676615093014397,-0.7487775510206189
1.6966884010443677,11.02935015309507,-0.05015024071476971,1.3444797280120577,-0.7206960802515046
1.6852990197817377,10.722730874735163,-0.048887857221143236,1.3217748664219322,-0.6939554064630767
1.674196242037639,10.421280911891184,-0.04765803620580226,1.299529158308326,-0.6684750205793248
1.663372647852063,10.124896604706372,-0.04646017410355412,1.2777256867769875,-0.6441801644330288
1.6528209606850086,9.83347809239882,-0.04529362734909097,1.2563483332886611,-0.6210013549200868
1.6425340555674561,9.546929135083175,-0.044157721499192344,1.2353817303256405,-0.5988739527605142
1.6325049653058148,9.265156946095132,-0.04305175903681937,1.2148112173964771,-0.5777377712046193
1.6227268850224708,8.98807203408241,-0.04197502603573725,1.1946228001054366,-0.5575367205590336
1.6131931752767839,8.715588054185826,-0.04092679783980147,1.1748031120387648,-0.5382184848762628
1.6038973639778538,8.447621667688466,-0.03990634389002502,1.1553393792426316,-0.5197342275623116
1.5948331472718342,8.184092409560435,-0.03891293181449167,1.1362193870880812,-0.5020383230175086
1.5859943895618924,7.924922563371588,-0.037945830880656596,1.117431449336686,-0.4850881117425716
1.5773751227975525,7.6700370430856,-0.03700431489621089,1.0989643792371315,-0.46884367662092147
1.568969545151674,7.419363281286078,-0.036087664633167926,1.0808074624978428,-0.4532676383341865
1.5607720191872723,7.1728311234194955,-0.03519516983989132,1.0629504319941787,-0.43832496808496785
1.5527770696025067,6.930372727670868,-0.03432613089720075,1.0453834440808496,-0.4239828159929049
1.5449793806300922,6.691922470116587,-0.03347986016727181,1.0280970563911624,-0.41021035370004416
1.5373737931569291,6.457416854824924,-0.03265568307762498,1.011082207014618,-0.3969786298721981
1.5299553016206544,6.226794428598605,-0.031852938976937695,0.9943301949533729,-0.384260437416752
1.522725836643994,6.000097484561195,-0.03101197386358912,0.976947579284974,-0.3899187527817029
1.5156856008988682,5.777383588643236,-0.03020746739837318,0.9596949939146646,-0.3980327684778036
1.5088262055901218,5.55862328595342,-0.02943944832985573,0.9425685077358965,-0.40846862281214696
1.5021392703873508,5.343788006877318,-0.02870781430293596,0.9255643537954147,-0.4210969361329553
1.4956164521914623,5.132850030238785,-0.028012343922180653,0.9086789213222604,-0.4357924897511176
1.4892494712408677,4.925782448226158,-0.027352707822119786,0.8919087483527506,-0.45243391873786387
1.4830301347769423,4.722559132950085,-0.026728478820711332,0.8752505149174502,-0.470903417241906
1.476950358471587,4.523154704507199,-0.0261391412258551,0.8587010367598187,-0.49108645503614984
1.47100218580433,4.327544500430456,-0.025584099358989452,0.8422572595596769,-0.5128715040613759
1.4651778055622913,4.135704546412729,-0.025062685354391306,0.8259162536379507,-0.5361497737825464
1.4594695676234422,3.9476115281952957,-0.024574166287773595,0.8096752091223244,-0.5608149542129641
1.4538699971717923,3.7632427645172264,-0.02411775068309377,0.7935314315565272,-0.5867629654926413
1.4483718074823937,3.582576181025239,-0.023692594442113267,0.7774823379390053,-0.6138917129300829
1.442967911404279,3.405590285046582,-0.023297806237144877,0.7615254531797369,-0.6421008464313286
1.4376514316605982,3.2322641411297113,-0.022932452403558252,0.7456584069669601,-0.6712915232464896
1.4324157100772195,3.062577347259065,-0.022595561364951174,0.7298789310386535,-0.7013661729620617
1.4272543158439037,2.896510011651092,-0.02228612762040348,0.7141848568567528,-0.7322282636567738
1.4221610529057709,2.734042730038748,-0.02200311531988164,0.6985741136853713,-0.7637820681193423
1.4171299665771628,2.5751565633509905,-0.02174546145062387,0.6830447270777494,-0.7959324289978472
1.4121553494651105,2.4198330156923085,-0.021512078654178576,0.6675948177803409,-0.8285845217120142
1.4072317467854538,2.2680540125249316,-0.021301857690661213,0.6522226010664157,-0.8616436139108812
1.4023539611512017,2.1198018789529662,-0.021113669563705518,0.6369263865158827,-0.8950148201984179
1.3975170569099804,1.9750593180034208,-0.020946367316480762,0.6217045782627791,-0.9286028507778477
1.3927163641053957,1.83380938879343,-0.02079878750599303,0.606555675737131,-0.9623117525807416
1.387947482135847,1.6960354844662788,-0.02066975135964827,0.5914782749337484,-0.9960446413483979
1.3832062831837983,1.5617213097704834,-0.02055806561468837,0.5764710702470942,-1.0297034230194526
1.378488915488788,1.4308508581464068,-0.020462523037575574,0.5615328569187845,-1.0631885026479098
1.3737918065385524,1.3034083881731888,-0.02038190261664766,0.5466625341526838,-1.0963984789285917
1.3691116662546432,1.1793783992149862,-0.020314969417344498,0.5318591089621232,-1.1292298222412234
1.3644454902518786,1.0587456060895057,-0.020260474084957524,0.5171217008246777,-1.1615765339388713
1.3597905632549705,0.9414949125629377,-0.020217151975112414,0.5024495472324235,-1.193329784400443
1.355144462760829,0.8276113834536218,-0.020183721886988724,0.48784201023988993,-1.224377527140034
1.3505050630414448,0.7170802151012765,-0.02015888436852551,0.4732985841283205,-1.2546040860184196
1.345870539590071,0.6098867039292983,-0.0201413195564644,0.4588189043236688,-1.2838897123354558
1.3412393741227804,0.5060162127934333,-0.02012968450693276,0.4444027577273165,-1.3121101082998332
1.3366103602585953,0.40545413477082803,-0.02012260996424317,0.4300500946431855,-1.3391359130804423
1.3319826100144558,0.3081858539978555,-0.0201186965065335,0.4157610425130888,-1.3648321473513634
1.3273555612665935,0.21419670311286865,-0.02011650999661781,0.40153592170418206,-1.389057611965735
1.3227289863476865,0.123471916799609,-0.020114576254747864,0.387375263628527,-1.4116642361563454
1.3181030019698778,0.03599658085807533,-0.020111374856631864,0.3732798315152188,-1.4324963704986937
1.3134780806877269,-0.04824442384919081,-0.02010533194468155,0.3592506442001594,-1.4513900198389944
1.308855064142988,-0.129266483317096,-0.02009481192261432,0.3452890033468435,-1.4681720115640386
1.3042351783653863,-0.20708531902663907,-0.020078107882617307,0.3313965245622077,-1.482659095087669
1.2996200514411003,-0.2817170642373483,-0.020053430589435216,0.31757517292223364,-1.4946569694189402
1.2950117339045046,-0.353178349022258,-0.020018895815744113,0.3038273034683091,-1.50395923740641
1.2904127222602821,-0.4214863952571761,-0.019972509786191226,0.2901557072701141,-1.5103462880809135
1.2858259861041859,-0.4866591229143964,-0.019912152440732286,0.2765636636622563,-1.5135841129697192
1.2812549993842903,-0.5487152691471522,-0.019835558167054495,0.26305499923125375,-1.5134230690928925
1.2767037764345184,-0.6076745217718695,-0.01974029357009295,0.24963415402717168,-1.5095966116950452
1.2721769135246666,-0.6635576688392248,-0.019623731732967088,0.2363062552541819,-1.5018200352454238
1.267679636815439,-0.7163867659962619,-0.019483022260315248,0.2230771982852981,-1.48978928424496
1.2632178577979147,-0.7661853232251019,-0.01931505615294027,0.20995373413937748,-1.4731799294014178
1.2587982375580113,-0.8129785122106625,-0.019116424194045637,0.19694356138722083,-1.4516464548627166
1.254428261576118,-0.8567933949056012,-0.01888336695285371,0.18405541856877802,-1.4248220758127221
1.2501163273126423,-0.8976591726181198,-0.018611713599107533,0.17129917023575886,-1.392319413417568
1.2458718476447992,-0.9356074528374165,-0.01829680525170211,0.1586858751494605,-1.353732510757239
1.2417053744791242,-0.9706725275749193,-0.017933396188949666,0.1462278182201299,-1.3086408992321192
1.2376287488511932,-1.0028916515838873,-0.017515522314798235,0.13393847751003898,-1.2566167457812767
1.2336552870088635,-1.0323053005383684,-0.017036319792417633,0.12183238296371261,-1.197236555626342
1.2298000171347292,-1.0589573770072676,-0.016487766069619287,0.1099248037223782,-1.1300994936034177
1.2260799897693693,-1.0828953147581828,-0.015860297976989353,0.09823117672034386,-1.0548551014998766
1.2225146987031479,-1.1041700091799527,-0.015142233033631144,0.08676616607762445,-0.9712438996609714
1.2191266713696123,-1.1228354755304366,-0.014318874214503806,0.0755422369700669,-0.8791546698432039
1.2159423237213318,-1.1389481158827621,-0.013371105335761328,0.0645676791371203,-0.7787011604955262
1.2129932325734838,-1.1525654828393144,-0.012273165515091855,0.05384420744157721,-0.6703165890696617
1.2103180747088234,-1.1637445127112116,-0.010989076786303028,0.043364747966205416,-0.5548535205234005
1.2079656603787874,-1.1725394543809884,-0.009466699996619064,0.03311300568400313,-0.43365654641525125
1.2059999087057829,-1.1790002985576749,-0.007626792812115471,0.023068248026331117,-0.3085481967316014
1.2045089905913815,-1.1831737937364437,-0.005337712530505164,0.013223014397761801,-0.18165075812915082
1.2036276294485724,-1.1851134452889482,-0.002326297406965642,0.003643520841408357,-0.05498930354933268
