x,y,v_x,v_y,omega
2.375,32.48,0.0,2.9743589743589745,-2.0
2.3746384352105596,31.950288880697528,-0.004017386549338591,2.911320129001804,-1.8871833333973336
2.373601967064276,31.43172611918017,-0.007498926187146332,2.85048833230219,-1.7837734261191533
2.3719809449152853,30.923925530984857,-0.010512431023858789,2.7917404254234937,-1.6887446956220282
2.3698543476622103,30.426522278036025,-0.013116427343641306,2.7349623851190774,-1.6012040918077537
2.367291329658532,29.9391713014132,-0.015361550475011731,2.6800484662456383,-1.5203716337698532
2.3643525361515794,29.4615458995656,-0.017291710713346127,2.626900443172152,-1.4455641233185694
2.361091225788732,28.993336435412704,-0.018945071096068754,2.5754269363044666,-1.3761814671078494
2.3575542310916,28.53424915804473,-0.020354869983174345,2.5255428122285792,-1.3116951494533924
2.3537827824278823,28.08400512664054,-0.021550115169247645,2.4771686478179324,-1.2516384851425357
2.34981321664658,27.642339225823573,-0.0225561712896679,2.4302302501484077,-1.1955983508592838
2.345677587982679,27.208999263033913,-0.023395258309234154,2.38465822529224,-1.143208149211284
2.3414041959231597,26.78374513965089,-0.02408687568542108,2.34038759007472,-1.0941418037593968
2.337018042331847,26.366348088589525,-0.02464816421805256,2.297357421718204,-1.0481086192325533
2.3325412281567006,25.95658997194488,-0.02509421550579448,2.2555105410000658,-1.0048488700559512
2.327993298410602,25.5542626329922,-0.025438337228634915,2.2147932251408533,-0.9641300038268273
2.323391542762212,25.159167297487222,-0.025692281086811593,2.175154947136648,-0.9257433655323972
2.3187512579463667,24.771114019764457,-0.025866439089248978,2.136548138671855,-0.889501363978497
2.314085977262834,24.389921169614233,-0.025970012950001314,2.0989279741084057,-0.8552350147635007
2.309407671645052,24.01541495634251,-0.02601116058091409,2.062252173355188,-0.8227918047282653
2.3047269261198946,23.647428986788807,-0.025997123031942317,2.0264808216859587,-0.7920338315674779
2.300053094923782,23.28580385440489,-0.025934334702644193,1.9915762048019967,-0.7628361795431984
2.295394438071691,22.930386756785744,-0.02582851920947879,1.9575026576330037,-0.7350854982722352
2.290758241779346,22.581031139300084,-0.025684772927681704,1.9242264255409731,-0.7086787565863774
2.2861509248029894,22.237596362694724,-0.025507637920726824,1.8917155367408107,-0.6835221476670702
2.281578132475847,21.899947392748704,-0.025301165714192823,1.8599396848816268,-0.6595301251786825
2.2770448199775584,21.567954510233164,-0.025068973155677726,1.8288701208465616,-0.6366245530848037
2.272555326165635,21.241493039593365,-0.024814291421250006,1.7984795529290059,-0.6147339543261225
2.268113439120877,20.92044309491296,-0.02454000907606099,1.7687420546310624,-0.5937928456449447
2.2637224544069596,20.604689341849472,-0.0242487099674646,1.7396329794076892,-0.5737411476248169
2.25938522691414,20.294120774345412,-0.023942706619421036,1.7111288817485322,-0.5545236605271071
2.255104217045041,19.98863050502353,-0.023624069703899967,1.6832074440501905,-0.536089597793539
2.250881531903968,19.68811556826831,-0.023294654085797197,1.6558474087855466,-0.5183921701808242
2.246718962067916,19.392476735080386,-0.022956121870337617,1.6290285155247033,-0.5013882144307377
2.242618014445405,19.101618338866736,-0.02260996282422845,1.6027314424047492,-0.4850378611812272
2.2385799416669063,18.81544811139878,-0.022257512492425125,1.5769377516836478,-0.4693042375122689
2.2346057683964875,18.533877028232972,-0.021899968290004464,1.551629839047575,-0.4541532001115905
2.230696314907286,18.256819162945256,-0.021538403812238757,1.5267908863714923,-0.439553095554656
2.2268522182224673,17.984191549582416,-0.021173781574635345,1.5024048176600588,-0.4254745446326775
2.2230739510876574,17.715914052780164,-0.020806964367696218,1.4784562579204974,-0.41189024804218777
2.2193635178425786,17.45190957308857,-0.020420071688732423,1.4549268497638919,-0.39812354705717506
2.2157224328140535,17.192103585107652,-0.020036428628214278,1.431806350024101,-0.3849333231990075
2.2121500762626165,16.93642370072115,-0.01965642194330858,1.4090812542703455,-0.3722890123580327
2.20864576384275,16.68479991199048,-0.019280382721874517,1.3867386205148537,-0.36016197569495517
2.2052087560786977,16.43716449257571,-0.018908592434262777,1.3647660396492924,-0.34852535897710435
2.2018382668090974,16.193451904312216,-0.018541288339073345,1.3431516077228955,-0.3373539635650241
2.1985334707102884,15.953598708623527,-0.018178668314361063,1.321883899929206,-0.32662412797278206
2.1952935099960262,15.717543482473765,-0.017820895177440753,1.300951946179253,-0.3163136190349919
2.1921175003806344,15.485226738584231,-0.017468100549135737,1.2803452081488982,-0.30640153181097357
2.189004536383141,15.256590849658092,-0.01712038831190053,1.2600535576970973,-0.2968681974432003
2.1859536960415644,15.031579976374953,-0.016777837705614147,1.2400672565600164,-0.2876950982644753
2.1829640450990695,14.810139998933543,-0.016440506099884993,1.2203769372334292,-0.27886478951725047
2.180034640717119,14.5922184519359,-0.01610843147734505,1.2009735849626266,-0.27036082711011455
2.177164534764887,14.377764462420387,-0.015781634658565205,1.1818485207653,-0.2621677008915888
2.1743527767289916,14.166728690863842,-0.015460121295830355,1.1629933854185464,-0.2542707729707148
2.1715984162829653,13.959063274985002,-0.015143883660015761,1.1444001243463426,-0.2466562206581572
2.16890050555177,13.754721776192458,-0.014832902242156696,1.126060973348605,-0.23931098364124195
2.1662581011029696,13.553659128530526,-0.014527147188958539,1.1079684451173075,-0.23222271504201658
2.1636702656929154,13.355831589985947,-0.014226579589417629,1.0901153164891404,-0.22537973603949174
2.1611360697933586,13.161196696027016,-0.013931152627881882,1.0724946163878633,-0.21877099376610004
2.1586545929212972,12.969713215254949,-0.013640812617246189,1.055099614412882,-0.21238602221442787
2.1562249247925376,12.781341107054757,-0.013355499924526454,1.0379238100336798,-0.20621490591374944
2.153846166317351,12.596041481139991,-0.01307514979976621,1.0209609223525948,-0.2002482461570859
2.151517430454745,12.413776558892163,-0.012799693118082111,1.0042048804010582,-0.19447712957866886
2.1492378429401904,12.234509636401754,-0.012529057043632882,0.9876498139368362,-0.18889309889901576
2.147008568306483,12.058425496056604,-0.01224066110867558,0.9688406343425947,-0.2318310327625747
2.1448277265475584,11.88571804167173,-0.011990913990485914,0.9501310810448825,-0.2758118992204475
2.142688474077904,11.716369560451994,-0.0117785578945612,0.9315187102855007,-0.32073986055395803
2.1405841953419698,11.550362771114244,-0.011602316949152187,0.9130011712450675,-0.3665201898841395
2.138508505816198,11.387680807347731,-0.011460900003866875,0.894576203938414,-0.41305906313731827
2.1364552545358233,11.228307201623942,-0.011353003111409753,0.8762416374370353,-0.4602633506663838
2.1344185262019817,11.072225869296624,-0.011277311709051191,0.8579953884220403,-0.5080404075901048
2.1323926429219138,10.919421092931998,-0.011232502513928199,0.8398354600737967,-0.5562978618769149
2.1303721656327177,10.769877506807685,-0.011217245143804828,0.8217599413074459,-0.6049433991551074
2.1283518952572553,10.623580081517012,-0.011230203472442713,0.8037670063666872,-0.6538845431776615
2.1263268736393752,10.480514108612748,-0.011270036726222885,0.7858549147917826,-0.7030284308061326
2.1242923843046673,10.340665185221141,-0.011335400326090648,0.7680220117816495,-0.7522815803032651
2.122243953092458,10.204019198553109,-0.011424946476235263,0.7502667289742772,-0.801549651637131
2.1201773487047646,10.07056231023471,-0.011537324498132138,0.7325875856745959,-0.8507371973994716
2.118088583218426,9.940280940373196,-0.011671180905630745,0.7149831905644466,-0.8997474028261442
2.115973912607693,9.813161751268197,-0.011825159213626063,0.697452243935542,-0.9484818132766517
2.1138298373262154,9.68919163066959,-0.011997899469460376,0.6799935404934245,-0.9968400473809932
2.1116531029996373,9.568357674474214,-0.012188037492515605,0.6626059727885394,-1.0447194938937012
2.1094407012830034,9.450647168742659,-0.012394203803417759,0.6452885353398381,-1.0920149901050167
2.107189870940912,9.336047570904643,-0.012615022219821338,0.6280403295270123,-1.1386184794456655
2.104898099212956,9.224546490006635,-0.01284910809080091,0.6108605693397494,-1.184418645682637
2.102563123532511,9.116131665838264,-0.013095066136368327,0.5937485880865899,-1.2293005208367775
2.1001829336735156,9.01079094675406,-0.013351487852464781,0.5767038461823457,-1.273145063657261
2.0977557744076583,8.908512265983969,-0.013616948434841458,0.559725940151984,-1.3158287051619306
2.0952801487634547,8.80928361619932,-0.01389000316742032,0.5428146130107905,-1.3572228573958922
2.0927548219893177,8.713093022069813,-0.014169183211878624,0.5259697662059674,-1.397193381174831
2.0901788263349834,8.619928510511208,-0.014452990725166995,0.5091914733340991,-1.4356000081678697
2.0875514667798947,8.529778078281698,-0.014739893220265017,0.49247999588270225,-1.4722957122444602
2.0848723278535477,8.442629656536791,-0.015028317072482129,0.4758358012829248,-1.507126024573197
2.0821412817117353,8.35847107189688,-0.01531664005876627,0.4592595836049683,-1.539928286537822
2.079358497654403,8.277290003517372,-0.015603182800476439,0.44275228727846394,-1.5705308341589765
2.0765244532959133,8.199073935577363,-0.015886198960524556,0.4263151342771848,-1.598752107428508
2.0736399476273766,8.123810104518014,-0.016163864023213268,0.4099496552711192,-1.6243996778505494
2.07070611624399,8.051485440264951,-0.016434262458860347,0.393657725318464,-1.6472691876511898
2.0677244490486824,7.98208650055934,-0.016695373044561094,0.377441604743895,-1.667143194731406
2.0646968107878303,7.9155993973992125,-0.01694505207601647,0.3613039859242054,-1.6837899187403416
2.06162546482645,7.852009714456553,-0.01718101416153948,0.34524804677200205,-1.696961885998844
2.0585131006307082,7.791302414188479,-0.017400810235594512,0.3292775117621508,-1.7063944749388964
2.055362865496961,7.733461733206884,-0.01760180236159938,0.3133967213666773,-1.7118043700291607
2.052178401151873,7.67847106431876,-0.017781134806042976,0.2976107107235868,-1.712887941991257
2.048963885951982,7.626312823513988,-0.01793570074829883,0.28192529821831064,-1.709319587192606
2.045724083540241,7.576968300084495,-0.018062103826604555,0.266347184331611,-1.7007500819715837
2.0424643989823172,7.530417488050329,-0.01815661348365855,0.25088406049247464,-1.686805042074729
2.0391909436239652,7.486638897212533,-0.018215112720248585,0.23554472659416564,-1.6670836289379931
2.03591061021065,7.445609342557518,-0.01823303631659226,0.2203392140171096,-1.6411577214546034
2.032631160238232,7.407303711572023,-0.018205296710274637,0.2052789080439199,-1.6085718862177378
2.029361326136584,7.371694710552799,-0.01812619330803352,0.19037665883635407,-1.5688446485177745
2.0261109318574664,7.338752593607534,-0.01798929868216095,0.17564686277770436,-1.521471815448917
2.0228910369661675,7.308444882332438,-0.01778731122116218,0.16110548472335556,-1.465932965167089
2.019714111801353,7.280736090961025,-0.017511857276773377,0.14676997495899963,-1.4017027351821727
2.016594255312189,7.25558748224476,-0.017153214825047617,0.13265901077727038,-1.3282692619938232
2.0135474738942927,7.232956894802321,-0.01669991204047076,0.1187919608053939,-1.2451630660894086
2.0105920507513404,7.212798704315887,-0.016138122881220504,0.10518793348830424,-1.1520007715230043
2.0077490540254037,7.1950640084535635,-0.015450729629189726,0.09186424275974536,-1.048548976346899
2.005043063092676,7.179701153829097,-0.014615836290004992,0.07883414195656407,-0.9348134314539038
2.002503244124774,7.166656736282807,-0.013604374464460858,0.06610383077998072,-0.811155324929977
2.0001649929156096,7.155877162799907,-0.012376194526256542,0.05366920791892266,-0.6784259185959928
1.998072519214432,7.147310681302596,-0.01087351326460526,0.0415139198289903,-0.538087694786618
1.9962830849565842,7.14090931421034,-0.009009089600369172,0.029612381196091286,-0.39225296792329034
1.9948746137950242,7.136629070248581,-0.00664058997252036,0.017945885045673,-0.24353429477346664
1.9939628361721722,7.134423758592732,-0.0034902725036114485,0.006557577797094734,-0.0946044172329771
