x,y,v_x,v_y,omega
2.375,32.48,0.0,3.0256410256410255,-7.26530612244898
2.3733802349116853,31.881978654714644,-0.01619765088314716,2.954572427212493,-6.806499579425628
2.3687562317170117,31.29787503808227,-0.030042381063590258,2.8864637391112318,-6.39106171895929
2.361565691667383,30.72711797237142,-0.04186301943269533,2.8211069179972936,-6.013640710015402
2.352185593097728,30.16917573453366,-0.05193796626385584,2.758315460380312,-5.6696736826774785
2.34094140986169,29.62355205801471,-0.060503866096525846,2.69792130480919,-5.3552524600947145
2.3281147634120307,29.08978269689155,-0.0677625984000636,2.6397723064223886,-5.067015247751796
2.3139498081311207,28.56743245047351,-0.07388695440903717,2.5837301577580063,-4.802058636138441
2.2986585849132126,28.056092568584013,-0.07902527777004137,2.5296686611369688,-4.557865641252362
2.2824255290554056,27.55537847439277,-0.08330528080802964,2.47747228077544,-4.332246509237393
2.265411280996455,27.06492775435824,-0.08683719978147833,2.4270349195698664,-4.123289754146435
2.2477559193795296,26.58439837460531,-0.08971641638777407,2.3782588779594356,-3.9293214546562165
2.2295817131865747,26.113467090648417,-0.0920256455417744,2.331053961609509,-3.7488712574148595
2.21099547176455,25.651828023315247,-0.09383676867847258,2.285336711722201,-3.5806438573543833
2.192090557313463,25.199191378426193,-0.09521237583240191,2.2410297371683527,-3.4234949742456444
2.1729486129989044,24.755282291531316,-0.09620706731318071,2.198061131780395,-3.276411038402335
2.153641050662157,24.319839782017212,-0.09686855605429402,2.156363963360644,-3.1384919501668125
2.1342303346546236,23.89261580333387,-0.09723860402103855,2.115875823472755,-3.008936397519916
2.11477109225752,23.473374378080237,-0.09735381994999957,2.076538429063569,-2.887029311207483
2.095311076182284,23.061890808320562,-0.09724634080235811,2.0382972685331913,-2.772131112694019
2.075892000564113,22.657950952854623,-0.09694441537935437,2.0011012861261994,-2.6636684712241854
2.056550268489513,22.261350564289334,-0.09647290536664423,1.9649025995266935,-2.5611263354903815
2.037317606303989,21.871894679700887,-0.09585371648859246,1.9296562463577895,-2.4640410453264754
2.0182216176208687,21.48939705946982,-0.09510617034261525,1.8953199559528577,-2.371994361375846
1.9992862680112986,21.11367966954327,-0.09424732575308223,1.8618539433126344,-2.284608277298539
1.9805323097299987,20.744572202950657,-0.0932922570599164,1.8292207226134982,-2.201540500949357
1.9619776544659686,20.38191163688865,-0.09225429558038689,1.797384938006587,-2.1224805089920284
1.9436377009572066,20.02554182211201,-0.0911452395072332,1.766313209759787,-2.047146094340025
1.9255256233369709,19.67531310173037,-0.08997553669512279,1.7359739940566208,-1.9752803382101602
1.9076526252563784,19.33108195682602,-0.08875444411080294,1.7063374549869015,-1.9066489489033456
1.8900281641296766,18.99271067658222,-0.08749016715621431,1.6773753474510733,-1.841037918059436
1.872660149254164,18.660067050851183,-0.08618998159891364,1.649060909859323,-1.7782514523700408
1.8555551170498055,18.33302408330099,-0.08486034044466982,1.6213687656425568,-1.7181101448174596
1.8387183862303165,18.011459723465833,-0.08350696775021983,1.5942748327090608,-1.6604493546372883
1.8221541953463545,17.695256616186803,-0.08213494108940111,1.5677562400812122,-1.6051177695380126
1.8058658248229547,17.384301867075326,-0.08074876414459661,1.5417912510335703,-1.5519761273852555
1.7898557053394408,17.078486822759054,-0.07935243069054061,1.5163591921291286,-1.5008960776798232
1.7741255141640693,16.77770686478452,-0.07794948106317548,1.4914403876162252,-1.4517591658168283
1.7586933260751882,16.48186611437073,-0.07637239982563417,1.4669671165216387,-1.3995385782314
1.7435746802582455,16.19087205163046,-0.07481405834379434,1.4429735108810868,-1.3497074557180464
1.728765687725328,15.904630467456126,-0.07327586698538273,1.4194423308622683,-1.3021280717488652
1.7142622016706286,15.623050520945473,-0.07175899356160947,1.396357134244284,-1.2566721469575708
1.7000598630890185,15.346044584547865,-0.07026439225449227,1.37370222973178,-1.2132200978927543
1.686154140942067,15.073528098219889,-0.0687928292150212,1.351462633547972,-1.1716603535122239
1.6725403674979176,14.805419431961468,-0.0673449052264746,1.329624029036228,-1.1318887326006322
1.6592137693974536,14.541639756155291,-0.06592107577816522,1.308172729025554,-1.0938078760490815
1.6461694949344063,14.282112919178914,-0.06452166885230706,1.2870956407382272,-1.057326728600242
1.6334026379802105,14.026765331801261,-0.06314690068965123,1.2663802330382832,-1.0223600652477272
1.6209082589345174,13.775525857913646,-0.06179688976727914,1.2460145058378842,-0.9888280579944089
1.6086814030384085,13.528325711180354,-0.060471669193810494,1.2259869614950276,-0.9566558791298755
1.596717116348755,13.28509835722577,-0.05917119770272425,1.2062865780508036,-0.9257733375900313
1.5850104596381804,13.045779421003921,-0.05789536940302293,1.1869027841676916,-0.8961145453184917
1.5735565204551096,12.810306599022919,-0.05664402242768493,1.1678254356423405,-0.8676176108656857
1.5623504235519519,12.578619576120978,-0.05541694660389116,1.1490447933770742,-0.840224357742389
1.5513873398661049,12.35065994651286,-0.05421389025457846,1.1305515027041062,-0.8138800652940711
1.540662494217827,12.126371138845922,-0.05303456622819988,1.112336573965275,-0.7885332300847039
1.5301711718707636,11.905698345023584,-0.05187865724243477,1.0943913642581016,-0.7641353459767957
1.5199087240847406,11.688588452571153,-0.05074582061779433,1.0767075602662164,-0.7406407012712227
1.509870572776117,11.474989980334652,-0.049635692468440795,1.0592771620987942,-0.7180061914284204
1.5000522143882797,11.264853017317812,-0.04854789140993452,1.0420924680696115,-0.696191146033829
1.4904492230635946,11.05812916447567,-0.04748202183691471,1.025146060351803,-0.6751571687970737
1.4810572531981236,10.854771479295554,-0.04643767681779652,1.008430791449349,-0.6548679894878519
1.4718720414515107,10.654734423007532,-0.045414440648332326,0.9919397714308685,-0.635289326813388
1.462898452815541,10.45815681773226,-0.04432144571136392,0.9738362813218555,-0.6530331861307758
1.454138519845516,10.265188346718553,-0.04327788398888715,0.9558484288152086,-0.6726470954444795
1.4455824736419065,10.075806199806369,-0.04228257804720807,0.937973040306636,-0.6940118271572847
1.4372207855691754,9.88998818863892,-0.041334302680101354,0.9202070713678391,-0.7170111010195557
1.429044176239261,9.707712721322007,-0.04043179061904495,0.9025476018012987,-0.7415313165222623
1.42104362340533,9.528958778027413,-0.03957373772026273,0.8849918311446379,-0.7674612926458648
1.4132103688666944,9.353705887451987,-0.03875880766609651,0.8675370746096009,-0.7946920138586914
1.4055359244786043,9.181934104046665,-0.03798563621480259,0.8501807594436184,-0.8231163812806674
1.3980120773541607,9.013623985931819,-0.03725283502963382,0.8329204217048564,-0.8526289679425424
1.3906308943396972,8.848756573416875,-0.03655899511500078,0.8157537034445995,-0.8831257770771352
1.3833847258397391,8.687313368043032,-0.03590268988458005,0.7986783502938272,-0.9145040023774994
1.376266209062938,8.529276312068255,-0.03528247788343034,0.7816922094539509,-0.9466617891471495
1.3692682707562487,8.374627768313367,-0.03469690518346319,0.7647932280949314,-0.979497995249363
1.362384129491005,8.223350500287133,-0.03414450746897202,0.7479794521674198,-1.0129119507357578
1.3556072975614752,8.075427652506466,-0.033623811826326004,0.731249025639232,-1.0468032149984565
1.3489315825539068,7.930842730925502,-0.03313333824935948,0.7146001901704129,-1.081071330244712
1.34235108864203,7.789579583383915,-0.032671600869408034,0.6980312852454391,-1.1156155700373347
1.335860217663456,7.65162237998079,-0.032237108916332365,0.6815407487858232,-1.1503346815780098
1.3294536700304025,7.51695559327505,-0.031828367414201995,0.6651271182715807,-1.185126620332937
1.323126445527727,7.385563978207312,-0.031443877612553246,0.6487890324058097,-1.219888275510446
1.3168738440513459,7.257432551630423,-0.031082137151257218,0.6325252333630944,-1.2545151847975617
1.3106914663408202,7.132546571327143,-0.030741639953998243,0.616334569669705,-1.2889012366461954
1.304575214761207,7.0108915143829975,-0.030420875842133387,0.6002159997717479,-1.3229383582690306
1.29852129419127,6.892453054770154,-0.03011832985723621,0.5841685963566716,-1.3565161873597213
1.2925262130778588,6.777217039984084,-0.02983248127687613,0.5681915515040188,-1.389521725391453
1.2865867847197616,6.6651694665583605,-0.02956180230409555,0.5522841827532144,-1.4218389701723801
1.280700128848696,6.556296454264068,-0.0293047564065606,0.5364459401897049,-1.4533485251467326
1.2748636735803989,6.450584218778484,-0.02905979627641106,0.520676414666126,-1.4839271827282536
1.2690751578151236,6.34801904258261,-0.02882536137634208,0.5049753472926284,-1.5134474787413257
1.2633326341743567,6.248587243818321,-0.02859987503132607,0.48934264035026404,-1.5417772148299533
1.257634472569372,6.1522751428029245,-0.028381741018520958,0.4737783698036927,-1.5687789454840786
1.2519793645075015,6.0590690258610955,-0.028169339600185344,0.4582827996146103,-1.5943094261391562
1.246366328253915,5.968955106091094,-0.027961022935678023,0.4428563980854111,-1.6182190186474041
1.2407947149804806,5.881919480633183,-0.027755109798667355,0.4274998564937101,-1.6403510503252805
1.2352642160491867,5.797948083952576,-0.027549879514270466,0.41221411031234695,-1.6605411227916744
1.2297748715959935,5.717026636586752,-0.02734356501766128,0.3970003633459009,-1.6786163669828575
1.224327080602198,5.6391405887369,-0.027134344920294838,0.38186011515260576,-1.6943946411464468
1.2189216126649998,5.56427505800583,-0.02692033445168827,0.36679519215810213,-1.7076836693962727
1.2135596217075497,5.492414760499852,-0.026699575122811896,0.35180778290168907,-1.7182801197229145
1.208242661902237,5.423543934421506,-0.02647002293031515,0.33690047788175725,-1.7259686224432402
1.2029727061204898,5.357646255185617,-0.02622953488715819,0.32207631447712703,-1.730520733282985
1.1977521672695854,5.294704740997606,-0.025975853621884613,0.3073388274029838,-1.731693850114397
1.1925839229342612,5.2347016477477695,-0.02570658973135715,0.2926921050953861,-1.729230099524686
1.1874713438117814,5.177618352010374,-0.025419201493439972,0.2781408522785724,-1.7228552198846927
1.1824183265188293,5.12343522091135,-0.025110971436081982,0.2636904587116593,-1.7122774828735432
1.1774293314651743,5.072131467673032,-0.024778979100468057,0.24934707367152414,-1.6971867175738258
1.1725094266450151,5.023684991804785,-0.02442006910112354,0.2351176850109394,-1.6772535332549756
1.1676643384117644,4.9780722032542855,-0.024030813231384347,0.2210102004940634,-1.6521288830395753
1.1629005106068178,4.9352678304699715,-0.02360746481808238,0.20703352734908825,-1.621444176770797
1.1582251738569174,4.895244713405571,-0.023145902680920764,0.1931976432949077,-1.5848122458894311
1.1536464275172322,4.857973584247748,-0.022641560715929723,0.179513648283326,-1.5418295973071365
1.1491733377454787,4.823422841389231,-0.022089337001605595,0.1659937803018516,-1.4920805819081244
1.1448160567509928,4.7915583263459105,-0.021483472943253624,0.15265137013136582,-1.4351443642603314
1.140585970700249,4.762343119506742,-0.02081738756418481,0.13950069826033779,-1.3706059314126986
1.1364958876013735,4.7357373794934645,-0.02008344342456989,0.12655670187242593,-1.2980728297089585
1.1325602825632282,4.7116982631231465,-0.01927260695688407,0.11383446183074973,-1.217199847916021
1.1287956274185065,4.690179978637506,-0.018373944490332094,0.10134838302564075,-1.1277243705590936
1.1252208467834037,4.671134042544484,-0.01737386186069478,0.08911097790457632,-1.0295153235758063
1.121857966171337,4.654509824846368,-0.016254944259971482,0.07713119907657837,-0.9226378810961673
1.1187330544143295,4.64025546535294,-0.014994173310104124,0.0654123958577189,-0.807433145876314
1.115877620736049,4.628319197413159,-0.013560163472701413,0.05395028354010159,-0.6846048720624123
1.1133307267373653,4.618650974483124,-0.01190877651413515,0.04273194576023856,-0.5552919106479863
1.1111422818696812,4.611203978059596,-0.009975672162705592,0.03173801847504133,-0.4210860262009731
1.1093785685089468,4.605934939375135,-0.007661461444639894,0.020952368369561006,-0.28393831649349716
1.108133234982198,4.602800621482206,-0.004791873822847903,0.01039081055971372,-0.14590084365822217
1.107560356840553,4.601739828154102,-0.0009369075936025094,0.0002171227213328547,-0.008728572381381583
