x,y,v_x,v_y,omega
2.375,32.48,0.0,2.5128205128205128,-7.020408163265306
2.373601803430685,31.95796521202342,-0.01331615780300193,2.4589393726706885,-6.627313286425803
2.369589289510882,31.447036262124502,-0.0248982604808334,2.407050626366644,-6.2668067767271385
2.3633039333354424,30.94680826180342,-0.03496227452335256,2.3570255671674745,-5.935317431217128
2.355044978980212,30.456902043710294,-0.04369443362170097,2.308747938481327,-5.629746140122244
2.345075195736343,29.976961723610454,-0.05125588298657459,2.262112252945731,-5.347393159727341
2.333625746086972,29.506652584954598,-0.05778649462648475,2.217022400919561,-5.085898236558276
2.320900321768632,29.04565923146101,-0.06340802269103565,2.173390489495568,-4.843191005762513
2.307078672854838,28.593683964068333,-0.06822672886890993,2.1311358666251485,-4.617449666961703
2.2923196305463875,28.15044534709226,-0.07233557883061656,2.090184295051754,-4.407066376164017
2.2767637054297363,27.715676935031052,-0.07581608894701578,2.0504672483883084,-4.210618122307834
2.260535328059815,27.289126136663178,-0.07873988600461414,2.0119213074961966,-4.02684210961632
2.2437447868814395,26.870553197197573,-0.08117002997991293,1.9744876397953093,-3.8546148620869283
2.226489909019426,26.459730282521615,-0.08316214013450575,1.9381115475947461,-3.6929344184727504
2.2088575218165225,26.05644065223003,-0.08476535703600274,1.9027420742299008,-3.5409051054917304
2.190924726784566,25.66047791025069,-0.08602316707786657,1.8683316589066263,-3.3977244714253465
2.1727600125567674,25.271645323619072,-0.08697411128211993,1.8348358328230854,-3.2626720374652236
2.154424229256538,24.889755201373653,-0.08765239633911548,1.8022129504666322,-3.135099584430083
2.1359714432515995,24.514628326715084,-0.08808842275553586,1.7704239510435675,-3.014422741057559
2.1174496884013854,24.14609343654102,-0.08830924248459779,1.7394321458522695,-2.900113679456543
2.0989016275207915,23.783986743276067,-0.08833895637820319,1.709203028099663,-2.7916947553932623
2.080365135786913,23.428151494592335,-0.08819906013492326,1.6797041022215757,-2.688732957355595
2.061873816137829,23.07843756718536,-0.08790874604682572,1.65090473022577,-2.590835049947004
2.0434574552978484,22.734701091251594,-0.08748516671489553,1.622775992953003,-2.497643315007929
2.025142427866774,22.396804102722967,-0.08694366596200757,1.5952905644624544,-2.4088318086622023
2.0069520548949895,22.064614220663785,-0.08629798138831882,1.568422598005978,-2.324103064805676
1.9889069225016203,21.738004347534712,-0.08556042235805426,1.5421476222708979,-2.2431851858461656
1.9710251653551327,21.416852390287367,-0.08474202665611436,1.516442446751414,-2.1658292701309345
1.953322719204362,21.10104100047612,-0.08385269858932018,1.4912850752604752,-2.0918071327528733
1.9358395693155614,20.79046536299797,-0.08265349082782683,1.4665781388171526,-2.014169599766578
1.9186110551179998,20.485024459380718,-0.08142759676800045,1.4423828480138057,-1.9402275437223877
1.9016421988583982,20.184612856604538,-0.08018055808534698,1.418680035568848,-1.8697598488921705
1.8849369246197925,19.889129048377434,-0.07891729180613574,1.395451471355958,-1.8025611568359632
1.8684981824995077,19.598475264469556,-0.0776421569584809,1.372679803957179,-1.7384405639857918
1.8523280595625855,19.31255729185566,-0.07635901386935008,1.3503485066513508,-1.6772204414673395
1.8364278790247546,19.031284306776378,-0.07507127696713464,1.328441827437072,-1.6187353643254958
1.8207982889497887,18.754568716908658,-0.0737819618420646,1.3069447427316818,-1.5628311388103102
1.805439341597876,18.482326012907215,-0.07249372722377001,1.285842914424921,-1.5093639176805
1.7903505644316458,18.214474628642733,-0.07120891245461362,1.2651226499986765,-1.4581993946187966
1.7755310236723447,17.950935809520296,-0.06992957096730099,1.2447708654531329,-1.409212069849428
1.7609793811982837,17.691633488313165,-0.06865750021423249,1.2247750508052524,-1.3622845799219974
1.746693945489291,17.436494167994052,-0.06739426844284142,1.2051232379482029,-1.317307085394204
1.732672717243,17.185446811088035,-0.06614123866469004,1.1858039706805408,-1.2741767108221889
1.7189134302200344,16.938422735109725,-0.064899590125459,1.1668062767319254,-1.232797032063727
1.7054135878143861,16.695355513681914,-0.0636703375473826,1.1481196416281851,-1.1930776064262667
1.6921704957915402,16.4561808829644,-0.06245434838448304,1.129733984252893,-1.1549335416578168
1.679181291589295,16.220836653050423,-0.06125235830356543,1.1116396339754608,-1.118285100191474
1.6664429705340353,15.989262624014135,-0.06006498507985873,1.0938273092272794,-1.083057335420621
1.6539524092877755,15.761400506316402,-0.05889274107499774,1.0762880974177975,-1.049179757107162
1.641706386808032,15.5371938452979,-0.057736044446371135,1.0590134360917525,-1.0165860233145907
1.6297016030730216,15.316587949508364,-0.05659522922039188,1.0419950952371766,-0.985213656515498
1.6179346957983718,15.099529822639013,-0.05547055434770352,1.0252251606613911,-0.9550037817530669
1.6064022553480874,14.885968098841865,-0.054362211845480096,1.00869601835907,-0.9259008849414494
1.595100838021649,14.675852981234883,-0.053270334120601795,0.9924003398026688,-0.8978525895735244
1.584036763568601,14.46929109700914,-0.05210180352747359,0.9748557004424812,-0.9002376759167522
1.5732137597813995,14.266400612159721,-0.05097442301729984,0.9574346314567639,-0.9049533977948212
1.562623229377816,14.067155952777235,-0.04988777130254549,0.9401335531383408,-0.911868798358345
1.552256673638616,13.871532280928967,-0.048841330975548575,0.9229490358927883,-0.9208568559668909
1.5421057116565748,13.679505463831948,-0.04783449742484285,0.905877793602621,-0.9317941861403957
1.5321620977893173,13.491052044364402,-0.04686658702522973,0.8889166775168509,-0.944560754924495
1.522417737462944,13.306149212807885,-0.045936844654517466,0.8720626706404565,-0.9590396024500389
1.5128647014627403,13.12477477971748,-0.0450444505855173,0.8553128826014906,-0.9751165755184831
1.5034952388374863,12.946907149821776,-0.044188526797854843,0.8386645449766307,-0.9926800680879593
1.4943017885349206,12.772525296858039,-0.04336814275039018,0.8221150070589575,-1.0116207685699656
1.4852769898777207,12.601608739251109,-0.042582320651512434,0.8056617320546732,-1.0318314128740331
1.47641369198188,12.43413751654704,-0.04183004026125693,0.7893022936983655,-1.0532065421575922
1.4677049622125617,12.270092166514381,-0.04111024325606021,0.773034373279327,-1.075642264250685
1.4591440937663558,12.109453702827242,-0.04042183718399524,0.7568557570743778,-1.0990360177301763
1.4507246124633095,11.952203593244938,-0.03976369903549325,0.7407643341856479,-1.1232863376156592
1.4424402828271399,11.798323738203031,-0.03913467845183657,0.7247580947849014,-1.1482926216492506
1.434285113527634,11.647796449729846,-0.03853360059107655,0.7088351287692486,-1.173954896103724
1.4262533622553817,11.500604430601236,-0.03795926866846961,0.6929936248365598,-1.200173580037743
1.4183395400956613,11.356730753644175,-0.03741046618601062,0.6772318699925937,-1.2268492468830272
1.4105384154654992,11.216158841096838,-0.03688595886315325,0.6615482495058533,-1.25388238220579
1.4028450176756446,11.078872443929018,-0.0363844962783181,0.6459412473305287,-1.2811731364333718
1.395254640177452,10.944855621021933,-0.03590481322827747,0.6304094470226536,-1.3086210712762436
1.3877628435534388,10.814092718100667,-0.03544563080994404,0.6149515331798606,-1.3361248985051224
1.3803654583096172,10.686568346305481,-0.035005657226453483,0.5995662934409528,-1.3635822096624304
1.3730585875275874,10.56226736027994,-0.034583588316687314,0.5842526210880036,-1.3908891951964892
1.3658386094348625,10.441174835644098,-0.034178107804501916,0.5690095183009656,-1.4179403514055202
1.3587021799529977,10.32327604570959,-0.03378788726087647,0.5538361001229165,-1.4446281734668123
1.3516462352848682,10.208556437280347,-0.033411585768929115,0.5387315992032256,-1.4708428327047691
1.344667994604916,10.097001605367403,-0.0330478492782335,0.5236953713962281,-1.496471836120925
1.3377649629194415,9.988597266628819,-0.03269530963104885,0.5087269023045882,-1.521399666071174
1.3309349341680967,9.883329231325533,-0.03235258323890048,0.4938258148695698,-1.5455073978332425
1.3241759946427605,9.781183373561095,-0.03201826938335045,0.4789918781250787,-1.5686722926652883
1.3174865268059897,9.682145599546846,-0.03169094810970463,0.46422501724872056,-1.5907673638210766
1.3108652135984147,9.586201813604287,-0.03136917767672326,0.4495253250613769,-1.6116609128682846
1.3043110433328609,9.49333788158241,-0.031051491519027332,0.43489307514699466,-1.6312160335682753
1.297823315282836,9.403539591329402,-0.030736394671686283,0.420328736786409,-1.6492900805385124
1.291401646084492,9.316792609814922,-0.03042235959825813,0.4058329919229152,-1.6657340999615364
1.2850459770844942,9.233082436450744,-0.03010782135410187,0.39140675440259953,-1.6803922197680112
1.2787565827817062,9.15239435210384,-0.029791172005783823,0.37705119175838914,-1.6931009970634292
1.272534080528584,9.074713363236835,-0.029470754214427672,0.36276774983213056,-1.7036887211697787
1.2663794416791616,9.000024140546536,-0.029144853875309084,0.34855818055165816,-1.7119746716288777
1.260294004395119,8.928310951402981,-0.028811691687001564,0.3344245731964868,-1.7177683320233896
1.2542794883505186,8.859557585320761,-0.028469413499667525,0.320369389491336,-1.7208685627399523
1.2483380116105682,8.793747271624564,-0.028116079261763904,0.3063955028533962,-1.721062739143003
1.2424721100018956,8.730862588407046,-0.02774965034464224,0.2925062420753429,-1.7181258664933048
1.2366847593437609,8.670885361827555,-0.027367974970926825,0.27870543963408534,-1.7118196899591902
1.2309794009749728,8.613796554777817,-0.026968771398483086,0.2649974846491202,-1.7018918281146287
1.2253599710954048,8.55957614396489,-0.026549608406926523,0.25138738023589674,-1.688074972640125
1.2198309345520764,8.508202984562075,-0.026107882481915718,0.23788080455279634,-1.670086217288193
1.2143973238502503,8.459654661798918,-0.025640790868807547,0.22448417414394878,-1.647626607992854
1.2090647843791453,8.413907329266472,-0.025145299332192585,0.21120470711743186,-1.6203810466988626
1.2038396271395908,8.370935534398196,-0.024618102949278187,0.1980504821042344,-1.5880187387491131
1.1987288906939757,8.330712032685412,-0.02405557748515089,0.18503048658894652,-1.5501944538303087
1.1937404147003334,8.293207593891406,-0.02345371769239512,0.17215464478254028,-1.5065509818250018
1.1888829283571982,8.258390806104028,-0.022808057004130602,0.15943381033534557,-1.456723317705296
1.1841661585538883,8.226227887263462,-0.022113560170250672,0.14687970243193202,-1.4003453151674483
1.1796009647730141,8.196682519253105,-0.021364475838075592,0.13450475480957838,-1.3370598164041523
1.1751995112634068,8.16971572721507,-0.02055412901532808,0.12232183602884089,-1.2665335946839855
1.170975492358211,8.145285836792095,-0.01967462246272828,0.11034378704710986,-1.1884788087715596
1.1669444350569593,8.123348554329791,-0.018716399453953814,0.09858271259389162,-1.102682969996326
1.1631241156039873,8.103857228144502,-0.017667595336254772,0.08704896536123649,-1.0090494350287116
1.159535145956543,8.086763358155608,-0.01651306797273802,0.07574979643776267,-0.9076496817986603
1.1562018150952782,8.07201741589192,-0.015232940229783682,0.06468774893067548,-0.7987862371782963
1.153153315192064,8.059569996233837,-0.013800392181778224,0.053859104955855164,-0.6830598284890798
1.1504255586331833,8.04937321027602,-0.012178241712325073,0.04325314226145831,-0.5614249468212551
1.1480639459821829,8.041381989234186,-0.010313307344821538,0.032853724803643417,-0.43520517716884943
1.1461278507554087,8.03555450119956,-0.008125694814931785,0.02264616124040028,-0.30602873210092363
1.1446989965355086,8.031849823911816,-0.005482440612689401,0.012636479595263537,-0.17564630086229782
1.1439030406435686,8.030216730374931,-0.002098091691500916,0.002916792184587659,-0.04562742395143099
