x,y,v_x,v_y,omega
2.375,32.48,0.0,2.051282051282051,-3.224489795918368
2.374539989219998,32.07351107904399,-0.004600107800020718,2.0136071582780364,-3.0783419864521875
2.373210633813207,31.674454078345086,-0.00869344626788889,1.976962848710989,-2.9416112450528855
2.371108159170333,31.282627721043884,-0.012331300160853077,1.941300724301013,-2.8134845519227993
2.3683190962683622,30.897840095548805,-0.015559328858852601,1.9065755306497887,-2.693233474785324
2.364921338318612,30.519908054257893,-0.01841825063864707,1.8727448822593153,-2.5802040367425403
2.360985069796891,30.14865666415713,-0.02094443457856602,1.8397690187483189,-2.4738079528239862
2.356573584947654,29.783918703495015,-0.02317041391380463,1.807610587872838,-2.3735150292051292
2.3517440103189857,29.425534199538887,-0.025125332372877077,1.7762344516884505,-2.278846553367156
2.3465479437661165,29.073350003091562,-0.026835333155813233,1.7456075127848134,-2.189369531486677
2.3410320205826047,28.727219396012362,-0.028323898679304585,1.7156985580071769,-2.1046916523409815
2.335238415919939,28.387001728463993,-0.029612147947355866,1.6864781174764931,-2.0244568759743453
2.3292052913895644,28.05256208301165,-0.030719097356388177,1.6579183370469353,-1.9483415610672583
2.32296719266689,27.72377096304589,-0.03166188987035941,1.6299928626106825,-1.8760510579959635
2.3165554040026635,27.40050400329628,-0.03245599677190315,1.6026767348854194,-1.8073167054521555
2.3099982647670894,27.082641700456875,-0.033115395583836464,1.5759462935086264,-1.7418931776025428
2.3033214524846217,26.770069162163892,-0.033652727240839196,1.5497790894211918,-1.6795561364192648
2.296548236244852,26.462675872756122,-0.03407943515685585,1.524153804656538,-1.6201001502586556
2.2896997038825493,26.160355474413997,-0.03440588846617409,1.4990501787647097,-1.563336845213566
2.282802018952035,25.86300789047962,-0.03457096083897079,1.4744256605790644,-1.5068058657488452
2.2758781723256534,25.570536713678468,-0.034667505424843634,1.450286107432438,-1.4528852534280836
2.268941194871233,25.282846700134673,-0.03470226911936408,1.426614028005503,-1.4014233070891904
2.262002830482009,24.999846022805333,-0.03468137477287421,1.4033927452879156,-1.3522788145127993
2.2550736548710266,24.721446113436976,-0.03461038133694925,1.3806063483956614,-1.305320211389417
2.2481631829569544,24.44756151381372,-0.03449433780377173,1.3582396478368766,-1.2604248168392265
2.241279966013709,24.1781097356367,-0.03433783162868242,1.336278133933332,-1.2174781376910873
2.2344316796265016,23.913011128429993,-0.03414503224339191,1.3147079381337543,-1.1763732346046825
2.227625203382637,23.652188754918534,-0.033919730195252844,1.2935157969808275,-1.137010143888875
2.2208666931246,23.395568273368795,-0.03366537238511771,1.2726890185165398,-1.0992953495446938
2.2141616465039506,23.14307782642406,-0.033385093821376534,1.2522154509308363,-1.0631413006554447
2.207514962495843,22.89464793600331,-0.03308174625970328,1.2320834532766554,-1.0284659697698335
2.2009309954642804,22.650211403866585,-0.03275792405591832,1.2122818680906033,-0.9951924483859003
2.194413604306448,22.409703217480224,-0.032415987522408436,1.1927999957730115,-0.9632485760517968
2.187966197149601,22.173060460843512,-0.03205808404605863,1.173627570594115,-0.9325665999608165
2.181591772025289,21.940222229963624,-0.03168616719705971,1.1547547382047643,-0.903082862238428
2.175292953902307,21.711129552689087,-0.03130201403276271,1.1361720345405872,-0.8747375124034464
2.1690720284211786,21.48572531263323,-0.030907240778522124,1.1178703660179874,-0.8474742427382778
2.162930972638543,21.26395417693854,-0.030503317047832913,1.0998409909289129,-0.8212400445282105
2.15687148305909,21.045762527650744,-0.030091578746697555,1.0820755019490589,-0.7959849833303041
2.1508950012052424,20.83109839648772,-0.029673239791778945,1.0645658096811614,-0.771661991611434
2.1450027369502385,20.619911402803467,-0.029249402758259983,1.0473041271613868,-0.7482266772550117
2.1391956898182896,20.412152694561073,-0.028821068561229478,1.0302829552625772,-0.7256371465790021
2.1334746684358,20.20777489214148,-0.028389145263662298,1.0134950689333515,-0.7038538406360448
2.127840308299984,20.006732034826463,-0.02795445609449938,0.9969335042168207,-0.6828393836814323
2.122295597190564,19.80916073563848,-0.02749265499970363,0.9787794876630139,-0.6983738763458943
2.1168407845681623,19.61520848665354,-0.027055471224309405,0.960743002186382,-0.7158179509969
2.111470945719658,19.424852105182108,-0.026642917260734315,0.942820812527943,-0.7350536014518807
2.106181164002063,19.23806904260536,-0.02625489991521532,0.92500981323953,-0.7559656563278637
2.1009665511024096,19.054837358904745,-0.025891229081317885,0.9073070237666219,-0.7784415263082245
2.0958222656124668,18.87513569813177,-0.02555162581811257,0.88970958396314,-0.802370957693666
2.0907435300525927,18.698943264733003,-0.025235729780625948,0.8722147500245395,-0.8276457912466754
2.0857256464699243,18.526239800647723,-0.024943106046060932,0.854819890828228,-0.854159725351762
2.0807640107277767,18.357005563097594,-0.02467325137541374,0.8375224846730543,-0.8818080825199653
2.0758541255955896,18.191221302989057,-0.024425599946460066,0.8203201164123549,-0.9104875782653573
2.0709916127418824,18.028868243850035,-0.024199528590611762,0.803210474977856,-0.9400960913733859
2.066172223726538,17.869928061222783,-0.023994361562829015,0.7861913512946491,-0.9705324345656935
2.0613918500831967,17.714382862434267,-0.023809374870584148,0.7692606365905114,-1.001696124543199
2.05664653257766,17.562215166664608,-0.023643800184784187,0.7524163211060844,-1.033487150358375
2.051932469723927,17.41340788523241,-0.02349682835254306,0.7356564932158914,-1.0658057390283413
2.0472460256358005,17.267944302013426,-0.023367612528723325,0.7189793389739234,-1.0985521172521049
2.042583737288907,17.125808053905875,-0.02325527094021312,0.7023831421016103,-1.1316262680374052
2.0379423212654917,16.986983111251664,-0.023158889293937838,0.6858662844404869,-1.164927680974504
2.0333186800524383,16.851453758117934,-0.023077522836596538,0.6694272468968311,-1.1983550948151518
2.0287099079616757,16.71920457233714,-0.023010198071028658,0.6530646109110857,-1.231806230924076
2.024113296741481,16.590220405196924,-0.02295591413092155,0.6367770604910685,-1.2651775160668486
2.019526340947166,16.464486360662324,-0.02291364381222677,0.6205633848549355,-1.2983637928810665
2.014946743140331,16.34198777400306,-0.02288233425612151,0.6044224817377204,-1.3312580162466316
2.0103724189872607,16.222710189686868,-0.022860907274586156,0.588353361424168,-1.363750933624858
2.00580150232924,16.106639338386383,-0.022848259305619765,0.572355151580667,-1.3957307472747025
2.0012323503006053,15.99376111293126,-0.022843260980726785,0.5564271029705614,-1.427082756077467
1.9966635485742807,15.884061543019186,-0.022844756282517947,0.5405685961501729,-1.457688974509315
1.9920939168195284,15.777526768478396,-0.022851561265005774,0.5247791492577161,-1.4874277260951219
1.9875225144626918,15.674143010850205,-0.022862462303359747,0.5090584270241976,-1.5161732084601396
1.9829486468490134,15.573896543032326,-0.02287621383342569,0.4934062511545885,-1.543795026872022
1.9783718719122607,15.476773656691936,-0.02289153553410033,0.4778226122493236,-1.5701576929420815
1.9737920074690947,15.382760627120927,-0.022907108897558436,0.46230768346074974,-1.5951200849421001
1.9692091392670186,15.29184367516418,-0.022921573123203434,0.44686183610672825,-1.6185348660080818
1.9646236299286115,15.204008925804079,-0.022933520260866338,0.4314856574943027,-1.6402478563693261
1.9600361289508272,15.119242362930635,-0.02294148951697715,0.4161799712401444,-1.6600973556956198
1.955447583936742,15.037529779765514,-0.022943960623875336,0.4009458604110703,-1.6779134117486514
1.9508592532586835,14.958856724339753,-0.022939346156710554,0.38578469384654945,-1.6935170318300556
1.946272720376616,14.883208439348664,-0.02292598266396373,0.3706981560643495,-1.7067193341441573
1.9416899100646474,14.810569795623447,-0.022902120455722486,0.35568828118780604,-1.7173206372909198
1.9371131068323386,14.740925218368218,-0.022865911867364263,0.3407574913644683,-1.7251094878918867
1.9325449758672426,14.674258605215332,-0.022815397783596692,0.3259086401643889,-1.7298616291411608
1.927988586872242,14.610553235054738,-0.022748492166409787,0.31114506144154797,-1.731338917311541
1.923447441227938,14.54979166650083,-0.02266296427662694,0.29647062409752795,-1.7292881995731215
1.9189255029796228,14.49195562478332,-0.022556418206526804,0.2818897930775692,-1.7234401758161733
1.9144272342348487,14.437025875803808,-0.022426269241213156,0.267407696717544,-1.713508280829569
1.9099576356682888,14.384982086113165,-0.02226971642438725,0.2530302001888834,-1.6991876430610136
1.9055222929761995,14.33580266767715,-0.02208371049650591,0.23876398417126465,-1.680154204985558
1.9011274303203187,14.289464606570771,-0.021864916062301218,0.2246166268925202,-1.6560641317057223
1.8967799720771545,14.24594327526906,-0.021609666369339954,0.2105966861246103,-1.6265536942973071
1.8924876146061442,14.20521222912231,-0.021313908340762976,0.1967137753428863,-1.5912399003193916
1.8882589103378091,14.16724298912196,-0.0209731343425877,0.18297862466060819,-1.5497222664588086
1.8841033673718466,14.132004815473806,-0.020582295317038347,0.16940311182092901,-1.5015863016409183
1.8800315691448346,14.09946448021162,-0.02013568695308188,0.15600024080092728,-1.4464095108385344
1.876055320868774,14.069586052659641,-0.01962679580752325,0.14278403471886267,-1.3837710597560189
1.8721878328241246,14.042330719669572,-0.01904808463897112,0.12976929518185013,-1.3132666733554808
1.8684439559650832,14.01765667392187,-0.01839068395144154,0.1169711622951754,-1.2345308695728727
1.8648404938480345,13.995519118578358,-0.017643937219044822,0.10440439113993052,-1.1472691837510571
1.8613966284760282,13.975870454411076,-0.016794716501020254,0.09208225053287522,-1.0513034016043314
1.8581345191104481,13.958660732352733,-0.015826377154779456,0.08001497005054414,-0.9466324632538962
1.855080166889347,13.943838459612476,-0.014717145056231631,0.06820775735202637,-0.8335095479163639
1.8522646919231838,13.931351817537529,-0.013437604605401441,0.05665866339745706,-0.7125300438829518
1.8497262605117197,13.921150239423866,-0.011946709509238533,0.045357117739177506,-0.584713337851884
1.8475130796771282,13.91318603104996,-0.010185098836675939,0.03428496599989487,-0.4515429035692534
1.8456883365858,13.907415163374655,-0.008062332076607838,0.023423710753163463,-0.31490970431227583
1.8443395688040263,13.903795103008608,-0.005425345741127368,0.012776892907287774,-0.17689922980453449
1.8436034328963298,13.902272444788977,-0.0019360133358384984,0.0024496892890132453,-0.03940474201844116
