x,y,v_x,v_y,omega
2.375,32.48,0.0,3.641025641025641,-7.142857142857143
2.3723786646340757,31.655272297072305,-0.02279422057325398,3.5305196018238503,-6.533607829559984
2.3650195234356346,30.855243308148104,-0.041198311587103964,3.426254214908344,-6.003308877289987
2.3538380800998646,30.078542846205913,-0.05603163046306886,3.327662845458527,-5.538885010807667
2.339580473594588,29.323922573069535,-0.06794755653933482,3.2342525731186607,-5.1298075021918175
2.3228573879723453,28.590240548797947,-0.07747057930625709,3.1455911161994954,-4.7675302275489955
2.3041704855273073,27.876448446202733,-0.08502422456363853,3.0612967324545446,-4.445065336095926
2.2839331829077345,27.18158083943881,-0.09095231995438392,2.9810302828839275,-4.156660288403866
2.262487101107527,26.504746133661644,-0.09553534787350944,2.904488897787064,-3.897549523842398
2.240115176195581,25.845118812553846,-0.09900312962167247,2.831400850976403,-3.6637617475993185
2.217052171203165,25.201932758279398,-0.10154473987759983,2.761521360105741,-3.451969124506933
2.1934931504440573,24.57447545447685,-0.10331631020159673,2.6946291077425015,-3.2593683590631826
2.169600345630493,23.962082923999503,-0.10444720991635323,2.630523331190942,-3.08358625401587
2.1455087449177093,23.36413528372573,-0.1050449701948086,2.5690213668418647,-2.922604214287814
2.1213306621309154,22.78005282191271,-0.10519922795122484,2.5099565619670265,-2.7746975240096585
2.097159487369894,22.209292521319007,-0.1049849004054833,2.4531764866738826,-2.6383862234795723
2.0730727773095152,21.651344965112628,-0.10446475229346057,2.398541393381552,-2.5123951535406888
2.0491348104816636,21.105731573425473,-0.10369148099220891,2.3459228821589218,-2.3956212889720003
2.0253987072064032,20.572002127037855,-0.10270941705353297,2.2952027386030007,-2.2871069004790066
2.001908193851648,20.049732541604147,-0.10155591646607598,2.246271917342279,-2.1860174026118413
1.9786990754157234,19.5385228614485,-0.10026250471587714,2.1990296492285912,-2.091622988201452
1.9558004680543244,19.037995446555243,-0.09885582016585473,2.1533826541909935,-2.0032833373888814
1.9332358333646626,18.547793330168272,-0.09735839452685592,2.1092444448261563,-1.9204348347216262
1.9110238484273387,18.06757872756087,-0.09578930058030727,2.0665347082816843,-1.8425798412147492
1.8891791393568274,17.59703167916938,-0.09416469133718446,2.025178755992135,-1.769277657246102
1.8677129010909312,17.13584881349769,-0.09249825010538963,1.9851070324573263,-1.7001368823132745
1.84663342210035,16.68374221707246,-0.09080156720401303,1.94625467558817,-1.634808933279493
1.8259465294212789,16.240438400321395,-0.08908445609225621,1.9085611222471843,-1.572982527007587
1.8056559667503138,15.805677349607517,-0.08735521930744006,1.8719697535256523,-1.5143789686935392
1.7857637161691144,15.379211656819795,-0.08562087270299068,1.8364275750632377,-1.4587481156602347
1.766270272289609,14.960805718926458,-0.08388733494488142,1.8018849283570815,-1.4058649093224018
1.7471748761524497,14.550235000767334,-0.08215958798693948,1.7682952295483458,-1.355526386622406
1.728475715011153,14.147285355116523,-0.08044181324172894,1.7356147326326288,-1.3075490973504627
1.7101700931434096,13.75175239470422,-0.0787375073473421,1.7038023144308823,-1.2617668660971377
1.6922545780105707,13.36344091146071,-0.07704958076430202,1.6728192789909269,-1.2180288476879275
1.6747251254051436,12.98216433874855,-0.07538044189158437,1.642629179375676,-1.1761978332518765
1.6575771866591396,12.607744252790706,-0.0737320689432341,1.6131976550403737,-1.1361487709220457
1.6408058005129236,12.24000990989148,-0.07210607145864299,1.5844922832137505,-1.0977674708288636
1.6244056718484035,11.878797816390449,-0.07050374301544458,1.5564824428821693,-1.06094946874695
1.6083712391584646,11.52395132859338,-0.06892610646228466,1.529139190135821,-1.0255990266676835
1.5926967323456167,11.175320280193588,-0.06737395277987082,1.5024351437754095,-0.9916282518352532
1.5773762222078598,10.832760634936474,-0.06584787450497077,1.4763443801994989,-0.9589563185177201
1.5624287574088314,10.496137514308767,-0.0641300802691902,1.450813190476214,-0.9211550378149029
1.5478711229961535,10.165321295190811,-0.062458045058443656,1.4258495844625296,-0.8852675504264016
1.5336928772110796,9.840183996020848,-0.06083104872480842,1.401431277884964,-0.8511723714885732
1.5198837541929908,9.520602630459504,-0.05924828186726791,1.3775371183006488,-0.8187571928889106
1.5064336823670499,9.20645895535203,-0.0577088644452608,1.3541470130686732,-0.787918080838988
1.493332798868889,8.897639234628766,-0.05621186162570328,1.3312418627857825,-0.7585587529062361
1.480571460597469,8.594034017942384,-0.054756297256210576,1.3088034997045022,-0.7305899257372162
1.4681402524034466,8.295537932945845,-0.053341165300505096,1.2868146307001846,-0.7039287257693495
1.4560299928486544,8.002049490209732,-0.0519654395237755,1.2652587843964476,-0.6784981561516493
1.444231737910829,7.713470899863026,-0.0506280816747058,1.2441202620966463,-0.6542266138979691
1.4327367829550082,7.429707899118565,-0.049328048375909844,1.2233840922030235,-0.631047451995657
1.421536663247744,7.150669589914138,-0.04806429690464897,1.2030359878354806,-0.608898581802717
1.4106231532513869,6.876268285963324,-0.046835790020195604,1.1830623073889983,-0.5877221115999145
1.399988264902241,6.606419368567401,-0.04564149997237471,1.1634500177929445,-0.5674640176311836
1.3896242450476,6.341041150591632,-0.04448041180711443,1.1441866602572113,-0.5480738443751408
1.3795235721918697,6.080054748056451,-0.043351526068799634,1.1252603183095895,-0.5295044311501235
1.3696789526806306,5.823383958837027,-0.04225386098545429,1.1066595879462835,-0.5117116624715095
1.3600833164330446,5.570955148003886,-0.0411864542109461,1.088373549733206,-0.49465423985876933
1.3507298123171394,5.322697139372931,-0.040148364188228904,1.0703917427098781,-0.4782934730355873
1.3416118032487725,5.078541112865832,-0.03913867118887461,1.0527041399605466,-0.46259308868364934
1.3327228610832436,4.838420507311568,-0.03815647807659407,1.0353011257286935,-0.4475190551029285
1.324056761358303,4.602270928347188,-0.03720091083593298,1.0181734739615553,-0.43303942130162415
1.3156074779384743,4.370030061100824,-0.03627111890170648,1.0013123281807395,-0.4191241691900286
1.3073691776029919,4.141637587362926,-0.03536627531988017,0.9847091825835991,-0.4057450776868464
1.2993440821027706,3.9171457423278753,-0.034417163812477954,0.9673938177211926,-0.41232345212444854
1.2915325497061012,3.69662169834643,-0.033509204854213,0.9502065647261474,-0.42130416091815
1.2839251451920435,3.480036433220274,-0.03264213874628814,0.9331435668056433,-0.4325544131997636
1.27651250620872,3.26736179326538,-0.031815591543482416,0.916201128454303,-0.4459458118739586
1.2692853682871048,3.0585704571087184,-0.031029086035780345,0.8993757076905793,-0.4613540333234768
1.2622345874349894,2.8536359012028534,-0.030282051808702325,0.8826639088821641,-0.47865852078668225
1.25535116051486,2.652532366926753,-0.029573834453292574,0.8660624761274046,-0.49774219003980896
1.2486262435937905,2.4552348291483135,-0.02890370399078926,0.8495682871633736,-0.5184911460824176
1.2420511684391256,2.2617189661304344,-0.028270862571513712,0.8331783477747198,-0.5407944095810318
1.2356174573206224,2.071961130668054,-0.027674451502425576,0.8168897866807473,-0.5645436518731425
1.229316836267742,1.8859383223484087,-0.02711355765305674,0.8006998508813852,-0.589632937372091
1.2231412469198517,1.7036281608307782,-0.026587219285119857,0.7846059014458315,-0.6159584722429945
1.2170828570971635,1.525008860045471,-0.02609443134695092,0.7686054097307393,-0.6434183582410357
1.2111340702112077,1.3500592032143786,-0.02563415027005557,0.7526959540178785,-0.6719123506161175
1.2052875336254958,1.1787585185974265,-0.025205298301352735,0.7368752165643041,-0.7013416189920767
1.1995361460697005,1.0110866558704927,-0.024806767401215967,0.7211409810612169,-0.7316085101241934
1.1938730642041424,0.84702396304084,-0.024437422734071585,0.7054911305009682,-0.762616311425418
1.1882917084255884,0.6865512638058959,-0.02409610577509409,0.689923645455076,-0.7942690141292112
1.18278576800031,0.5296498352600416,-0.023781637053413036,0.6744366027697336,-0.8264710749247501
1.1773492056060115,0.37630138585226547,-0.023492818549182004,0.6590281746891652,-0.8591271748579367
1.1719762613605902,0.22648803349455449,-0.02322843575882871,0.64369662842137,-0.8921419742385452
1.1666614564127509,0.08019228371708209,-0.02298725943977404,0.6284403261653724,-0.9254198622291864
1.1613995961672499,-0.06260299223870902,-0.022768047042843624,0.6132577256241378,-0.9588646997147248
1.1561857732160146,-0.20191457950426894,-0.02256954383746352,0.5981473810329119,-0.9923795539604034
1.1510153700455845,-0.33775894196804046,-0.022390483731493865,0.5831079447389981,-1.0258664234621528
1.145884061591283,-0.4701522450912705,-0.022229589784170545,0.568138169376026,-1.0592259512723001
1.1407878177092927,-0.5991103792981392,-0.02208557440705049,0.5532369106837113,-1.0923571249469723
1.1357229056394171,-0.7246489840955732,-0.021957139244042464,0.5384031310331312,-1.1251569611067722
1.1306858925338399,-0.8467834730930832,-0.021842974717498194,0.52363590372781,-1.157520172428729
1.1256736481306966,-0.9655290601104838,-0.021741759222878094,0.508934418162632,-1.189338814694236
1.1206833476558589,-1.0809007865818288,-0.021652157949624117,0.4942979859360134,-1.2205019113041895
1.1157124750420955,-1.192913550487475,-0.02157282130049307,0.47972604802612356,-1.2508950524389648
1.1107588265618402,-1.3015821370738294,-0.02150238287564018,0.4652181831595488,-1.2803999657883474
1.1058205149783156,-1.4069212516520864,-0.021439456981095444,0.4507741175209554,-1.3088940555076751
1.1008959743298992,-1.5089455548041641,-0.021382635613829012,0.43639373597538234,-1.3362499057761632
1.0959839654745782,-1.6076697003664648,-0.02133048486722203,0.42207709500112944,-1.3623347450499157
1.0910835825353498,-1.7031083766111266,-0.021281540691286266,0.4078244375611549,-1.3870098668286392
1.086194260403762,-1.7952763511007532,-0.021234303931216315,0.3936362101747549,-1.410130002511903
1.0813157834777811,-1.8841885197571173,-0.02118723455557414,0.37951308248926746,-1.4315426417386377
1.076448295832191,-1.96985996075815,-0.021138744971295673,0.365455969693606,-1.451087295528185
1.0715923130452583,-2.052305993961454,-0.02108719230637976,0.3514660581612287,-1.468594697640092
1.0667487359349896,-2.13154224664725,-0.02103086952204252,0.3375448347587146,-1.4838859399418811
1.0619188664926953,-2.207584726479638,-0.020967995193560532,0.32369412030552214,-1.4967715383636653
1.0571044263416636,-2.2804499027022587,-0.0208967017719328,0.30991610771726524,-1.5070504274360392
1.05230757809578,-2.350154796711095,-0.02081502210531468,0.29621340540306124,-1.5145088837593057
1.0475309500485475,-2.4167170832808083,-0.020720873957576654,0.28258908650750275,-1.518919382483256
1.0427776646895397,-2.4801552038551904,-0.020612042207707834,0.2690467445740854,-1.5200393966360717
1.0380513716262711,-2.54048849343674,-0.020486158342453813,0.25559055613501536,-1.5176101578738659
1.0333562855898877,-2.5977373227071325,-0.02034067675653359,0.24222535056406863,-1.51135541030823
1.028697230330804,-2.6519232570506404,-0.0201728472354988,0.228956687205572,-1.500980208521381
1.0240796893776218,-2.703069234089938,-0.01997968279217089,0.2157909392231135,-1.486169839635793
1.0195098648587295,-2.751199761106328,-0.019757921719935564,0.20273538265855764,-1.4665889916488626
1.0149947459020474,-2.796341133191561,-0.019503982251214122,0.18979828764784618,-1.4418813523836767
1.010542188585083,-2.838521671995153,-0.019213907461520824,0.17698900629644893,-1.411669914276698
1.006161010087753,-2.8777719832305877,-0.018883296863086887,0.16431804792471316,-1.3755583924718184
1.0018611007410754,-2.914125228302936,-0.01850721919497912,0.15179712661743733,-1.3331343547431869
0.9976535592919804,-2.9476174009656333,-0.018080097753673623,0.13943915740599655,-1.283974934442952
0.9935508592923505,-2.978287593037855,-0.01759555441702145,0.12725816496117565,-1.227656378935168
0.9895670586863621,-3.0061782229261524,-0.017046189982878445,0.11526905145881339,-1.163769200384319
0.9857180714255578,-3.031335185894939,-0.016423264458898038,0.10348714826976627,-1.0919413455572677
0.9820220309217556,-3.0538078649515086,-0.015716218182860422,0.09192745222213908,-1.0118725162963194
0.9784997929551331,-3.073648916617614,-0.014911938048639294,0.08060343183095556,-0.9233832975895142
0.9751756543598054,-3.090913721860005,-0.013993614954211196,0.06952530940724604,-0.8264824230101989
0.9720784098514315,-3.1056593842381304,-0.012938945988169755,0.0586978417068585,-0.7214528936747215
0.9692429440574366,-3.117943200187007,-0.011717278307437061,0.0481179491529499,-0.6089502107663833
0.9667126853563099,-3.127820689508681,-0.010284971267576496,0.03777326233987732,-0.4900904585720869
0.9645435176548629,-3.1353436765029485,-0.008577356571093542,0.027644015871130807,-0.36648170325854745
0.9628105047883269,-3.1405597780899726,-0.0064923205292191895,0.017713389233438737,-0.24012835324429357
0.9616218261917426,-3.1435168782626093,-0.0038440150932514973,0.008000525311207677,-0.11313806532613763
