x,y,v_x,v_y,omega
2.375,32.48,0.0,2.2564102564102564,-4.816326530612245
2.3743165888055455,32.05531699157597,-0.0071938020468908705,2.2139372006847635,-4.5901462399919
2.3723433956498132,31.63858632709801,-0.013576652223971546,2.1727013727674374,-4.379212965958505
2.3692264418976188,31.22957889760565,-0.01923338727281549,2.132639990310044,-4.182151695270263
2.3650965502414927,30.828077088603013,-0.024239156475877717,2.0936948412966583,-3.9977371903514975
2.3600710676796828,30.433873955411272,-0.02866065996422705,2.055811823879571,-3.8248750917590986
2.3542553701234032,30.0467724802211,-0.03255720904924403,2.018940546543274,-3.6625857323879254
2.347744179712755,29.66658490029898,-0.03598163737863215,1.983033978952752,-3.5099902254975377
2.340622720946555,29.29313209846452,-0.03898108647610311,1.948048145620527,-3.3662984676211103
2.332967737651566,28.92624304831619,-0.041597685050094806,1.9139418559407848,-3.230798760606837
2.324848389451437,28.565754307801207,-0.04386913810915745,1.8806764652695729,-3.102848807912207
2.31632704360527,28.211509555649876,-0.04582923921891808,1.8482156626392099,-2.981867881461613
2.3074599757606626,27.8633591659633,-0.04750831704010712,1.8165252814300106,-2.8673299889111106
2.2982979912199655,27.52115981688508,-0.04893362549354555,1.7855731299196411,-2.758757898603301
2.288886976682718,27.18477412982649,-0.05012968542485092,1.7553288391181578,-2.6557179020553137
2.2792683910469225,26.854070336169045,-0.05111858442563056,1.7257637256970377,-2.557815212454881
2.2694797026828324,26.528921968753526,-0.0519202404595243,1.6968506681505557,-2.464689913092618
2.25955477959953,26.209207575792103,-0.052552634101558436,1.668563994601259,-2.376013382526521
2.2495242380776785,25.89481045512055,-0.05303201349687333,1.6408793808887852,-2.2914851340302578
2.239415754617728,25.58561840694783,-0.05337307555523913,1.6137737577714084,-2.2108300158989147
2.229254345431884,25.281523503467763,-0.05358912640101151,1.5872252262292734,-2.1337957267794483
2.219062617174353,24.982421873876667,-0.05369222367826566,1.5612129799927843,-2.0601506066048345
2.208860992144214,24.68821350349668,-0.05369330295477498,1.5357172345334296,-1.9896816691412589
2.198667910797772,24.398802045840156,-0.05360229016566697,1.5107191618510194,-1.922192846770184
2.188500014062999,24.1140946465693,-0.05342820177931141,1.4862008304737755,-1.8575034220557798
2.1783775399971925,23.834005830587344,-0.05312415680812428,1.4621024956520763,-1.792848353439071
2.1683178016958298,23.55845310866743,-0.05276782531148335,1.4384524719259946,-1.7310446491602536
2.1583301878400705,23.28735278765734,-0.05236495211756492,1.4152351176538756,-1.6719335014964278
2.1484230464639498,23.02062407961232,-0.05192074657844075,1.3924354933463525,-1.6153666261946649
2.1386037818848056,22.758188972216264,-0.05143993320202712,1.3700393213489457,-1.5612054528933637
2.1288789424957173,22.49997210659636,-0.05092679720942725,1.3480329483342417,-1.509320386303729
2.119254300332319,22.245900662019423,-0.05038522556318245,1.3264033103703958,-1.4595901312268798
2.1097349232286784,21.995904247000475,-0.04981874394882664,1.3051379003553352,-1.4119010752323373
2.1003252402905357,21.749914796392236,-0.04923055013688658,1.2842247376261497,-1.3661467234846465
2.0910291013376487,21.507866474058503,-0.04862354410402961,1.263652339571059,-1.3222271807882184
2.0818498308990607,21.269695580765955,-0.048000355249527255,1.2434096950873081,-1.2800486764361083
2.0727902772848044,21.035340466957116,-0.04736336700580285,1.223486239742618,-1.239523127904914
2.0638528572039077,20.80474145009306,-0.0467147391088975,1.2038718325105906,-1.2005677398427017
2.055039596350826,20.57784073627817,-0.046056427765649874,1.1845567339619325,-1.1631046351562153
2.046352166339858,20.35458234590044,-0.04539020392874634,1.165531585803658,-1.1270605153231459
2.0377919183291544,20.134912043040657,-0.04471766986813281,1.1467873916676987,-1.0923663473397398
2.029359913641996,19.91877726842165,-0.04404027420721876,1.1283154990587096,-1.0589570749676682
2.0210569516627306,19.706127075685124,-0.043359325574526736,1.110107582378399,-1.0267713521705233
2.0128835952576116,19.496912070798878,-0.04267600500566979,1.0921556269505377,-0.995751296832711
2.0048401939465026,19.291084354410764,-0.041991377216531865,1.0744519139769815,-0.9658422630346544
1.9969269050296052,19.088597466978687,-0.04130640085607256,1.0569890063606402,-0.9369926303205293
1.9891437128538494,18.889406336517467,-0.04062193783609283,1.039759735336421,-0.9091536085403624
1.9814904463860055,18.693467228814207,-0.039938761825422595,1.0227571878557948,-0.8822790569790858
1.973966795243808,18.500737699973794,-0.03925756598718343,1.0059746946748556,-0.8563253166027176
1.9665723243221833,18.311176551165225,-0.03857897002991691,0.989405819099572,-0.831251054357664
1.959311105857486,18.124959276683658,-0.037854908545844446,0.9707760175484939,-0.8517500114548214
1.9521841073280313,17.9422708814214,-0.03716612860630966,0.9522597220542066,-0.8739251761037544
1.9451846939494106,17.763090084336262,-0.03651190695811986,0.9338539314735675,-0.8976590707794841
1.93830637460087,17.587396162868654,-0.03589145460546601,0.9155557681854737,-0.9228365464269015
1.9315428137320882,17.41516892984858,-0.035303922960656896,0.8973624741310932,-0.9493445269416999
1.924887842151941,17.24638871111425,-0.034748409461944796,0.8792714072829151,-0.9770717579266153
1.9183354667972186,17.08103632376149,-0.034223962693029276,0.8612800385355884,-1.0059085586681247
1.9118798795730112,16.91909305494423,-0.03372958703546815,0.843385949014522,-1.0357465762771976
1.9055154653508501,16.760540641146726,-0.03326424688201754,0.82558682780131,-1.066478540928334
1.8992368092056537,16.605361247848165,-0.032826870435840615,0.8078804700782687,-1.0979980211137264
1.8930387029680824,16.453537449499443,-0.03241635311754003,0.7902647756977619,-1.1301991778036653
1.8869161511650057,16.305052209730523,-0.03203156059905776,0.7727377481856058,-1.1629765163698804
1.8808643764174362,16.159888861704676,-0.03167133148062078,0.7552974941917237,-1.196224635084943
1.874878824362491,16.018031088532947,-0.03133447962406559,0.7379422234054331,-1.2298379689576207
1.8689551681636676,15.879462903658482,-0.03101979615302159,0.7206702489573537,-1.2637105276005949
1.863089312672014,15.74416863111571,-0.03072605112754344,0.7034799883349896,-1.2977356257525952
1.857277398299604,15.612132885563643,-0.030451994897825255,0.6863699648446713,-1.3318056049910751
1.8515158046661462,15.483340551985812,-0.030196359138572833,0.669338809658798,-1.3658115450733723
1.845801154079552,15.357776764941264,-0.02995785756241791,0.6523852644943476,-1.3996429632331593
1.84013031491192,15.235426887241534,-0.02973518630739332,0.6355081849765061,-1.4331874996342937
1.8345004049336764,15.1162764879175,-0.029527023989907475,0.6187065447501674,-1.4663305870454197
1.8289087946706077,15.000311319327082,-0.029332031410814544,0.6019794404121177,-1.4989551026456291
1.8233531108512682,14.88751729323986,-0.02914885089802175,0.5853260973481084,-1.5309409997042993
1.817831240015824,14.777880455717455,-0.02897610526454922,0.5687458765719416,-1.5621649166976501
1.8123413323618722,14.671386960588677,-0.028812396355995452,0.5522382826783403,-1.5924997612322491
1.8068818059082434,14.568023041295628,-0.028656303155888282,0.5358029730379706,-1.6218142659446404
1.8014513510643577,14.467774980860753,-0.028506379411330635,0.5194397683817713,-1.6499725133413694
1.796048935700496,14.370629079694908,-0.02836115073458194,0.5031486649429272,-1.6768334263425808
1.790673810823491,14.27657162093221,-0.02821911112862986,0.4869298483486364,-1.7022502211066628
1.7853255169730264,14.18558883293845,-0.02807871887625839,0.4707837094803925,-1.7260698185602306
1.7800038914661513,14.097666848595477,-0.027938391722428024,0.4547108625509139,-1.7481322109621193
1.7747090766319917,14.01279166091373,-0.027796501268724755,0.43871216567797977,-1.768269779828161
1.7694415291953014,13.930949074468682,-0.02765136648591181,0.42278874426989255,-1.7863065616872562
1.7642020309867354,13.852124652093583,-0.027501246235835233,0.4069420175732461,-1.8020574585028306
1.7589917011800589,13.776303656191011,-0.027344330676548356,0.3911737287696031,-1.81532739028286
1.7538120102824295,13.703470983949007,-0.0271787314037619,0.37548597904097686,-1.8259103885666492
1.748664796134206,13.633611095665323,-0.027002470156485034,0.3598812660504352,-1.8335886313312173
1.7435522822104208,13.566707935297316,-0.026813465883357982,0.34436252729699807,-1.838131422708403
1.7384770985585105,13.502744842268779,-0.02660951992622345,0.32893318879287786,-1.8392941251780208
1.733442305758127,13.44170445348475,-0.02638829902518265,0.3135972194600633,-1.8368170582180736
1.7284514223517364,13.383568594440877,-0.026147315778926997,0.29835919152806795,-1.8304243866270877
1.7235084562735734,13.328318158280815,-0.025883906096472703,0.2832243469989171,-1.819823035136061
1.7186179409058644,13.275932971677825,-0.025595203037307994,0.26819866987466673,-1.8047016852794961
1.713784976525107,13.226391646532303,-0.025278106233824465,0.2532889632361043,-1.784729938331174
1.709015278083148,13.179671416741392,-0.02492924578679354,0.23850292929980144,-1.75955776802499
1.7043152305223201,13.135747959794251,-0.02454493906402888,0.22384924909117276,-1.7288154438382204
1.6996919531896593,13.094595203800584,-0.024121138121872537,0.20933765610532537,-1.6921141868664362
1.6951533754538617,13.056185121951511,-0.02365336436021007,0.19497899493755494,-1.6490479353959562
1.6907083264384637,13.020487518598603,-0.02313662527555839,0.18078525088252648,-1.5991967588884686
1.686366643023276,12.987469814478029,-0.02256530541062528,0.16676952933404945,-1.5421326829848159
1.6821393021849718,12.957096843578949,-0.021933019203105114,0.15294595381417195,-1.477428991460434
1.6780385867477734,12.929330681343863,-0.021232406451613072,0.13932943813409543,-1.404674466679642
1.6740782983294396,12.904130533898577,-0.020454840057163835,0.12593527181627262,-1.3234945116913532
1.6702740386837274,12.881452731189203,-0.019589998318754243,0.11277844091398687,-1.2335816050865187
1.6666435922737133,12.861250882658524,-0.01862522704981511,0.09987259625103591,-1.1347378901717469
1.6632074610532572,12.84347626939454,-0.017544575270777525,0.08722859600142659,-1.0269324523319099
1.6599896305855877,12.828078553173622,-0.016327324388902317,0.07485262737665033,-0.9103740901108086
1.657018690616746,12.815006861945925,-0.014945727914695216,0.062744122388569,-0.7855955733082376
1.6543295052847782,12.804211227654708,-0.013361486106015261,0.05089413330843103,-0.6535354639701747
1.651965763216168,12.795644146498184,-0.011520009353041327,0.039285668339189415,-0.5155875332644332
1.6499840602536195,12.789261606013959,-0.009340021831679047,0.027898968336846207,-0.3735694604532906
1.6484611988601157,12.785022021454797,-0.006690098099939397,0.016728237549075292,-0.2295544124824233
1.6475110481458364,12.782878611190803,-0.0033114883661610685,0.005833975756109069,-0.0855309884947596
