x,y,v_x,v_y,omega
2.375,32.48,0.0,2.9743589743589745,-2.0
2.374498851196826,31.862782893794545,-0.004772845744513739,2.9038991799786613,-1.8704567930241849
2.3730711673721125,31.26006049574163,-0.008824143062279782,2.8363141348109937,-1.753477795529369
2.3708575057850023,30.6712483957026,-0.012258348243534644,2.771420151274992,-1.6474856687888662
2.367978204428713,30.09579911936993,-0.015163569435409157,2.7090491471314184,-1.5511364953307127
2.364536521122302,29.533199026975197,-0.017614366816127804,2.6490469709136684,-1.4632806616069003
2.360621239461311,28.982965540503027,-0.01967402995521366,2.591271947868887,-1.3829310051607933
2.356308840316486,28.44464465678091,-0.021396438090738646,2.535593611389372,-1.3092367518491919
2.351665317783833,27.917808710476372,-0.022827586029762915,2.481891591511014,-1.241462092593926
2.3467477029744077,27.40205435646078,-0.02400684072666965,2.4300546372089045,-1.178968496577494
2.3416053468005087,26.89700074545858,-0.024967979977130357,2.37997975328823,-1.121200048059844
2.336281003222491,26.402287870592673,-0.025740054099227645,2.33157143591086,-1.067671241195535
2.330811746703003,25.917575065514473,-0.02634810322922915,2.2847409934053458,-1.0179567817812265
2.3252297514425684,25.442539637389093,-0.0268137563939583,2.2394059411220786,-0.9716830344962756
2.3195629550114614,24.976875620184916,-0.02715573342611211,2.1954894608224627,-0.928520824700895
2.313835624992521,24.520292635564815,-0.027390266754273015,2.152919916511863,-0.888179359585702
2.3080688440098003,24.07251485025179,-0.02753145689068373,2.1116304198026445,-0.8504010777273946
2.3022809258841685,23.63328002009078,-0.02759157287723793,2.0715584388736423,-0.8149572714168793
2.2964877735080598,23.202338612188157,-0.02758130689522723,2.0326454459132304,-0.7816443544198922
2.290703187272089,22.779452997511733,-0.02750999059020554,1.9948365986241283,-0.750280670594884
2.2849391314308054,22.364396707201188,-0.027385779326784782,1.958080451952512,-0.7207037571821281
2.27920596460353,21.956953746592628,-0.027215809504408436,1.9223286967004427,-0.6927679914896179
2.2735126396213174,21.556917961618154,-0.0270063331833283,1.8875359221040875,-0.6663425618376332
2.267866877114305,21.164092452815837,-0.02676283355012448,1.8536593998227429,-0.6413097135365429
2.2622753165544753,20.77828903268945,-0.026490124162540082,1.8206588870952016,-0.6175632287966991
2.2567436479023564,20.399327722600155,-0.026192434429067473,1.7884964470885445,-0.5950071061499098
2.251276726532441,20.02703628576271,-0.025873483379649485,1.7571362846966827,-0.573554410473098
2.245878673714899,19.66124979326358,-0.02553654345408738,1.726544596247409,-0.5531262692652233
2.2405529645972644,19.301810220323652,-0.025184495761480474,1.696689431751904,-0.5336509946136762
2.2353025053484274,18.94856607029894,-0.024819878036964536,1.6675405684834248,-0.5150633134371245
2.230129700889596,18.60137202415361,-0.024444926332858462,1.6390693948054629,-0.4973036912219343
2.2250365144356947,18.260088613353933,-0.02406161132334312,1.6112488032866923,-0.48031773667082567
2.2200245198999444,17.924581914323333,-0.023671669969520415,1.5840530922428295,-0.46405567653014096
2.2150949480691726,17.594723262769556,-0.02327663318068456,1.5574578749359989,-0.44847189141684185
2.210248727333705,17.270388986348365,-0.022877850014247626,1.531439995742001,-0.4335245047778864
2.2054865196500164,16.951460154265483,-0.022476508878021505,1.5059774526664067,-0.41917501822369474
2.2008087523239617,16.637822342541963,-0.02207365613202418,1.4810493256528412,-0.4053879874174998
2.196221871827797,16.329365827086583,-0.021610920021925523,1.4566317739222006,-0.3904560454819038
2.1917315167936096,16.025984936867378,-0.021154366017956606,1.4327100376892927,-0.3762270715291941
2.1873363468995484,15.727577448242972,-0.020704394877865153,1.409266044447892,-0.3626594962124566
2.183034945596864,15.434044844030456,-0.020261331814365027,1.3862825670998602,-0.3497146739311296
2.178825834975712,15.145292141166717,-0.01982543600612948,1.3637431744595645,-0.3373566447256948
2.1747074887543816,14.861227728402696,-0.01939690895892241,1.3416321851977913,-0.32555191813475426
2.1706783436184174,14.58176321333734,-0.018975901859784112,1.3199346249484563,-0.31426927675673194
2.1667368091080426,14.306813278153456,-0.01856252204854992,1.2986361863266354,-0.30347959751384884
2.1628812762278793,14.036295543468103,-0.0181568387149079,1.277723191629106,-0.293155688839958
2.159110124931705,13.770130439756105,-0.01775888791532211,1.257182558008971,-0.28327214221048086
2.155421730616421,13.508241085847065,-0.017368676992145227,1.2370017649342886,-0.27380519660564845
2.1518144697432264,13.250553174034458,-0.01698618846685023,1.2171688237571854,-0.264732614650605
2.148286724689826,12.996994861370293,-0.016611383470298318,1.1976722492348706,-0.25603356931033
2.1448368879251056,12.747496666750596,-0.016244204765134943,1.178501032857468,-0.24768854013606545
2.141463365586863,12.501991373426332,-0.015884579408603657,1.1596446178498143,-0.23967921816497195
2.138164580533654,12.26041393660093,-0.01553242109814665,1.141092875725429,-0.23198841866778586
2.1349389749334637,12.022701395800265,-0.015187632237001676,1.1228360842809195,-0.2246000010217925
2.1317850124445656,11.78879279172331,-0.014850105752504093,1.1048649069281828,-0.21749879505974495
2.128701180037486,11.558629087302492,-0.01451972669587163,1.0871703732700693,-0.2106705333105654
2.125685989501294,11.3321530927217,-0.014196373648812488,1.0697438608326992,-0.20410178860573067
2.1227379786724434,11.109309394157446,-0.01387991995928901,1.0525770778744972,-0.19777991657701455
2.119855712419974,10.890044286024807,-0.013570234826133452,1.0356620471982665,-0.191693002617474
2.1170377834169907,10.674305706524663,-0.013267184249900746,1.0189910908983368,-0.18582981291886938
2.114282812724893,10.462043176302434,-0.012970631865313817,1.0025568159800389,-0.1801797492356636
2.1115894502138035,10.253207740041208,-0.01268043966887388,0.9863521007935264,-0.1747328070588498
2.1089586396023448,10.047890401817977,-0.012374899487874447,0.9690511203801128,-0.1956310065578743
2.1063892364379457,9.846194520449174,-0.012095606839733165,0.9518620355132508,-0.21831649696972794
2.103875733368932,9.648096920979278,-0.011842517627064206,0.9347817689619576,-0.24268398663245946
2.101412642238292,9.453575062363342,-0.011615493140937704,0.9178073607136267,-0.2686308935069869
2.09899451308943,9.262607013348301,-0.01141430827679926,0.9009359632391493,-0.2960571236099143
2.096615951515353,9.075171429309318,-0.011238659095357852,0.8841648371321025,-0.32486485565860834
2.0942716344839853,8.891247529964168,-0.011088169774810221,0.8674913471074266,-0.3549583310909318
2.0919563247629602,8.710815077891432,-0.010962398996860547,0.8509129583472058,-0.3862436486375246
2.0896648840587297,8.533854357780726,-0.010860845805332187,0.8344272331833301,-0.4186285626343985
2.087392284977034,8.360346156345035,-0.01078295497272495,0.8180318281089737,-0.45202228426781393
2.0851336219046814,8.190271742826727,-0.010728121906819387,0.8017244911130045,-0.4863352849418227
2.0828841209061997,8.023612850029828,-0.010695697126342885,0.785503059333662,-0.5214791009513167
2.0806391487230984,7.86035165581163,-0.010684990331765731,0.7693654570301388,-0.5573661386296676
2.078394220958344,7.700470764966791,-0.010695274094464068,0.7533096938730952,-0.5939094791197775
2.076145009524027,7.543953191436561,-0.0107257871847463,0.7373338635576727,-0.6310226818901854
2.0738873494261894,7.390782340774752,-0.010775737556565603,0.7214361427452725,-0.6686195860833325
2.0716172449573182,7.240941992800455,-0.010844305004108665,0.7056147903432817,-0.7066141087406297
2.0693308753640896,7.094416284365224,-0.010930643502834179,0.6898681471351036,-0.74492003889794
2.0670246000555768,6.951189692159524,-0.011033883244907018,0.67419463577633,-0.7834508264847645
2.064694963415349,6.811247015479449,-0.011153132376307353,0.6585927611767511,-0.8221193648899465
2.06233869927962,6.674573358870209,-0.011287478440158196,0.6430611112921899,-0.8608377659751392
2.059952735142966,6.5411541145572585,-0.011435989527977452,0.6275983583549636,-0.8995171262235578
2.0575341961530818,6.410974944569382,-0.011597715137586482,0.6122032605771994,-0.9380672826044855
2.055080408956643,6.284021762450202,-0.011771686733257684,0.5968746643673739,-0.9763965566123417
2.0525889054596176,6.160280714445346,-0.011956918000316131,0.5816115071074297,-1.0144114848014953
2.0500574265673928,6.0397381600417575,-0.01215240478277744,0.5664128205457908,-1.0520165339829641
2.0474839259728927,5.922380651723024,-0.012357124688652939,0.5512777348707131,-1.0891137990752455
2.0448665740645455,5.808194913790018,-0.01257003634322435,0.536205483538862,-1.1256026814073512
2.0422037620305966,5.697167820079105,-0.012790078265816707,0.5211954089460237,-1.161379545056423
2.039494106241954,5.5892863703905,-0.013016167340304198,0.5062469690406786,-1.1963373485641462
2.036736453002635,5.484537665416536,-0.013247196843682965,0.4913597449970884,-1.2303652491151738
2.0339298837650523,5.38290887993314,-0.013482033990439108,0.4765334500828854,-1.2633481759774638
2.0310737209170395,5.284387233987324,-0.013719516943016492,0.46176793987727227,-1.2951663697007707
2.028167534258839,5.188959961778085,-0.013958451230316889,0.4470632240202289,-1.3256948832496565
2.0252111483014534,5.096614277887358,-0.014197605506693032,0.4324194797009975,-1.3548030409187213
2.0222046505330704,5.007337340470524,-0.01443570657314452,0.417837067125999,-1.3823538505524997
2.019148400818021,4.92111621096182,-0.014671433570184442,0.4033165472426131,-1.4082033642899983
2.0160430421131768,4.83793780978754,-0.014903411237852325,0.38885870203623624,-1.4321999828038372
2.0128895127103625,4.7577888675085305,-0.015130202122285273,0.3744645577638447,-1.4541836978512346
2.0096890602406026,4.680655870731865,-0.015350297589713926,0.360135411537726,-1.4739852679654109
2.006443257707528,4.606525002039035,-0.015562107487183301,0.34587286172733095,-1.4914253223901335
2.0031540218536565,4.535382073073784,-0.015763948263975723,0.3316788427036239,-1.506313389042285
1.9998236342054914,4.467212449816813,-0.01595402933759871,0.3175556645056364,-1.5184468435904785
1.996454765192606,4.402000968947686,-0.016130437451787702,0.30350605805749614,-1.5276097789736376
1.9930505017936229,4.33973184405901,-0.016291118729002286,0.28953322659654535,-1.5335717983084893
1.9896143792304744,4.280388560349117,-0.016433858062889137,0.2756409039738625,-1.536086739817325
1.9861504173145943,4.223953756286402,-0.016556255421682205,0.26183342043293484,-1.5348913511266549
1.9826631621493762,4.170409090627182,-0.016655698532775164,0.24811577632153978,-1.5297039434806379
1.9791577340192905,4.119735093105451,-0.016729331277564652,0.23449372388540468,-1.5202230761909064
1.9756398824584533,4.071910997140208,-0.01677401692088496,0.22097385673594772,-1.5061263511064493
1.972116049707552,4.026914553091366,-0.0167862949924619,0.207563705633984,-1.4870694405811726
1.9685934440660564,3.9847218210447615,-0.01676233016463817,0.19427183766701323,-1.462685536990872
1.9650801250727998,3.945306942983837,-0.01669785072352092,0.1811079533894221,-1.4325855069542708
1.9615851030788556,3.908641895759615,-0.016588073028327748,0.16808297255555163,-1.3963591728576568
1.95811845673995,3.874696228875518,-0.016427606389820163,0.15520909300727778,-1.3535783473637535
1.9546914734656222,3.843436795306122,-0.016210329556160065,0.14249979812982194,-1.303802539061931
1.951316820278937,3.814827490139514,-0.015929224602745158,0.1299697748855011,-1.2465886607319236
1.94800875646781,3.788829021786505,-0.015576145027037963,0.11763468561935098,-1.1815066367514646
1.944783405855575,3.7653987550060393,-0.015141479851389491,0.10551071228985606,-1.1081635330120188
1.9416591171523443,3.7444906849725115,-0.014613650655570595,0.09361376421993851,-1.026239657130704
1.938656958390712,3.7260556265554605,-0.013978337550450293,0.08195822070436415,-0.935540736934827
1.935801420284188,3.7100417281555274,-0.013217263464065059,0.07055509739023628,-0.8360700689841656
1.9331214506229468,3.696395429931524,-0.012306257119183957,0.05940964760026965,-0.728121844936588
1.930652020353913,3.6850629462841447,-0.011212126395421957,0.048518768089069145,-0.6123887866475669
1.9284365613055336,3.675992189924731,-0.009887483589144633,0.03786938771488475,-0.49005990229729207
1.9265309104353394,3.6691346423050497,-0.008261572317467873,0.027440589615426222,-0.3628564603412586
1.925010238524119,3.664445762661405,-0.006221017313201354,0.017215406990703626,-0.23292642561666416
1.9239839343641345,3.6618800671367673,-0.0035533080199846856,0.0072197884820395155,-0.10251731050002477
