x,y,v_x,v_y,omega
2.375,32.48,0.0,4.0,-7.63265306122449
2.3729074918540443,31.730579089478894,-0.02202640153637747,3.8886411633800217,-7.0394967624373574
2.3669990948587256,31.00177469057231,-0.04016725104592442,3.7829840882682086,-6.51623684014794
2.357950032218026,30.292548193027454,-0.05508603990881038,3.6825579911513704,-6.052303143615112
2.3463211620507143,29.601945150868406,-0.06732311974709804,3.586947715785954,-5.639010255121211
2.3325799751424907,28.929085565729768,-0.07732095297104455,3.4957847593576314,-5.269174562404376
2.317117339815776,28.273155698011404,-0.08544362941542533,3.408740163993537,-4.936818478909603
2.3002609463896264,27.63340109589322,-0.09199209085983723,3.325518805671566,-4.636939821189738
2.282286167844476,27.00912060842366,-0.09721610435226871,3.2458547466395835,-4.365330459864666
2.2634248819512903,26.399661203611895,-0.10132374715494948,3.1695074092737334,-4.118432613744654
2.2438726738525725,25.804413452378153,-0.10448896967365971,3.0962583931867305,-3.8932241667568093
2.22379474387078,25.222807568786514,-0.10685766171363235,3.0259088025147136,-3.6871265482856486
2.2033307742570702,24.654309919197217,-0.10855254474646737,2.9582769826357946,-3.4979302889870474
2.1825989544718767,24.098419929886916,-0.10967713720294031,2.8931965890515996,-3.323734520152291
2.161699323013484,23.55466733572511,-0.11031898341171646,2.8305149284410707,-3.1628975440292137
2.1407165516253035,23.02260972266989,-0.11055229435860578,2.770091524771779,-3.013996247377745
2.1197222726211242,22.50183032487534,-0.11044011621170209,2.7117968730656017,-2.8757926186762934
2.0987770303814393,21.99193604360572,-0.11003611789024498,2.6555113508251535,-2.747206001842883
2.0779319225377235,21.492555660307268,-0.10938606993834095,2.6011242628427307,-2.6272900056006767
2.0572299840338895,21.003338220378232,-0.10852907220728272,2.5485329995681623,-2.5152132091432073
2.036707357422993,20.523951567611014,-0.10749857632846992,2.497642292718321,-2.410242977269526
2.0163942848800693,20.054081012116086,-0.10632323991283235,2.448363554596756,-2.3117318333041506
1.9963159510724036,19.59342811689606,-0.1050276422731226,2.40061428982455,-2.2191059445762167
1.976493200905161,19.141709590213907,-0.10363288580311486,2.354317569987616,-2.1318553595355114
1.9569431520034088,18.698656272563476,-0.10215710263638185,2.309401563174781,-2.049525702672674
1.9376797184061976,18.26401220846121,-0.10061588259742116,2.265799111585946,-1.9717110870529975
1.9187140591814784,17.837533794479008,-0.09902263555751653,2.223447351384596,-1.8980480473554404
1.900054963401522,17.418988995966885,-0.0973888989683394,2.1822873697956195,-1.82821033105724
1.8817091810515492,17.008156625797966,-0.09572459945242939,2.142263895140386,-1.7619044135462025
1.8636817079034156,16.604825679231876,-0.09403827579108115,2.103325016081613,-1.698865625822665
1.8459760311106481,16.20879471965423,-0.09233726939594428,2.0654219268409775,-1.6388548021248177
1.8285943412221644,15.819871310525322,-0.09062788732493747,2.028508695568561,-1.5816553701034626
1.8115377154304393,15.437871489373507,-0.08891554206164105,1.9925420533979066,-1.5270708187403987
1.794806276134009,15.062619280108418,-0.08720487158499611,1.9574812020240595,-1.4749224895683037
1.7783993282783745,14.69394624031537,-0.08549984268484047,1.9232876379027548,-1.4250476453234482
1.7623154784227368,14.331691040532196,-0.08380384000608154,1.8899249913938228,-1.377297777277184
1.7465527380455108,13.97569907280997,-0.08211974291208822,1.8573588793664428,-1.3315371184139149
1.7311086132353581,13.625822086124646,-0.08044999193162276,1.825556769952755,-1.2876413345665674
1.715980182605106,13.281917846442216,-0.07879664628155776,1.7944878582833412,-1.245496369758772
1.7011641650039906,12.943849819449486,-0.07716143373018293,1.7641229521664288,-1.2049974254766649
1.6866569783814667,12.6114868741491,-0.07554579387533336,1.734434366785001,-1.1660480565168898
1.672454790966915,12.28470300568399,-0.07395091575152526,1.7053958275845724,-1.1285593685244741
1.65855356576869,11.963377075905402,-0.07237777054558056,1.676982380611099,-1.0924493044212975
1.6449490992586324,11.64739257033203,-0.0708271400866038,1.6491703096349375,-1.057642008695728
1.6316370549907915,11.336637370267603,-0.06929964168014344,1.6219370594643054,-1.0240672600284442
1.6186129928025492,11.0310035389519,-0.06779574977503922,1.5952611649114976,-0.9916599640112388
1.6058723941600883,10.730387120717133,-0.06631581488244352,1.569122184928155,-0.9603596988101577
1.5934106841360123,10.434687952209021,-0.06486008010783001,1.5435006414730321,-0.9301103075610238
1.5812232504431196,10.143809484810902,-0.06342869560682753,1.518377962717689,-0.900859532088752
1.5693054598933291,9.857658617480588,-0.06202173123307483,1.4937364302329663,-0.8725586832322755
1.5576631705674582,9.576147737247187,-0.06052868272345944,1.4695359932765348,-0.8421929197737984
1.5463010360600458,9.299192237625206,-0.059072733144040684,1.4457850553758747,-0.8131594430292066
1.5352120792628665,9.026708189983221,-0.057653127878898376,1.4224680776976637,-0.7853844440499796
1.5243894689320254,8.75861455305721,-0.05626908612995541,1.3995702057340382,-0.7587989782011615
1.5138265239954438,8.49483304653912,-0.054919807939325306,1.3770772312984816,-0.7333385933759832
1.5035167166199805,8.235288031647606,-0.053604480223443766,1.3549755570332662,-0.7089429904312889
1.4934536742138445,7.979906398222084,-0.0523222819464094,1.3332521632353744,-0.6855557127280186
1.4836311805173081,7.728617457916375,-0.05107238854344834,1.311894576824727,-0.66312386199291
1.4740431759150243,7.481352843100115,-0.04985397569111809,1.290890842293792,-0.6415978380109427
1.4646837570860636,7.238046411105522,-0.04866622250846836,1.270229494491401,-0.6209310999176926
1.4555471760928103,6.9986341534837635,-0.047508314262616966,1.2498995331060483,-0.6010799470908867
1.4466278389967908,6.763054109959796,-0.04637944464285184,1.2298903987252008,-0.5820033178446855
1.4379203040780917,6.531246286796954,-0.045278817659242666,1.2101919503573566,-0.5636626043117072
1.42941927972507,6.303152579303283,-0.044205649214671905,1.190794444312846,-0.5460214820593022
1.4211196220523379,6.078716698230522,-0.043159168393033666,1.171688514347781,-0.5290457531304578
1.4130163322974068,5.857884099834077,-0.04213861850097733,1.1528651529832021,-0.5127032013280488
1.405104554039705,5.6406019193784225,-0.04114325789588646,1.1343156939184382,-0.49696345867576436
1.39737957027987,5.426818907887089,-0.04017236062869185,1.1160317954640344,-0.4817978820915195
1.3898368004121227,5.2164853719500925,-0.03922521692654263,1.098005424925392,-0.4671794394008952
1.3824717971180638,5.009553116414192,-0.038301133537233314,1.0802288438735468,-0.4530826039003602
1.3752802432063445,4.805975389792994,-0.03739943395455076,1.062694594244341,-0.43948325675378486
1.3682579484192374,4.605706832244675,-0.0365194585413106,1.0453954852116665,-0.42635859657199626
1.3614008462241611,4.408703425975041,-0.035660564564756594,1.028324580784492,-0.41368705558468416
1.3547049906055793,4.2149224479328105,-0.03482212615715905,1.0114751880811115,-0.40144822186756846
1.3481665528704296,4.0243224246725475,-0.03400353421283763,0.9948408462374327,-0.38962276713603233
1.3417891740417727,3.837065004005307,-0.03312676924670929,0.9762898976282407,-0.4207298215682723
1.3355735133926037,3.653321984154232,-0.03230123758664923,0.9578471534356923,-0.4532979773045399
1.3295099849134249,3.473073073724418,-0.03152537798365355,0.9395097984570903,-0.48721913696384594
1.323589300877149,3.296298505676372,-0.03079761187188034,0.9212751283644588,-0.5223872627670603
1.3178024747995398,3.12297901659295,-0.030116346839796908,0.9031405461978879,-0.5586981369922727
1.3121408237758236,2.953095826575847,-0.029479979725635697,0.885103559245305,-0.5960491261133767
1.3065959702624743,2.7866306196987765,-0.02888689936225213,0.8671617763028084,-0.6343389476020502
1.3011598433686595,2.623565524945324,-0.028335488993693897,0.8493129053124937,-0.6734674383683672
1.295824679717863,2.4638830975597656,-0.027824128383112146,0.8315547513776026,-0.7133353238023199
1.290583023936708,2.3075663007388982,-0.02735119562904651,0.8138852151578471,-0.7538439863572525
1.285427728825014,2.154598487592061,-0.026915068704574135,0.7963022916509679,-0.7948952325862054
1.2803519552586056,2.004963383295067,-0.02651412673130358,0.7788040693700137,-0.8363910575029527
1.275349171874351,1.8586450673616106,-0.026146750997692456,0.761388729929529,-0.8782334050904828
1.2704131545853488,1.715627955952808,-0.025811325728646566,0.7440545480578785,-0.9203239237201459
1.2655379859731022,1.5758967841418574,-0.025506238610790648,0.7267998920573742,-0.9625637151738529
1.260718054602937,1.4394365880462203,-0.02522988107515683,0.709623224738792,-1.0048530758786633
1.2559480543088501,1.3062326867341127,-0.024980648336284928,0.6925231048623518,-1.0470912288668435
1.2512229834944388,1.176270663805468,-0.024756939183834033,0.6754981891233869,-1.0891760448638772
1.2465381444976003,1.049536348539597,-0.024557155519729836,0.6585472347278698,-1.1310037507808168
1.2418891430683212,0.9260157964924218,-0.024379701630574877,0.6416691026108143,-1.1724686237444881
1.2372718880111757,0.8056952694152422,-0.024222983181483495,0.6248627613594994,-1.2134626686381715
1.232682591047141,0.6885612143542943,-0.024085405913617835,0.6081272919136335,-1.2538752769452304
1.2281177669531207,0.5746002417755101,-0.023965374023438474,0.5914618931261968,-1.293592864487688
1.2235742340421811,0.46379910254173495,-0.02386128819697782,0.5748658882819966,-1.33249848543016
1.219049115053082,0.35614466354975605,-0.02377154326722314,0.5583387326862086,-1.3704714196765453
1.2145398385242927,0.25162388181156814,-0.023694525456875296,0.541880022452645,-1.4073867305229817
1.2100441407354774,0.15022377673762577,-0.02362860916223356,0.525489504641514,-1.443114789147547
1.2055600683085348,0.051931400349339185,-0.02357215322663618,0.5091670889193715,-1.4775207622186985
1.2010859815708592,-0.04326619488731609,-0.023523496643632978,0.492912860940185,-1.5104640585969737
1.1966205587957448,-0.1353819909558851,-0.023480953620729952,0.47672709767631444,-1.5417977307986526
1.1921628014490004,-0.22442904230653937,-0.023442807923947213,0.460610284962123,-1.571367826602531
1.1877120405871469,-0.3104205174453014,-0.02340730641135308,0.4445631375511511,-1.5990126859370934
1.183267944571327,-0.3933697446055575,-0.02337265164990791,0.4285866220304634,-1.624562178023189
1.1788305282826532,-0.473290262081818,-0.02333699349402579,0.41268198298278524,-1.6478368737230613
1.1744001640495711,-0.5501958738847748,-0.023298419485786166,0.396850772837814,-1.6686471482427325
1.1699775945264885,-0.6241007114655588,-0.023254943915084297,0.3810948859072745,-1.6867922098716919
1.1655639477960837,-0.6950193023561297,-0.02320449535233506,0.36541659715136926,-1.7020590514966627
1.1611607550062497,-0.7629666466814271,-0.023144902435392134,0.34981860627279765,-1.7142213234491157
1.1567699708977324,-0.827958302615599,-0.02307387765426386,0.3343040877710801,-1.7230381292080328
1.1523939976318043,-0.8900104819760912,-0.022988998829188898,0.31887674760251,-1.7282527501155323
1.1480357123910752,-0.9491401572690847,-0.02288768791532826,0.303540887060587,-1.7295913123509061
1.1436984993041497,-1.0053651816067344,-0.022767186683887906,0.2883014743883691,-1.7267614200788208
1.1393862863413515,-1.0587044229927187,-0.02262452871398714,0.27316422441145083,-1.7194507945848787
1.1351035879519018,-1.1091779144881642,-0.022456506964430887,0.25813568606695025,-1.707325982731062
1.1308555543749257,-1.1568070216786879,-0.022259635951106072,0.24322333699117715,-1.6900312326887277
1.126648028776793,-1.2016146285922886,-0.022030107187132414,0.22843568315195628,-1.6671876856945334
1.1224876136766795,-1.2436253426560384,-0.021763735971958707,0.21378235962438338,-1.638393106826248
1.1183817485714538,-1.2828657182568506,-0.021455896714626506,0.19927422564731143,-1.6032224859485318
1.1143388013428637,-1.3193644967343587,-0.021101442533690153,0.18492344253699045,-1.5612299966913679
1.110368177060818,-1.3531528578089507,-0.020694602540474907,0.17074351614289537,-1.5119530265374357
1.1064804494112959,-1.3842646730011268,-0.020228846401862743,0.15674927535365846,-1.4549193103869487
1.1026875225471504,-1.412736744801876,-0.019696699536511098,0.14295674360156196,-1.3896586423570496
1.0990028352948336,-1.438609005291319,-0.01908948206682501,0.12938284049780402,-1.315721229348404
1.095441626344339,-1.4619246336138403,-0.018396927938380277,0.11604482605505677,-1.2327054766109096
1.092021289903294,-1.4827300326822552,-0.0176066135463039,0.10295937466506791,-1.1402987566590939
1.0887618688384606,-1.5010745828922794,-0.016703081872993974,0.09014115386151345,-1.0383351721681586
1.0856867605047658,-1.5170100702481335,-0.015666479534320654,0.0776008183053683,-0.9268736483258772
1.0828237555599687,-1.530589684136082,-0.014470414621436913,0.06534248577828616,-0.8062961484442515
1.0802066034865259,-1.5418665317571296,-0.013078554572697645,0.05336117339060256,-0.6774164629634405
1.077877428083871,-1.5508917897356014,-0.01143908124472145,0.0416415421722502,-0.5415715517552531
1.0758905953500475,-1.5577130229407317,-0.009474947532367382,0.030160912618603035,-0.40064024716129276
1.0743194546966568,-1.5623740744013261,-0.007063375134904279,0.018902786966582028,-0.25691055661032686
1.0732708038462793,-1.5649203042388535,-0.00397505486906939,0.007899632375823615,-0.11272363353124698
