x,y,v_x,v_y,omega
2.375,32.48,0.0,2.2051282051282053,-6.653061224489796
2.373986323277158,32.043236145406794,-0.010136767228422732,2.1625103408038515,-6.332385517460153
2.3710616000750133,31.614863043035776,-0.019110464793023245,2.121220682906319,-6.034070152634281
2.3664459177113457,31.194622541522985,-0.02704635884365177,2.08118433222158,-5.756020428777033
2.3603358052044388,30.782270836018117,-0.03405476622541828,2.0423327228270796,-5.496380781381189
2.352907019302584,30.377577276433684,-0.04023309279312665,2.0046028730172605,-5.253502743622744
2.344316954846449,29.980323314217237,-0.04566755176822184,1.9679367491472222,-5.025917862814772
2.3347067376801403,29.590301567075564,-0.050434619894870296,1.9322807222694889,-4.812314697604122
2.324203047962858,29.20731498470041,-0.054602277277952166,1.897585101482069,-4.6115191953766885
2.312919713470322,28.831176101446445,-0.058231067647407125,1.8638037310575837,-4.422477884908153
2.3009591058358683,28.461706364251093,-0.06137500869712812,1.8308936408959142,-4.244243425640647
2.2884133673072307,28.09873552598202,-0.06408237658924812,1.7988147417948475,-4.075962139012202
2.275365491215555,27.742101095944204,-0.06639638432750564,1.767529558583284,-3.9168632141602404
2.261890275761433,27.391647840545936,-0.06835577021371932,1.737002995399404,-3.766249333917104
2.248055167759483,27.047227328166997,-0.06999530980577791,1.7072021283899683,-3.6234885102261467
2.233921010524822,26.70869751313711,-0.07134626254083198,1.6780960219089154,-3.4880069531484144
2.219542708035002,26.375922354451838,-0.07243676235737107,1.6496555649438134,-3.359282826203649
2.204969815783692,26.048771465454582,-0.07329216015572797,1.6218533250287481,-3.2368407642100565
2.190247067297139,25.727119791218094,-0.07393532470980417,1.5946634173361296,-3.1202470490782184
2.175414844063127,25.41084731078481,-0.07438690763031298,1.5680613869967286,-3.009105354977088
2.16050959558609,25.09983876178594,-0.07466557714005542,1.5420241029919808,-2.903052987555956
2.145564215399885,24.793983385266035,-0.07478822472199795,1.516529662207047,-2.8017575529763197
2.130608378116152,24.49317468880166,-0.07477014811533363,1.4915573024367303,-2.7049140017811313
2.1156850205243978,24.197318977840368,-0.07446342780220658,1.4669998071761452,-2.6073008468547574
2.1008317540935626,23.9063259839045,-0.07406923650614505,1.44293013218254,-2.5141858443462
2.0860651177912266,23.620099940102214,-0.07359712651721444,1.419330305840356,-2.4253076457855203
2.0713998307758965,23.33854858694771,-0.07305574363608754,1.3961832257046742,-2.340423006919317
2.0568489649009334,23.061583003973467,-0.0724529151135422,1.373472604037769,-2.2593053290065037
2.0424241005400825,22.78911745181369,-0.07179572849496578,1.3511829175599803,-2.1817433340814105
2.0281354674519494,22.521069223955546,-0.07109060238636795,1.3292993610214732,-2.107539860348043
2.013992072209828,22.257358507428933,-0.07034335003484478,1.307807804244643,-2.0365107654604366
2.0000018135554156,21.997908251772003,-0.06955923650927706,1.2866947523246843,-1.9684839268329268
1.9861715868870977,21.74264404566864,-0.0687430301739031,1.265947308708915,-1.9032983293390873
1.9725073789630798,21.4914940007073,-0.06789904906627599,1.2455531409045046,-1.8408032318229428
1.9590143537844213,21.244388641757865,-0.06703120272030921,1.2255004485898315,-1.7808574047811996
1.9456969305210705,21.001260803506156,-0.06614302991319963,1.2057779339272698,-1.7233284323979674
1.9325588542536725,20.76204553272391,-0.06523773276078118,1.186374773895167,-1.6680920728385786
1.9196032602237671,20.526679995886948,-0.06431820753827011,1.167280594474474,-1.6150316713493178
1.906832732213787,20.295103391785382,-0.0633870725615327,1.1484854465412018,-1.5640376212760456
1.8942493556149154,20.067256868798275,-0.06244669342718249,1.129979783329874,-1.5150068686162028
1.8818547656844622,19.843083446530724,-0.06149920587734965,1.1117544393456138,-1.4678424561635817
1.869650191444097,19.6225279415348,-0.06054653652630159,1.0938006106136602,-1.4224531037005388
1.8576364956253917,19.405536896856923,-0.05959042166075289,1.076109836165076,-1.3787528210440445
1.8458142110289895,19.192058515173777,-0.058632424303268274,1.0586739806663699,-1.3366605510653424
1.834183573627835,18.982042595296264,-0.057673949708276384,1.0414852181087846,-1.2960998400826202
1.822744552712751,18.775440471837364,-0.05671625944256358,1.0245360164802433,-1.256998533275903
1.811496878349851,18.57220495785439,-0.055760484186435394,1.0078191233494618,-1.2192884929968684
1.8004400663934292,18.372290290289683,-0.05480763537778383,0.9913275522976215,-1.182905338046448
1.7895815237287003,18.175849479124107,-0.053777791269506194,0.9730805593581233,-1.1865558038327846
1.778925560716273,17.9830456842473,-0.052781838854767296,0.9549573894099472,-1.1924205476266607
1.76846542657639,17.79385449044988,-0.05181950254406297,0.9369545485642253,-1.2003657048699488
1.7581944359342438,17.60825216637066,-0.05089040387739916,0.9190686922279706,-1.2102609289289534
1.7481059885036418,17.426215635228743,-0.04999407042861969,0.9012966191912507,-1.2219790918578621
1.7381935870612386,17.247722446685845,-0.04912994399541367,0.8836352662377128,-1.2353959943811779
1.7284508538492136,17.072750749736155,-0.04829738812483372,0.8660817032591939,-1.250390083876556
1.7188715455347354,16.90127926652439,-0.04749569501994952,0.8486331288584694,-1.2668421791735027
1.7094495668458087,16.733287266995795,-0.046724091869318446,0.8312868664274734,-1.284635201009096
1.7001789829951521,16.56875454428389,-0.04598174663724576,0.8140403606915887,-1.3036539069994222
1.6910540309964976,16.40766139074334,-0.04526777334930038,0.7968911747139059,-1.323784629994864
1.6820691299711452,16.249988574536278,-0.04458123690422251,0.7798369873567109,-1.3449150186887622
1.6732188905367051,16.095717316680513,-0.04392115744017817,0.762875591200932,-1.366933779342257
1.6644981233646616,15.944829268467629,-0.04328651428025802,0.7460048909278968,-1.3897304174731653
1.6559018469887201,15.797306489157684,-0.04267624947915845,0.7292229021715674,-1.4131949783334503
1.6474252949417947,15.653131423855179,-0.04208927099009551,0.7125277508534833,-1.4372177849679209
1.6390639222959686,15.512286881468128,-0.04152445546816339,0.6959176730170133,-1.461689172606074
1.6308134116767992,15.374756012648202,-0.04098065072353112,0.6793910151822452,-1.486499218089148
1.6226696788209412,15.240522287605177,-0.040456677835048936,0.66294623524801,-1.5115374629752596
1.6146288777442381,15.109569473683056,-0.03995133293198115,0.6465819039732126,-1.536692628896689
1.6066874055861735,14.981881612578146,-0.03946338864866585,0.6302967070759034,-1.5618523236648274
1.5988419071959175,14.857442997071008,-0.038991595253893244,0.6140894479954829,-1.5869027365299373
1.5910892795251623,14.736238147134344,-0.03853468145365938,0.5979590513711704,-1.6117283209049262
1.5834266758935307,14.618251785267375,-0.0380913548626546,0.5819045672985078,-1.6362114627552744
1.575851510193631,14.503468810893992,-0.03766030213634503,0.5659251764353367,-1.6602321327420915
1.5683614611048207,14.391874273646508,-0.03724018875175689,0.5500201960394978,-1.6836675200836912
1.5609544763875425,14.283453345339296,-0.03682965842102467,0.5341890870326039,-1.7063916459757404
1.5536287773337043,14.178191290416262,-0.0364273321173578,0.5184314621977523,-1.7282749542850442
1.5463828634531436,14.076073434633077,-0.03603180668824717,0.502747095634106,-1.7491838771134087
1.5392155174817799,13.977085131708868,-0.03564165302539061,0.4871359336079804,-1.7689803727245663
1.532125810803754,13.881211727652222,-0.035255413754867064,0.47159810695848126,-1.7875214332514247
1.5251131093878265,13.788438522432788,-0.03487160040440839,0.4561339452358464,-1.8046585595708238
1.5181770803476806,13.698750728631975,-0.03448868999704932,0.44074399277229565,-1.8202372007737286
1.5113176992467983,13.612133426663938,-0.03410512101177572,0.42542902690807227,-1.8340961558057784
1.504535258281444,13.528571516111246,-0.033719288641765675,0.4101900786188346,-1.8460669351558598
1.4978303754903621,13.448049662668005,-0.03332953926905391,0.3950284558135534,-1.8559730809980306
1.4912040051574142,13.370552240127367,-0.03293416406042614,0.37994576959284604,-1.8636294450411461
1.4846574495941391,13.296063266790732,-0.032531391572322946,0.36494396377349003,-1.8688414246454235
1.4781923725137642,13.224566335614234,-0.032119379231426784,0.35002534799149376,-1.8714041597134707
1.4718108142375377,13.156044537346364,-0.031696203530838934,0.3351926346871988,-1.8711016957166948
1.4655152090097565,13.090480375853453,-0.03125984874697313,0.3204489802419225,-1.8677061223418074
1.459308404741463,13.027855674783009,-0.030808193935962014,0.3057980304625215,-1.8609767031467475
1.4531936855573537,12.968151474689037,-0.030338997905129842,0.2912439704772114,-1.8506590200138913
1.4471747975901668,12.911347919753048,-0.02984988176673945,0.2767915788826707,-1.8364841680772177
1.4412559785579742,12.857424133302299,-0.02933830855518778,0.262446285624819,-1.8181680535690936
1.435441991781889,12.806358081485804,-0.028801559205662595,0.24821423254011762,-1.7954108706151024
1.429738165469139,12.758126424767795,-0.028236703921837313,0.23410233463999164,-1.7678968660771814
1.424150438321397,12.712704357407809,-0.027640567555583834,0.22011833895988211,-1.7352945477739319
1.4186854128648503,12.670065435917913,-0.02700968700988273,0.2062708759390788,-1.6972575557441383
1.41335041838953,12.630181398763103,-0.026340257743320036,0.1925694956090283,-1.6534265051828432
1.4081535861128074,12.59302198149825,-0.025628065023905307,0.1790246770395136,-1.603432231479582
1.403103940272631,12.558554734378095,-0.02486839337785779,0.16564779416205044,-1.5469010319578074
1.3982115105062365,12.526744853571504,-0.02405590428608763,0.15245101390385357,-1.4834627146729835
1.3934874733813039,12.49755504284563,-0.023184466963238407,0.139447093354903,-1.4127625364000578
1.3889443347778136,12.470945430320999,-0.022246919071663148,0.12664903189140103,-1.3344784289156282
1.3845961706587517,12.446873574758797,-0.02123472211895522,0.11406952373062992,-1.2483452267144923
1.3804589526313835,12.425294607235596,-0.02013745815472946,0.10172015150136918,-1.1541877920598804
1.3765509980623925,12.406161564714886,-0.018942087535179834,0.0896102737057408,-1.0519647014992082
1.3728936045324418,12.389425976208578,-0.017631847764327312,0.07774561135734233,-0.9418229653382143
1.3695119585624382,12.375038747905343,-0.016184611935707728,0.06612667167501322,-0.8241611937917528
1.3664364557591555,12.36295133875364,-0.014570416097120517,0.05474741984201495,-0.699692543888117
1.3637046524258676,12.353117086686122,-0.012747617235758076,0.04359510083315151,-0.5694890160513882
1.3613642483274782,12.345492282696746,-0.01065642374813628,0.03265293906061429,-0.43497694121106034
1.3594780039303742,12.340036079737352,-0.008206020222903041,0.021909090533326236,-0.29784620593332767
1.3581333447091748,12.336707058731498,-0.005240571989090314,0.011381119525229013,-0.15984280129703662
1.3574698184197065,12.335448080542594,-0.0013946909055931587,0.0012086623638093777,-0.02247126718908668
