x,y,v_x,v_y,omega
2.375,32.48,0.0,2.3076923076923075,-4.6938775510204085
2.3743908285238344,32.06843896576007,-0.00676857195739512,2.2652080727512742,-4.479461593002623
2.372630403820594,31.664417584000994,-0.012791702523054154,2.223918391238512,-4.279053672680372
2.369846073800499,31.267726097947488,-0.01814529770022388,2.183764787133771,-4.091427744653563
2.3661522814422504,30.878164909471828,-0.02289683961365123,2.144692862595786,-3.915487406498112
2.3616519870629746,30.49554388030333,-0.027106431267190482,2.1066519059430773,-3.7502500325455186
2.3564379156140904,30.11968169937973,-0.03082769594263008,2.0695945487636043,-3.594833113303628
2.3505936531235267,29.750405308175907,-0.034108553952522026,2.0334764646121983,-3.4484424559487223
2.344194612674845,29.387549377082173,-0.03699189547727713,1.9982561030959671,-3.3103619613596424
2.3373088872305687,29.030955826923446,-0.039516165014679944,1.9638944542231938,-3.179944741617219
2.3299980040451587,28.680473390555136,-0.04171587037876507,1.9303548387580554,-3.0566053812150127
2.3223175932742732,28.335957210174584,-0.043622027075519154,1.8976027210258304,-2.9398131773102856
2.3143179815934434,27.997268466575587,-0.045262547155923136,1.8656055411852488,-2.8290862206508094
2.306044720129102,27.664274037068168,-0.04666258022564637,1.834332564452749,-2.7239862004847337
2.297539054728409,27.33684617920407,-0.04784481311538883,1.8037547451483287,-2.6241138346927704
2.2888383455114734,27.01486223780316,-0.0488297337394514,1.773844603750677,-2.529104841281393
2.2799764417279307,26.69820437307841,-0.049635863855467297,1.7445761154131774,-2.4386263798040426
2.270984017152914,26.386759307916115,-0.050279964755828195,1.7159246086123314,-2.3523739016827676
2.2618888705836078,26.08041809259042,-0.050777219347574544,1.687866672784298,-2.2700683571450804
2.25271619541892,25.77907588538343,-0.05114139359339883,1.6603800739600243,-2.1914537138603447
2.2434888218066225,25.48263174774842,-0.051384979876578044,1.633443677540102,-2.116294748591851
2.234227434412314,25.190988452798305,-0.05151932450462805,1.607037377461182,-2.0443750784663477
2.224950768492591,24.9040523060278,-0.05155474127007015,1.5811420310999673,-1.9754954029586265
2.215675786632264,24.621732977288094,-0.05150061273356255,1.555739399341215,-1.9094719315232518
2.206417838225233,24.34394334312993,-0.05136548067789588,1.5308120913050867,-1.8461349750844183
2.197190803534646,24.07059933871651,-0.051157126995290875,1.5063435132884626,-1.7853276824057274
2.1880072239551387,23.801619818583212,-0.05088264611034623,1.482317821525969,-1.726904904776928
2.178879093635882,23.536929778279173,-0.05054102410361769,1.4586826262966515,-1.668999929641396
2.1698162420922165,23.276456729763503,-0.050157326381555,1.4354623572107945,-1.6135374658333057
2.160825830707235,23.020127238410765,-0.04973613345157194,1.4126431022641066,-1.560387027275958
2.1519142336894794,22.7678703201872,-0.04928161119015586,1.3902115446644003,-1.5094264164902367
2.1430871092976815,22.519617337445617,-0.04879754871870729,1.3681549302420604,-1.4605411131427362
2.1343494645772916,22.275301900392208,-0.04828739261896047,1.34646103701806,-1.413623713832418
2.125705714233565,22.0348597738522,-0.047754277866890224,1.325118146759777,-1.3685734183098799
2.117159734201578,21.79822878899048,-0.04720105582185336,1.3041150183704355,-1.3252955578221337
2.1087149104162575,21.565348759669668,-0.04663031957059977,1.2834408629719336,-1.2837011617178058
2.100374183234527,21.336161403152396,-0.04604442689307092,1.2630853205532957,-1.2437065588399412
2.0921400879162286,21.110610264876463,-0.04544552108802188,1.2430384380682051,-1.2052330105822096
2.0840147915299188,20.88864064705156,-0.0448355498709748,1.2232906488751458,-1.1682063727945668
2.0760001266134336,20.67019954084475,-0.044216282534419185,1.203832753422767,-1.1325567840009183
2.068097621886722,20.455235561938483,-0.04358932554015516,1.184655901091275,-1.0982183776380512
2.060308530285475,20.243698889260543,-0.04295613669591712,1.165751573108059,-1.0651290162455525
2.052633854558105,20.035541206699197,-0.04231803805264231,1.1471115664624612,-1.0332300457336339
2.045074370645342,19.830715647630015,-0.041676227644725526,1.1287279787506668,-1.002466068032429
2.037630649040836,19.629176742092607,-0.041031790183119116,1.1105931938872065,-0.9727847305847226
2.0303030743123536,19.430880366466546,-0.04038570680001604,1.0926998686245675,-0.9441365312862832
2.023091862946298,19.23578369550591,-0.039738863933934575,1.0750409198269675,-0.9164746376057881
2.015997079663079,19.04384515660112,-0.039092061435167504,1.0576095124484972,-0.8897547187313334
2.009018652337186,18.855024386145487,-0.038446019963644745,1.0403990481696241,-0.8639347896941146
2.002156385643482,18.669282187891767,-0.03780138774417965,1.0234031546495106,-0.8389750665132746
1.9954099735401096,18.486580493191383,-0.03715874673773139,1.0066156753547575,-0.8148378314902232
1.9887790106883665,18.306882323015927,-0.03651861828163696,0.9900306599280846,-0.7914873078569156
1.9822669218654456,18.130383702382225,-0.03583792419526142,0.9710651248907719,-0.8196330222015719
1.9758739544909427,17.957289190057995,-0.0351950466325474,0.9522072342673595,-0.8491573041151531
1.9695933972132795,17.787579653545343,-0.03458892311926705,0.9334542825398974,-0.8799491262309855
1.963418733648676,17.62123643729833,-0.03401844982077249,0.9148036757602327,-0.9118991293300808
1.9573436494370806,17.45824134289603,-0.03348248586362008,0.8962529287097611,-0.9448993823668512
1.9513620385574837,17.298576609691153,-0.032979857243013784,0.8777996624555232,-0.9788431441014184
1.945468008974995,17.142224895862896,-0.032509360340193645,0.8594416023029319,-1.0136246253120855
1.9396558876879797,16.989169259802267,-0.03206976507108747,0.8411765761484891,-1.0491387505410312
1.9339202252399488,16.839393141757384,-0.03165981768481127,0.8230025132391,-1.085280918297664
1.9282557997578027,16.692880345664538,-0.03127824322792229,0.8049174433480684,-1.1219467586069607
1.9226576205753991,16.54961502108887,-0.030923747687673322,0.7869194963816023,-1.1590318867439933
1.9171209314992708,16.409581645195487,-0.030595019824863675,0.7690069024337385,-1.196431651940186
1.9116412137716547,16.272765004668365,-0.03029073270420348,0.7511779923120631,-1.2340408797809992
1.9062141887848125,16.13915017748974,-0.030009544927377275,0.7334311985615449,-1.2717536069380162
1.9008358205999425,16.008722514487467,-0.02975010157117954,0.7157650570192813,-1.3094628067900773
1.895502318323821,15.881467620551213,-0.029511034830168134,0.698178208939083,-1.34706010438736
1.8902101383966874,15.757371335410841,-0.029290964360206388,0.6806694037316985,-1.3844354790983837
1.8849559868458285,15.636419713861308,-0.029088497316003725,0.6632375023742154,-1.421476953152043
1.8797368215608832,15.518599005308044,-0.02890222807227672,0.6458814815509243,-1.458070264144308
1.874549854649083,15.403895632494656,-0.028730737614391596,0.628600438597827,-1.4940985194216987
1.8693925549315642,15.292296169260773,-0.028572592580264258,0.6113935973342087,-1.5294418300808976
1.864262650645566,15.183787317161723,-0.02842634393082816,0.5942603148774463,-1.563976922136278
1.8591581324218591,15.078355880763098,-0.02829052522146833,0.5772000895517235,-1.5975767222058155
1.854077256612202,14.975988741401842,-0.028163650441388677,0.560212570017784,-1.630109914853114
1.849018549048111,14.876672829180983,-0.02804421138184435,0.5432975657695347,-1.661440468503058
1.8439808093198762,14.780395092936924,-0.02793067448743297,0.5264550591644525,-1.6914271266272876
1.8389631156736697,14.687142467886051,-0.02782147713708251,0.509685219178596,-1.719922860683126
1.833964830634975,14.596901840620635,-0.027715023292860293,0.4929884171037888,-1.7467742811005533
1.8289856074785595,14.509660011082204,-0.027609678445088125,0.47636524443434786,-1.771821002468135
1.8240253976790872,14.425403651092989,-0.027503763771270538,0.4598165332235896,-1.7948949590022325
1.819084459492435,14.344119258972523,-0.027395549413755747,0.44334337922602296,-1.8158196664401907
1.8141633678362123,14.265793109706067,-0.027283246766493505,0.4269471681790273,-1.8344094267433197
1.809263025659246,14.19041120006445,-0.027164999644245402,0.4106296056167302,-1.8504684725234664
1.804384677014392,14.117959188000746,-0.027038874187463997,0.3943927506466189,-1.8637900490519645
1.7995299220776566,14.048422325568815,-0.026902847331818778,0.37823905415262266,-1.8741554332630435
1.7947007343900498,13.98178538452306,-0.026754793641591255,0.36217140191131136,-1.8813328915976713
1.789899480638117,13.918032573671002,-0.026592470268771026,0.34619316311154485,-1.8850765822364701
1.7851289433362978,13.85714744696449,-0.026413499751444365,0.3303082447385783,-1.8851254127951151
1.7803923468315752,13.799112801240003,-0.026215350301027528,0.3145211522001731,-1.8812018726922286
1.7756933871218512,13.743910562465743,-0.02599531314035074,0.2988370564027123,-1.8730108712759244
1.771036266069391,13.691521659343156,-0.025750476331429465,0.283261867181578,-1.8602386300215346
1.7664257307077231,13.641925883173585,-0.025477694353769828,0.2678023124803229,-1.8425517019885516
1.7618671184971268,13.595101733083762,-0.02517355243063425,0.25246602185103884,-1.819596227522929
1.7573664096001198,13.551026246076983,-0.024834324202776335,0.2372616115576049,-1.7909975865506589
1.7529302875554689,13.509674812044793,-0.02445592073778867,0.22219876657784415,-1.7563606812466004
1.7485662101770756,13.471020974990942,-0.024033827911028635,0.2072883117982574,-1.7152711873946425
1.74428249317249,13.43503622350822,-0.023563027695475615,0.19254226023198795,-1.667298260531726
1.7400884099929734,13.401689776324726,-0.023037896521374692,0.17797381958459113,-1.611999389618461
1.7359943129988231,13.3709483729298,-0.022452070080295053,0.16359732924794904,-1.5489283748766915
1.7320117834800275,13.342776085453504,-0.021798257906323195,0.14942808715534628,-1.4776477850350092
1.7281538219386012,13.31713417673917,-0.02106798144285879,0.1354820096705744,-1.3977477284343858
1.7244350961434751,13.293981041449474,-0.020251194058542032,0.12177504910384114,-1.3088733207629968
1.7208722740981464,13.27327228204107,-0.019335717556223125,0.10832227765620343,-1.2107637241456999
1.7174844841815082,13.254960987807678,-0.01830639262864388,0.09513654715927054,-1.103305736711451
1.7142939683215972,13.238998297256298,-0.01714378359259045,0.08222668118940367,-0.986603899892559
1.7113270308860473,13.225334318128269,-0.015822187913519494,0.06959530912203797,-0.8610655898076869
1.7086154449138653,13.213919427410339,-0.014306545110726062,0.05723680996606014,-0.7274914849605056
1.7061985807794453,13.204705826107656,-0.012547500827272021,0.045136537841528254,-0.5871472195013344
1.7041267444596089,13.197648900237748,-0.010472902726466636,0.03327374960187013,-0.4417722290658163
1.7024668449231242,13.19270727959388,-0.007970425456698212,0.021633146441106053,-0.2934663232799294
1.701313976278307,13.189838785268083,-0.004839226152379649,0.01023901273439201,-0.1444015384696271
1.7008285320498109,13.188979954981694,-0.0005545986086896732,-0.0006964539967313794,0.003576838693633483
