x,y,v_x,v_y,omega
2.375,32.48,0.0,2.717948717948718,-3.836734693877551
2.374384873388067,31.995681434126436,-0.006834740132588648,2.6633686806463954,-3.6363395913970735
2.372615561707146,31.52102767735897,-0.012824278544313117,2.610561950103261,-3.4512582791453874
2.3698353434189263,31.05572809646235,-0.018067035769238897,2.559433393192481,-3.279948218464367
2.366170900681323,30.59948854753902,-0.022648994648574464,2.5098949281778595,-3.1210522936635794
2.361734401849147,30.15203016959458,-0.026645436820046622,2.461864826760388,-2.9733732916819373
2.356625295506982,29.713088295701816,-0.030122411426231566,2.415267105381406,-2.8358523231070922
2.350931860138325,29.28241146697113,-0.033137981558843586,2.3700309916262197,-2.7075505095500803
2.3447325461083386,28.859760536844323,-0.03574328544100698,2.3260904542272045,-2.5876333895935844
2.3380971405859725,28.444907855110834,-0.037983442585283654,2.2833837872559783,-2.47535759651259
2.331087781075167,28.037636522590102,-0.039898329757000806,2.24185324075217,-2.3700594415999117
2.3237598391469962,27.637739708699975,-0.0415232472226733,2.2014446913603525,-2.271145101675665
2.3161626925948413,27.245020025192527,-0.04288949224571306,2.162107347611273,-2.1780821616207433
2.308340401438797,26.859288950226457,-0.04402485393255943,2.1237934853450904,-2.090392305163336
2.300332300877078,26.480366297692555,-0.04495404119765255,2.0864582094760107,-2.007644981686779
2.292173522336215,26.10807972734117,-0.04569905370082085,2.050059238872708,-1.9294519050914025
2.2838954521401025,25.74226429179837,-0.04627950403376398,2.014556711602879,-1.8554622639664837
2.275526135945473,25.382762017017626,-0.04671289812878946,1.9799130081831706,-1.7853585414832152
2.2670906359335414,25.02942151310885,-0.04701487978156108,1.9460925908031999,-1.718852859276069
2.2586113467680486,24.68209761282755,-0.04719944427946949,1.913061856766794,-1.6556837727513656
2.250108275499094,24.340651035302322,-0.04727912537557888,1.8807890046246367,-1.5956134562389102
2.2415992898856225,24.00494807283598,-0.04726515921855289,1.849243911668049,-1.5384252255795239
2.233100339007137,23.67486029884007,-0.04716762832017441,1.8183980216198423,-1.4839213534363576
2.2246256495206174,23.350264295159274,-0.04699558819671194,1.7882242415001037,-1.4319211390888726
2.216187900477925,23.031041397215283,-0.04675717894431309,1.7586968467664568,-1.3822591999249898
2.207798379240814,22.717077455552324,-0.04645972369025471,1.729791393933089,-1.3347839564603459
2.1994671207054335,22.408262612501645,-0.04610981559174875,1.701484639963357,-1.2893562866240642
2.1912030317679925,22.104491092802107,-0.04571339482426485,1.6737544678092784,-1.2458483283732067
2.183014002721312,21.80566100712071,-0.045275816805516025,1.6465798175395308,-1.2041424125281257
2.1749070070627554,21.511674167512005,-0.044801912733999937,1.6199406225572281,-1.1641301101368549
2.1668881910126903,21.222435913940366,-0.0442960433778369,1.5938177504609732,-1.1257113807436394
2.1589629538852653,20.93785495106551,-0.043762146926882795,1.5681929481485712,-1.088793809708889
2.1511360203164407,20.65784319455985,-0.04320378161561439,1.543048790803206,-1.0532919242504435
2.1434115052350218,20.38231562628818,-0.04262416373348658,1.5183686344375737,-1.019126579186858
2.1357929723585034,20.11119015773552,-0.04202620156116109,1.4941365717030757,-0.9862244044940995
2.1282866149445847,19.844389071887356,-0.04137776970459999,1.4703199377209994,-0.9530452450099642
2.120897396249778,19.58183724891044,-0.040724660237693805,1.4469225398002623,-0.9212689269610775
2.1136260120207213,19.32346048494999,-0.04006849786294171,1.4239303930936482,-0.890820395032339
2.1064728816776332,19.069187040224186,-0.03941072817136998,1.4013301038597057,-0.8616293661731808
2.099438178942122,18.81894753547172,-0.03875263555653032,1.3791088378343674,-0.8336299776222688
2.0925218594053137,18.572674853910854,-0.038095359296897516,1.3572542906196694,-0.8067604643685211
2.0857236853482504,18.330304048360546,-0.037439908003804284,1.3357546599393082,-0.7809628633004035
2.0790432480930514,18.091772253199885,-0.036787172609519345,1.3145986196235895,-0.7561827415782831
2.072479988133669,17.857018600865953,-0.036137938050281274,1.293775295197899,-0.7323689470156701
2.0660332132687915,17.625984142611806,-0.03549289378169326,1.2732742409593039,-0.7094733784783145
2.0597021149360693,17.398611773266282,-0.03485264324855588,1.253085418435387,-0.6874507745087174
2.0534857829261055,17.174846159755575,-0.034217712417703376,1.23319917612802,-0.6662585185605815
2.0473832186361687,16.95463367316332,-0.03358855747048506,1.2136062304526116,-0.6458564593856224
2.0413933470071353,16.737922324121442,-0.032965571740998845,1.1942976477904703,-0.6262067452562051
2.035515027272527,16.52466170133824,-0.03234909197686772,1.1752648275784026,-0.6072736708334195
2.02974706263541,16.314802913083284,-0.031739403991102054,1.1564994863655602,-0.5890235356031583
2.0240882089772456,16.108298531460818,-0.031136747766281347,1.1379936427729431,-0.5714245129040088
2.0185371826923575,15.905102539314626,-0.030541322065805357,1.1197396032958733,-0.5544465286616356
2.0130926677323266,15.705170279617516,-0.029953288601207405,1.1017299488942585,-0.538061149025956
2.0077533219362715,15.50845840720827,-0.02937277579940594,1.083957522319573,-0.522241476180823
2.002517782715495,15.314924842747697,-0.02879988220921884,1.0664154161312553,-0.506962051662018
1.9973846721542483,15.124528728773601,-0.028234679582412197,1.0490969613586802,-0.49219876657891964
1.9923526015823463,14.937230387742197,-0.027677215660943746,1.0319957167680298,-0.47792877818893537
1.9874201756699659,14.752991281950408,-0.027127516698839768,1.0151054586963084,-0.46413043232230466
1.982585996090086,14.571773975240173,-0.026585589744268858,0.9984201714174222,-0.4507831911987285
1.9778526030463317,14.393762532917581,-0.026007666297445525,0.9794847432780646,-0.48639981756664796
1.9732194608322275,14.219150059042068,-0.025471691637045848,0.9606538553387337,-0.523264285808617
1.9686791352585178,14.047917971388788,-0.024976370293061486,0.9419248963643843,-0.561272786125845
1.9642244275083245,13.880048148498926,-0.02452038248686562,0.9232953579674071,-0.600322998681132
1.95984837820978,13.7155229114028,-0.024102387496961492,0.9047628319895593,-0.6403138688356824
1.955544270934861,13.554325005781731,-0.023721026668805864,0.8863250082445412,-0.6811453835004817
1.9513056351866358,13.396437584503762,-0.023374926089251184,0.8679796726218023,-0.7227183476269192
1.9471262489336847,13.241844190467848,-0.02306269894353818,0.8497247055549987,-0.7649341598371606
1.9430001407474469,13.09052873969036,-0.022782947570214363,0.8315580808615417,-0.8076945861624644
1.938921591595713,12.942475504566158,-0.022534265226829303,0.8134778649629157,-0.8509015308166905
1.9348851363433917,12.79766909723459,-0.022315237576740272,0.7954822164989476,-0.8944568028820606
1.9308855650100507,12.65609445297791,-0.022124443904825854,0.7775693863530418,-0.9382618777240982
1.9269179238325573,12.51773681357627,-0.021960458067323687,0.7597377181096138,-0.9822176518818027
1.9229775161804465,12.382581710539139,-0.021821849178352306,0.741985648969631,-1.0262241900965945
1.9190599033714324,12.250614948127886,-0.021707182032915127,0.7243117111553985,-1.0701804630483958
1.9151609054347745,12.121822586078157,-0.02161501726328302,0.7067145338415792,-1.1139840742582856
1.9112766018710474,11.996190921923368,-0.021543911222573528,0.6891928456560581,-1.157530974493299
1.9074033324582715,11.873706472812167,-0.021492415586048842,0.6717454778017338,-1.2007151618688543
1.9035376981563885,11.754355956702717,-0.021459076657095743,0.6543713678588331,-1.243428365686723
1.8996765621647618,11.638126272805088,-0.021442434360978396,0.6370695643370303,-1.285559711870094
1.8958170511908046,11.52500448112956,-0.021441020905212792,0.6198392320577246,-1.326995367660988
1.8919565569920693,11.414977780983012,-0.021453359080735836,0.6026796584594946,-1.3676181630280695
1.8880927382592454,11.308033488237573,-0.02147796017286128,0.5855902609342661,-1.4073071859942625
1.8842235229136157,11.204159011174834,-0.021513321445246914,0.5685705953183691,-1.4459373488336007
1.880347110899715,11.103341824684826,-0.021557923153650176,0.5516203656817411,-1.4833789218066402
1.876461977562375,11.005569442571232,-0.021610225039015826,0.5347394355804089,-1.5194970308063023
1.872566877707147,10.91082938768238,-0.021668662241296193,0.5179278409623974,-1.5541511149763756
1.8686608504544715,10.819109159550646,-0.021731640566208143,0.5011858049457822,-1.5871943400518418
1.8647432250111087,10.730396199180717,-0.02179753102671095,0.4845137547200755,-1.6184729628675414
1.860813627497482,10.644677850578613,-0.02186466356914138,0.4679123408588519,-1.6478256422108772
1.856871988987022,10.561941318557775,-0.021931319880416043,0.451382459372703,-1.6750826909874221
1.852918554933637,10.482173622295278,-0.021995725157191854,0.4349252768772645,-1.7000652645732646
1.8489538961864938,10.405361544039248,-0.02205603869995681,0.41854225930084527,-1.7225844803149468
1.844978921817823,10.331491572287348,-0.022110343174164656,0.4022352046091439,-1.7424404635095372
1.8409948940201097,10.26054983866544,-0.022156632355983922,0.38600628007872784,-1.7594213160030259
1.8370034453644857,10.192522047635098,-0.022192797150949278,0.3698580647028734,-1.7733020050014592
1.8330065987534587,10.127393398049701,-0.022216609638239015,0.3537935973570831,-1.7838431721100856
1.829006790449594,10.0651484954636,-0.022225704849146027,0.33781643137737594,-1.7907898664564623
1.8250068966192892,10.00577125398193,-0.022217559932019456,0.32193069619672604,-1.7938702116741392
1.821010263900027,9.949244786328489,-0.02218947028200509,0.30614116661930413,-1.792794025482443
1.8170207445844269,9.895551280719221,-0.02213852211355232,0.29045334015033986,-1.787251423987386
1.8130427371210502,9.844671863082247,-0.022061560812854313,0.2748735224827102,-1.776911462673243
1.8090812327695844,9.796586443197615,-0.021955154203430232,0.2594089206798792,-1.761420895297227
1.8051418694314272,9.751273543497732,-0.021815549553872174,0.2440677426521547,-1.740403174814231
1.801230993929347,9.708710109659556,-0.021638622691465197,0.22885929999424623,-1.713457883226228
1.7973557343698592,9.668871302865185,-0.02141981685839864,0.21379410883208444,-1.680160868747391
1.793524084751322,9.63173027490889,-0.02115406779201281,0.19888397957118334,-1.6400655014753902
1.789745004781505,9.597257929482971,-0.020835709650400734,0.18414208071679677,-1.5927056502549064
1.7860285391086927,9.565422676412947,-0.02045835338084578,0.16958295339460416,-1.5376012566563477
1.782385962127996,9.536190190936875,-0.020014724182452016,0.1552224407839794,-1.4742677650551226
1.7788299576574205,9.509523198127535,-0.019496436601721186,0.14107747931979361,-1.4022311888485375
1.7753748478376044,9.48538131416743,-0.018893672507348372,0.12716567579250707,-1.3210512641287213
1.7720368938147324,9.463720992202212,-0.018194705524560595,0.11350456826548327,-1.2303559185263078
1.7688347040701091,9.444495640816928,-0.01738518052680898,0.10011044712655645,-1.1298909670578776
1.7657898077380683,9.427656004956084,-0.016447000940310423,0.08699661799392011,-1.0195889945966705
1.7629274847510936,9.413150912853435,-0.015356587803854098,0.07417107203552369,-0.8996595661597308
1.760278000295874,9.400928474963568,-0.014082128365253464,0.06163379340744352,-0.77069688911688
1.7578784846287558,9.390937724171511,-0.012579156824946485,0.049374548726534295,-0.6337874417283024
1.7557758787466304,9.383130425855743,-0.010783130754225637,0.03737321033757656,-0.49057654239741055
1.754031810971824,9.377462215780866,-0.008595400076955834,0.02560690160551478,-0.34322448536643213
1.7527317989547444,9.373890934074144,-0.005849177890596044,0.014074006246976117,-0.1941697489671305
1.752009179824491,9.37236512349499,-0.0021799235566630215,0.0028794446325041516,-0.0456583275898772
