x,y,v_x,v_y,omega
2.375,32.48,0.0,3.6923076923076925,-6.8979591836734695
2.373264295782487,31.787615330000992,-0.018270570710661235,3.595951991892361,-6.400337582590349
2.3683430305023654,31.113106014834262,-0.03353222171167494,3.5041460624942746,-5.9569269085095105
2.360762455619164,30.455640657561496,-0.04626330337465637,3.416541908798007,-5.560114390793257
2.350965794118528,29.814450368684852,-0.056859449263616295,3.3328295530613663,-5.203550786004812
2.33932745373323,29.18882208162339,-0.06564939689741374,3.252731363375117,-4.881911019299029
2.3261645529063077,28.578092841955872,-0.07290745391229354,3.175997475230336,-4.590705690194339
2.3117463219565657,27.981644886965498,-0.0788633981902551,3.102402050984107,-4.326131441223558
2.2963018115788456,27.398901374050688,-0.08371039525943014,3.03174019022444,-4.084951309219536
2.280026243882243,26.82932264751787,-0.08761136996796415,2.963825352226264,-3.864398411442896
2.263086268200641,26.272402956376585,-0.09070416352258363,2.89848718610304,-3.662097937567775
2.2456243283871546,25.72766755322725,-0.09310572925095704,2.8355696891531017,-3.476003606975333
2.22776230565254,25.194670117704995,-0.09491556269235563,2.7749296321337966,-3.3043456330725727
2.2096045679641594,24.67299045829965,-0.09621851823796489,2.7164352037119364,-3.145587897988795
2.191240531226316,24.162232454482144,-0.09708713163407436,2.659964836472347,-2.998392541766933
2.1727468171855913,23.66202220748523,-0.0975835424788144,2.6054061845477823,-2.861590552378169
2.1541890769652894,23.172006373215467,-0.09776109141910076,2.5526552288181628,-2.7341572368746174
2.135623536372388,22.69185065491053,-0.09766565166407007,2.501615490181164,-2.615191681737474
2.1170983089143984,22.22123843652262,-0.09733674263056231,2.4521973349547657,-2.503899488071065
2.0986545142605215,21.75986954057042,-0.09680846425234857,2.404317359278914,-2.399578206632056
2.0803272332582092,21.307459096485363,-0.09611028314041398,2.3578978416164045,-2.3016050076358976
2.062146325245419,20.863736507378565,-0.0952676959415901,2.3128662542446214,-2.209426207514097
2.044137129026175,20.428444504747866,-0.09430279057676576,2.2691548260785055,-2.1225483443519
2.0263210653033505,20.00133828198759,-0.09323472229507318,2.2267001503454824,-2.04053054946327
2.008716155431401,19.58218469870262,-0.09208011846228877,2.1854428316015535,-1.9629780074100789
1.9913374689393293,19.170761548799597,-0.09085342355951918,2.1453271673776477,-1.8895363330234594
1.9741975102821288,18.766856886159758,-0.08956719388469594,2.106300860410149,-1.819886723405915
1.9573065536289869,18.37026840241409,-0.08823234983258783,2.068314757965265,-1.753741766863248
1.940672933125758,17.980802851960156,-0.08685839230666346,2.0313226152340476,-1.6908418103182465
1.9243032949271743,17.598275519896816,-0.08545358873105798,1.9952808801695496,-1.6309518028465715
1.9082028163401366,17.222509729020803,-0.08402513323776191,1.9601484974726713,-1.5738585462248142
1.8923753966202024,16.853336382437597,-0.0825792848668076,1.9258867297189597,-1.5193682943282893
1.8768238232922139,16.490593538697283,-0.08112148700675657,1.892458993863317,-1.4673046522905044
1.8615499173009553,16.134126016681122,-0.07965647079596475,1.859830711569932,-1.417506733881016
1.8465546598209344,15.783785027742333,-0.07818834478320366,1.8279691719962852,-1.3698275418499624
1.8318383031510894,15.439427832850047,-0.07672067279411282,1.7968434058172635,-1.324132541249161
1.817400467778388,15.100917422703269,-0.07525654165537522,1.7664240694119933,-1.2802984001520699
1.8032402274038888,14.768122218974902,-0.0737986201814572,1.7366833382550053,-1.238211875905152
1.7893561834776475,14.440915795018228,-0.072349210621085,1.7075948086573578,-1.1977688281710879
1.7757465305780054,14.119176614521802,-0.07091029358567308,1.6791334070944952,-1.1588733426679527
1.7624091137906173,13.802787786736243,-0.06948356733420019,1.6512753064377108,-1.1214369517483178
1.7493414790882844,13.491636837019382,-0.06807048216404299,1.6239978484766249,-1.0853779398645031
1.7365409175803257,13.185615491556778,-0.0666722705513102,1.59727947218237,-1.0506207235854925
1.7240045043865024,12.884619475213906,-0.06528997359419826,1.5710996472162762,-1.0170952972125469
1.7117291327926085,12.588548321565778,-0.06392446423626558,1.5454388122377116,-0.9847367362218177
1.6997115442604511,12.297305194230422,-0.06257646768118073,1.5202783176081414,-0.9534847517744479
1.6879483547920446,12.010796718705574,-0.06124657935467643,1.4956003721271034,-0.9232832904037749
1.6764463079545275,11.728935118442067,-0.059827597882346595,1.4713638411729828,-0.891118894944382
1.665210846847888,11.45163563130069,-0.058440413766489036,1.4475781287362328,-0.8603682785744171
1.6542359649997498,11.178814083879164,-0.05708465831917675,1.4242276335956077,-0.830952986113275
1.6435157313886681,10.910389201638566,-0.0557599060079998,1.4012974426212101,-0.8027997411708769
1.633044300323201,10.646282481802537,-0.0544656841548102,1.3787732924948677,-0.7758400497280846
1.6228159195964014,10.386418073288755,-0.053201481390448814,1.3566415339660016,-0.750009838122304
1.6128249371374577,10.130722663209472,-0.05196675501948628,1.334889098447493,-0.7252491221066188
1.6030658063548033,9.879125369513503,-0.05076093742950698,1.3135034667732346,-0.7015017040062057
1.5935330903410592,9.631557639374364,-0.049583441662535165,1.2924726399545405,-0.6787148953098566
1.584221465089227,9.38795315295896,-0.04843366625148887,1.27178511178656,-0.6568392623123577
1.5751257218512196,9.148247732238232,-0.04731099941174685,1.2514298431684656,-0.6358283926697549
1.5662407687537607,8.91237925452603,-0.04621482266676559,1.231396238012614,-0.6156386809480703
1.5575616317726064,8.68028757045515,-0.04514451397696434,1.2116741206282178,-0.5962291314402
1.5490834551536965,8.451914426120396,-0.04409945043261484,1.1922537144744578,-0.5775611766984651
1.540801501359012,8.227203389137607,-0.04307901056406392,1.1731256221864814,-0.5595985103841586
1.5327111506053925,8.00609977838527,-0.0420825763161402,1.1542808067854806,-0.5423069331726637
1.524807900056206,7.788550597211497,-0.04110953472792818,1.1357105739910884,-0.5256542105752595
1.5170873627184105,7.5745044699040704,-0.04015927935412927,1.1174065555607549,-0.5096099416482852
1.50954526609108,7.363911581235069,-0.0392312114598781,1.0993606935866183,-0.49414543765837643
1.5021774506057701,7.156723618904195,-0.03832474101706601,1.08156522568573,-0.4792336098603561
1.494979867894096,6.952893718716734,-0.037439287526872644,1.0640126710243776,-0.4648488656231671
1.487948578913468,6.752376412342855,-0.03657428069026342,1.0466958171217124,-0.45096701221000973
1.481079751958059,6.555127577515005,-0.03572916094562259,1.0296077073819836,-0.43756516758247316
1.4743696605786354,6.361104390529416,-0.034903379890415476,1.0127416293084188,-0.42462167765570097
1.4678146814318778,6.170265280926369,-0.03409640060176941,0.9960911033552352,-0.41211603948321285
1.4614184338550118,5.982771624692781,-0.03323252125997897,0.9775263306825428,-0.44249549942990923
1.4551815601547204,5.798794944324783,-0.03241878084834944,0.959070304770051,-0.4743570014713789
1.4490946761405548,5.618314847289394,-0.03165368245865834,0.9407201903392935,-0.5075917815817392
1.4431486840403978,5.44131146912876,-0.03093570806930995,0.9224732639831601,-0.5420931675664148
1.4373347761609843,5.267765452543049,-0.03026332224030608,0.90432691060326,-0.5777563385125359
1.4316444378833373,5.097657927113282,-0.02963497541913531,0.8862786202363994,-0.6144780880205332
1.4260694500645803,4.930970489590742,-0.029049106883569067,0.8683259852640376,-0.6521565901967349
1.420601890912912,4.767685184680527,-0.028504147344519542,0.8504666980013926,-0.6906911673825139
1.4152341373983905,4.607784486247148,-0.02799852122939023,0.8326985486657567,-0.7299820585832895
1.4099588662585458,4.451251278869872,-0.02753064866371096,0.8150194237266083,-0.7699301875401846
1.4047690546546976,4.29806883967473,-0.02709894716627173,0.7974273046433027,-0.8104369293579778
1.399657980532211,4.14822082036866,-0.026701833070429094,0.7799202669995385,-0.8514038745646806
1.394619222735756,4.001691229399192,-0.026337722681729906,0.7624964800474854,-0.8927325894300583
1.3896466609289435,3.8584644141602276,-0.02600503317945401,0.7451542066784733,-0.9343243713119952
1.3847344753665216,3.718525043160824,-0.025702183267092116,0.7278918038415596,-0.9760799977300147
1.3798771465666064,3.5818580880694384,-0.0254275935741184,0.710707723436172,-1.017899467783615
1.3750694549302427,3.448448805540508,-0.02517968680865773,0.693600513710472,-1.0596817344383858
1.370306480355934,3.3182827187237116,-0.02495688765775042,0.6765688212031863,-1.1013244260940476
1.3655836018977072,3.1913455983484234,-0.024757622428845997,0.659611393273524,-1.1427235557244535
1.360896497516794,3.067623443266637,-0.02458031842287004,0.6427270812715834,-1.1837732157389818
1.3562411439791837,2.9471024603268425,-0.024423403025659426,0.6259148444104771,-1.2243652565564258
1.3516138169541796,2.829769043438759,-0.024285302500700334,0.6091737544114698,-1.2643889467052438
1.3470110913727351,2.7156097516742044,-0.02416444046187342,0.5925030010049074,-1.3037306120668601
1.3424298421088336,2.604611286232366,-0.024059236000247515,0.5759018983828507,-1.3422732516608527
1.3378672450525997,2.496760466078129,-0.023968101433795047,0.5593698927143763,-1.3798961271320738
1.3333207786502903,2.3920442020393473,-0.023889439643146795,0.5429065708517383,-1.416474322840599
1.328788225993935,2.290449469122777,-0.02382164095006679,0.5265116703753376,-1.4518782731776738
1.324267677552309,2.191963276778054,-0.023763079488102173,0.5101850911480498,-1.4859732534382242
1.3197575346453008,2.0965726368043356,-0.023712109006721802,0.49392690857528865,-1.5186188302794636
1.3152565137757621,2.004264528554007,-0.023667058041054123,0.4777373887966054,-1.5496682674962325
1.310763651946817,1.9150258610418724,-0.02362622436889267,0.4616170060679775,-1.578967882563427
1.3062783131086217,1.8288434315154198,-0.023587868664742863,0.4455664626315192,-1.6063563491593096
1.3018001958969996,1.745703879981356,-0.02355020724707009,0.4295867114112647,-1.6316639407281677
1.2973293428476005,1.6655936391149027,-0.02351140379923669,0.41367898191981906,-1.654711710122076
1.2928661512936614,1.588498878900527,-0.02346955992643739,0.3978448098104521,-1.6753106005606269
1.2884113861836328,1.5144054452652078,-0.02342270438965261,0.38208607056131066,-1.6932604836826726
1.283966195087539,1.4432987918679991,-0.02336878083238745,0.3664050178303471,-1.7083491215072613
1.2795321256988372,1.375163904102756,-0.023305633785525685,0.3508043270669325,-1.7203510509212154
1.2751111461828846,1.309985214256237,-0.02323099269818675,0.3352871450016743,-1.7290263922294304
1.2707056687755058,1.2477465066445248,-0.023142453695274536,0.31985714564792656,-1.7341195878645892
1.2663185770978418,1.1884308114332427,-0.02303745870118919,0.3045185934182037,-1.735358084315274
1.261953257729941,1.1320202857420973,-0.022913271487240258,0.28927641385700764,-1.7324509807986304
1.2576136366803894,1.0784960805597237,-0.022766950086988473,0.2741362722732435,-1.725087683779243
1.2533042215102455,1.0278381919794164,-0.02259531486189402,0.2591046601510256,-1.7129366294512467
1.2490301500285321,0.980025295355528,-0.02239491126140374,0.24418898852148369,-1.6956441701439438
1.2447972466923634,0.9350345612446063,-0.022161965961424755,0.22939768633031066,-1.6728337701942004
1.240612088147756,0.8928414525434967,-0.021892334508125288,0.21474029999714792,-1.6441057292356258
1.2364820797864133,0.8534195032330736,-0.021581437716534445,0.2002275874809921,-1.6090377562015163
1.2324155458496167,0.8167400808278131,-0.02122418267079822,0.18587159573228607,-1.5671868698204732
1.2284218366148068,0.7827721373798724,-0.02081486190614795,0.1716857037197144,-1.5180933203033393
1.2245114577709026,0.7514819582089096,-0.020347020661264748,0.15768460334306153,-1.4612875370485146
1.220696229583048,0.7228329241316658,-0.019813276052995828,0.1438841764174157,-1.3963015367197449
1.216989487454059,0.6967853127379016,-0.019205062146888427,0.13030120667484624,-1.322686797949438
1.2134063419653192,0.6732961781417863,-0.01851225878721612,0.11695284170531371,-1.2400413163931285
1.2099640269618965,0.6523193671642922,-0.017722635985653414,0.10385569489988934,-1.1480493006115904
1.206682381163837,0.6338057520030489,-0.01682100399392002,0.09102446469214003,-1.046537439430379
1.2035845359212445,0.6177037797447404,-0.01578789329652834,0.07846998013216065,-0.9355510798861925
1.2006979250889034,0.6039604425220091,-0.014597483886008709,0.06619672747554503,-0.815450361203318
1.1980558033481665,0.5925227249573268,-0.01321432391122129,0.054200299521114506,-0.6870175490403434
1.1956995824097796,0.5833394233961045,-0.011588001756009074,0.04246603270226154,-0.5515492362663678
1.1936825555721506,0.5763628457051482,-0.009643859692715782,0.030971627202531816,-0.4108807866840287
1.1920763299576105,0.5715490802705396,-0.007263778355075266,0.019699587898619676,-0.26726658394125646
1.19098433467589,0.5688533682389867,-0.004230908820931212,0.008676328223000929,-0.12304373401233018
