x,y,v_x,v_y,omega
2.375,32.48,0.0,2.9743589743589745,-6.530612244897959
2.3734101503042235,31.86286709809434,-0.015141425674061088,2.9030972342663013,-6.106637043772752
2.3688776637529574,31.26038034145948,-0.02802511290942576,2.8348718765418988,-5.723950441627153
2.361842644064477,30.671924695898895,-0.038975074599912805,2.769467604987506,-5.377322202359823
2.352682492336596,30.096928004022715,-0.04826446566561682,2.7066913652618227,-5.062310849313714
2.3417216519985047,29.534856648148505,-0.056124489935256344,2.646369166873505,-4.77512687670943
2.329239666897971,28.985211819076262,-0.06275155864125674,2.5883434909573664,-4.512522793502815
2.315477879249969,28.447526281335456,-0.06831308562542879,2.5324711541931695,-4.271704104839293
2.3006450232739466,27.92136154930226,-0.07295220938430673,2.4786215318372724,-4.050256775257916
2.2849219166564905,27.40630540648313,-0.0767916631628927,2.4266750664401577,-3.8460877696320015
2.268465410849205,26.90196971386683,-0.07993696357316041,2.3765220060960477,-3.657376046274097
2.2514117293836806,26.407988463697986,-0.08247905038421476,2.3280613288453287,-3.48253195928873
2.233879298526318,25.924016043132937,-0.08449648159066803,2.281199819393229,-3.320163467889749
2.2159711550183747,25.449725678588564,-0.086057266104031,2.2358512715055823,-3.169047886784805
2.1977770001133,24.984808036613728,-0.08722039965858319,2.191935794921391,-3.028108170759308
2.1793749567153053,24.528969961114843,-0.08803715651279567,2.149379209829906,-2.896392927643945
2.160833076450393,24.081933329984622,-0.08855217934351135,2.108112515219818,-2.773059511045125
2.142210635440705,23.643434016791314,-0.08880440170113697,2.0680714199545513,-2.6573596679555247
2.1235592510047323,23.21322094531564,-0.08882783102241192,2.0291959274327978,-2.548627314374228
2.104923846160792,22.791055226475308,-0.08865221511035541,1.9914299662846495,-2.4462680901536475
2.0863434844289435,22.376709368628703,-0.08830361090725021,1.954721060825882,-2.349750406841808
2.0678520938190816,21.969966553460154,-0.0878048710914311,1.9190200360174725,-2.2585977526492553
2.0494790959119586,21.570619970664954,-0.08717606135735884,1.8842807525082186,-2.172382059408802
2.0312499534677806,21.178472205509856,-0.08643481906338447,1.8504598680165223,-2.0907179694995572
2.0131866479400258,20.79333467407234,-0.08559666215332869,1.8175166218645702,-2.0132578677190605
1.9953080965550776,20.415027101583,-0.08467525579855936,1.7854126399386976,-1.9396875652177799
1.9776305171806856,20.04337703982751,-0.08368264300517325,1.7541117577326293,-1.8697225408097973
1.9601677479992126,19.67821942002329,-0.08262944443742838,1.7235798594504317,-1.8031046599944778
1.942931527985369,19.31939613798241,-0.08152503188489234,1.693784731415085,-1.7395993044640565
1.925931743330299,18.966755668716957,-0.0803776791157728,1.664695928255882,-1.678992855208692
1.909176644227947,18.620152707943305,-0.07919469328757978,1.636284650540792,-1.6210904809463103
1.892673035823864,18.279447838204657,-0.0779825296084492,1.6085236326844277,-1.5657141908076793
1.87642644660309,17.944507217561963,-0.07674689154177783,1.5813870401031174,-1.5127011162466482
1.8604412770476562,17.615202289006618,-0.07549281850997354,1.554850374709704,-1.4619019922234993
1.844720931013337,17.29140950892785,-0.07422476276925609,1.528890387945227,-1.4131798119903975
1.829267931949361,16.973010093126906,-0.07294665688765772,1.5034850006352054,-1.3664086334264516
1.8140840258053432,16.65988977901133,-0.07166197305536971,1.4786132290369607,-1.3214725179361033
1.7991905325720718,16.351942971490498,-0.07018081964245254,1.4542135092566604,-1.2728022290039147
1.784606130041374,16.04906788410591,-0.06871825207847884,1.4303111325013271,-1.2264241960806122
1.7703267715512032,15.751161994699771,-0.06727563830409909,1.4068878142237833,-1.1822027124059793
1.75634814888476,15.45812652970842,-0.06585410137631238,1.3839261380748185,-1.140011633344541
1.742665740532456,15.169866287298774,-0.06445454959801196,1.361409503921817,-1.0997335957236294
1.7292748540016178,14.886289471029293,-0.06307770307663771,1.3393220795970548,-1.0612593094129907
1.7161706628781177,14.607307533285066,-0.06172411714717257,1.3176487560622343,-1.024486913687927
1.7033482392585635,14.33283502779939,-0.06039420303905859,1.2963751057060966,-0.9893213917663475
1.6908025820970236,14.062789470630765,-0.059088246118464055,1.2754873435189111,-0.9556740376531675
1.6785286419450434,13.797091209015552,-0.05780642199563242,1.2549722909116876,-0.9234619700774143
1.6665213425066603,13.535663297563033,-0.05654881075087474,1.2348173419694486,-0.8926076888802603
1.654775599380176,13.278431381301793,-0.055315409501354745,1.2150104319471402,-0.8630386697164086
1.6432863363146664,13.025323585124774,-0.05410614350349905,1.1955400078340068,-0.8346869933756911
1.6320484992707804,12.77627040921529,-0.052920875962080866,1.17639500082775,-0.8074890064240886
1.6210570685416514,12.531204630068135,-0.05175941669629189,1.1575648005737271,-0.7813850102102471
1.6103070691600634,12.290061206749009,-0.050621529795021665,1.1390392310369977,-0.7563189755906534
1.599793579791922,12.05277719206206,-0.04950694037775263,1.120808527886346,-0.7322382809988879
1.5895117402930747,11.81929164831963,-0.04841534056364896,1.1028633172796423,-0.7090934717260623
1.5794567580862644,11.589545567430608,-0.04734639473930707,1.0851945959491531,-0.6868380384943976
1.5696239134971102,11.363481795044098,-0.04629974420501964,1.067793712493791,-0.665428213597126
1.5600085641722234,11.141044958503997,-0.04527501127009082,1.0506523497928941,-0.6448227830483181
1.5506061486886105,10.922181398387124,-0.04427180285955851,1.0337625084630249,-0.6249829133383026
1.5414121894511705,10.706839103413525,-0.04328971368748732,1.0171164912855486,-0.6058719915261913
1.5324222949641895,10.494967648532004,-0.04232832904566655,1.0007068885384571,-0.5874554775225269
1.5236321615530422,10.2865181359975,-0.04138722725097284,0.9845265641711063,-0.5697007675238678
1.5150457769567547,10.081594223272699,-0.0403878641422413,0.9671297474936684,-0.5814609681887126
1.5066647195912726,9.880311360428387,-0.03943172981473154,0.9498498986426464,-0.5952687920632809
1.4984799844879158,9.682645330792383,-0.03851812831247881,0.9326837169383368,-0.6110052653858853
1.4904827204973217,9.488572596818965,-0.03764629064555856,0.9156280351894541,-0.6285547662200326
1.4826642448542122,9.29807027265062,-0.03681538214595892,0.8986798140328935,-0.6478047589562581
1.4750160562627839,9.111116097820585,-0.03602450920097785,0.881836136729334,-0.668645537919825
1.467529846628672,8.927688412002578,-0.035272725409612515,0.8650942043945458,-0.6909699790158336
1.4601975115542876,8.747766130718002,-0.034559037203573166,0.8484513316490425,-0.7146732983791271
1.453011159705961,8.571328721914355,-0.033882408970967434,0.8319049426714136,-0.7396528170249219
1.445963121153689,8.398356183331309,-0.03324176771733644,0.8154525676433221,-0.7658077305175119
1.4390459547773353,8.228829020573198,-0.03263600729555531,0.7990918395767916,-0.793038882688777
1.4322524548268252,8.062728225808346,-0.03206399223311321,0.7828204915170455,-0.8212485424455919
1.4255756567181923,7.9000352570167856,-0.031524561182437835,0.7666363541168526,-0.850340182705528
1.41900884214223,7.740732017708503,-0.031016530017203756,0.7505373535810967,-0.8802182604933443
1.4125455435579548,7.584800837034255,-0.030538694594940408,0.7345215099831574,-0.910787997216478
1.4061795481390962,7.432224450210462,-0.030089833203711593,0.7185869359577122,-0.9419551581158093
1.3999049012383507,7.282985979178235,-0.029668708708151685,0.7027318357777828,-0.9736258298580381
1.393715909431187,7.137068913414701,-0.029274070407691657,0.6869545048272918,-1.0057061951976725
1.387607143198556,6.994457090812002,-0.028904655617366985,0.6712533294841375,-1.0381023035893977
1.3815734393059222,6.855134678535716,-0.028559190979145593,0.6556267874328732,-1.0707198365749282
1.3756099029346436,6.7190861537700535,-0.02823639350922131,0.6400734484305768,-1.103463866701713
1.3697119096208386,6.586296284251624,-0.027934971384160224,0.6245919755544793,-1.1362386086534226
1.3638751070565576,6.456750108487029,-0.027653624466134615,0.6091811269654764,-1.168947161183269
1.35809541680832,6.330432915541728,-0.027391044564700574,0.5938397582278749,-1.2014912383401866
1.3523690360089144,6.2073302242783654,-0.02714591542963693,0.5785668252327285,-1.2337708883640544
1.3466924390798487,6.087427761912025,-0.02691691246622719,0.5633613877800268,-1.2656841984988314
1.3410623795439907,5.970711441737308,-0.026702702160991323,0.5482226138839521,-1.2971269838312913
1.335475891990854,5.8571673398675586,-0.026501941202214514,0.5331497848755744,-1.3279924581077822
1.329930294260681,5.7467816708097885,-0.026313275275623427,0.518142301388887,-1.3581708843124092
1.3244231899180678,5.639540761679388,-0.026135337511169032,0.5031996903291953,-1.3875492026081928
1.3189524710914329,5.535431024836356,-0.0259667465520217,0.4883216129377681,-1.416010633050097
1.3135163217612638,5.434438928699116,-0.025806104211493205,0.47350787408356493,-1.4434342502788486
1.3081132215879108,5.336550966462479,-0.02565199267758205,0.458758432932013,-1.4696945272028676
1.3027419503788653,5.241753622412563,-0.02550297121808893,0.444073415162423,-1.4946608444812002
1.2974015933061436,5.150033335492868,-0.025357572331642153,0.429453126929922,-1.5181969624464078
1.2920915469967789,5.061376459731765,-0.025214297281355318,0.41489807079485785,-1.5401604519725598
1.2868115266337445,4.975769221091692,-0.02507161093801889,0.4004089638725077,-1.560402080728547
1.2815615742211646,4.893197670243797,-0.024927935848456446,0.3859867584884047,-1.5787651513024448
1.2763420681867557,4.8136476307083065,-0.024781645431628974,0.3716326656591398,-1.5950847878984282
1.2711537345165054,4.737104641729925,-0.02463105618980207,0.35734818175402433,-1.6091871687795039
1.2659976596421583,4.663553895179355,-0.02447441880398059,0.34313511872758995,-1.6208887024796201
1.2608753053318382,4.592980165686907,-0.02430990796097205,0.32899563834333884,-1.629995147212578
1.2557885258690178,4.52536773312368,-0.024135610732556045,0.31493229083023566,-1.6363006751123972
1.2507395878462972,4.460700296452725,-0.023949513293354343,0.3009480584169607,-1.6395868863071899
1.2457311929498809,4.398960877881912,-0.023749485720134144,0.2870464041622003,-1.6396217828659667
1.2407665041707991,4.340131716170493,-0.0235332645568356,0.2732313264227467,-1.6361587200943117
1.2358491759536432,4.284194147885849,-0.023298432749412613,0.25950741914530545,-1.6289353635341128
1.2309833888886186,4.231128475397348,-0.023042396441297856,0.24587993788802612,-1.617672695838401
1.2261738896769045,4.180913820463363,-0.02276235795597857,0.23235487100707997,-1.6020741405817653
1.2214260372663734,4.133527962465919,-0.022455284049078872,0.21893901468287108,-1.581824903079291
1.2167458562862734,4.088947160751527,-0.022117868142349218,0.20564004926373192,-1.5565916757530422
1.2121400992397524,4.04714596126,-0.021746484681660398,0.19246661256032474,-1.5260229235992437
1.2076163193968057,4.008096988833536,-0.021337132870212064,0.1794283629298106,-1.4897500623147852
1.2031829570551076,3.9717707285388784,-0.020885365622151895,0.16653602082882252,-1.44738997902302
1.1988494429433927,3.938135302350336,-0.020386197346561833,0.15380137144302797,-1.398549537920623
1.1946263242587172,3.9071562520997816,-0.019833980602728715,0.14123720237176046,-1.3428329776402197
1.1905254215194367,3.878796346302561,-0.019222235961847255,0.12885713855415867,-1.279853459568963
1.1865600286609566,3.853015437993804,-0.01854341030939219,0.11667532152925332,-1.2092504708715033
1.182745175516792,3.829770413608511,-0.017788524396936733,0.10470586309257535,-1.1307152891556589
1.1790979824337775,3.8090152890748357,-0.016946647822248966,0.09296198960910751,-1.044027150708869
1.1756381534338392,3.790701526564316,-0.016004104558116287,0.08145479620536807,-0.9491028004301572
1.1723886803457708,3.7747786570859567,-0.014943258185392194,0.07019157977900023,-0.8460610180706292
1.169376870955141,3.761195284418111,-0.013740640772986434,0.059173874200483825,-0.7353001715366299
1.1666358796128797,3.7499004826640103,-0.012364038677120801,0.0483956663147681,-0.6175788662273293
1.1642070356430767,3.740845426849827,-0.01076780865433591,0.03784296048698999,-0.494075694202503
1.1621435249681609,3.733984722618846,-0.008884673963910234,0.027497079808075718,-0.3663857944933403
1.1605167559804812,3.7292761309226705,-0.006608364013990319,0.017346650631679193,-0.2363994056922099
1.1594299506999532,3.7266752475855114,-0.0037421624672277515,0.007423666865073807,-0.10601826851331173
