x,y,v_x,v_y,omega
2.375,32.48,0.0,2.9743589743589745,-6.408163265306122
2.373115815103015,31.804739919521836,-0.016384216495521214,2.897467812407654,-5.954993275342577
2.3677677688646495,31.146753112290433,-0.030120533403308572,2.8241565983001924,-5.550056565927109
2.3595174201654805,30.50524782502874,-0.04162162919816086,2.7541502474536474,-5.186706609248748
2.348839486002235,29.879492043710513,-0.05122997222136968,2.6872043727048442,-4.8593837172948575
2.3361364615322784,29.26880697622813,-0.05923111012607758,2.6231005619245797,-4.563411265977842
2.321750506665331,28.672561513636257,-0.0658641495865101,2.5616425910482445,-4.29483500512285
2.3059731690755756,28.09016748038291,-0.07133009032440199,2.5026533502851875,-4.050295283327713
2.2890533809080584,27.521075528159322,-0.0757985024366186,2.445972321224264,-3.8269246763698996
2.27120406823494,26.964771560470133,-0.07941291211223905,2.391453484768685,-3.6222654031483206
2.2526076385981146,26.420773599177426,-0.08229517168624026,2.338963569950518,-3.4342022834201473
2.233420555992707,25.888629022458712,-0.08454902488251963,2.2883805754296023,-3.260907995271882
2.2137771696895094,25.36791211747535,-0.08626302992789693,2.23959251138226,-3.1007981341480613
2.193792930026277,24.85822190172386,-0.08751296714368731,2.192496321239368,-2.9524941325257275
2.173567098318566,24.35918017535685,-0.08836383031467239,2.1469969515172393,-2.8147925208676234
2.1531850376017694,23.870429773301314,-0.08887148026616634,2.103006544617856,-2.686639332210331
2.1327201547270653,23.391632991198787,-0.08908402299213034,2.0604437345345605,-2.5671087002879074
2.112235551432487,22.922470163358255,-0.08904296217811698,2.019233029296167,-2.455384892989466
2.0917854316710036,22.462638374282825,-0.08878416618260773,1.9793042670118972,-2.3507471727392937
2.071416304148641,22.011850288079536,-0.08833868183793343,1.940592134755851,-2.252556993059693
2.0511680122843337,21.56983308232049,-0.08773342132995929,1.9030357414097754,-2.160247133567682
2.0310746183225477,21.136327474793863,-0.08699174355513335,1.8665782370826298,-2.073312449552293
2.0111651638555528,20.711086833142268,-0.08613394746221423,1.8311664729312485,-1.9913019713065416
1.9914643253454478,20.29387635869411,-0.08517769175608994,1.796750696183153,-1.9138121357696003
1.9719929802200513,19.88447233689771,-0.08413835281257617,1.7632842759594702,-1.8404809712436436
1.9527686966273743,19.482661447705066,-0.08302933060200579,1.7307234561504656,-1.7709830868963878
1.9338061578719838,19.08824013005197,-0.08186231074921597,1.699027132137319,-1.7050253439287684
1.9151175308441841,18.70101399526674,-0.0806474894925202,1.6681566486038166,-1.6423431058369322
1.896712786326292,18.320797284830622,-0.07939376718480218,1.6380756160580887,-1.5826969820393495
1.8785999778682783,17.947412368423812,-0.07810891505879612,1.6087497440011227,-1.5258699929920312
1.8607854849264012,17.580689278634846,-0.07679971921839682,1.580146688946411,-1.4716650963473343
1.8432742251196068,17.220465279097933,-0.07547210518850976,1.5522359157223953,-1.419903023178421
1.826069839752078,16.866584463161278,-0.07413124583347884,1.5249885706833068,-1.3704203811549942
1.809174856154022,16.51889738048638,-0.07278165501918277,1.4983773656201695,-1.3230679881078127
1.792590829888268,16.17726068923979,-0.07142726903085285,1.4723764713066696,-1.2777094048945483
1.7763466117913174,15.84154168395326,-0.06982680137741223,1.4469192268370878,-1.2273466720688553
1.7604677061652758,15.511612795509002,-0.0682506388490381,1.422027629199941,-1.1795360081541917
1.7449483600955995,15.187346484235427,-0.06670019653944949,1.3976794253528937,-1.1341152624122204
1.7297825294328741,14.868620198101638,-0.06517659183207612,1.3738534975496193,-1.0909345430819235
1.7149639426600471,14.555316119973707,-0.06368068445337631,1.3505297905193523,-1.0498551445020259
1.7004861561374567,14.247320930976397,-0.06221311139523644,1.3276892442398662,-1.010748580581963
1.686342601828367,13.94452558873164,-0.06077431737945729,1.3053137318014858,-0.9734957128707101
1.6725266284635616,13.646825119354645,-0.05936458144493733,1.28338600191152,-0.937985962902172
1.6590315369790927,13.354118422186882,-0.05798404015914008,1.2618896256342462,-0.904116599735652
1.6458506109537019,13.066308086333706,-0.056632707887736625,1.240808947002058,-0.8717920946873885
1.6329771426793154,12.783300218154,-0.05531049449823261,1.2201290371692937,-0.8409235361872339
1.6204044554173183,12.505004278921131,-0.05401722082348053,1.1998356518121798,-0.8114280985127853
1.6081259223232944,12.231332931939459,-0.05275263216803107,1.1799151915067199,-0.7832285588681993
1.5961349824620952,11.96220189845939,-0.05151641010326814,1.1603546648417034,-0.7562528579006564
1.5844251542822056,11.697529821787231,-0.050308182765337016,1.1411416540466397,-0.7304336992960075
1.5729900468723295,11.437238139034381,-0.04912753384228131,1.1222642829346792,-0.7057081845768387
1.56182336928298,11.181250959994337,-0.04797401041293232,1.1037111869787364,-0.682017479649839
1.55091893816086,10.92949495267592,-0.04684712977941532,1.0854714853553324,-0.6593065100225182
1.5402706839132487,10.681899235057447,-0.04574638541720378,1.0675347548053191,-0.6375236819385048
1.529872655592896,10.438395272659843,-0.04467125215108135,1.0498910051738441,-0.6166206269714734
1.5197190246705605,10.198916781566915,-0.0436211906518364,1.0325306565038057,-0.5965519678750215
1.5098040878418746,9.963399636548683,-0.042595651336736116,1.015444517567785,-0.577275103713756
1.5001222689972948,9.731781783969076,-0.04159407774656736,0.9986237657331475,-0.5587500125030415
1.490676820061789,9.50410734266887,-0.04054026082304722,0.981153984703437,-0.5592854788258095
1.481469130089386,9.280435549765187,-0.03952660850219719,0.9638181275025083,-0.5624513947252092
1.472489964870941,9.060736075958758,-0.03855308904949772,0.946612079509916,-0.5681056268204143
1.4637301129840399,8.844979518084134,-0.037619536053990356,0.9295319020085568,-0.5761109689701337
1.4551804153290044,8.633137359656942,-0.03672566094631885,0.912573823445292,-0.5863347929183415
1.446831791904667,8.425181933355756,-0.03587106448270291,0.8957342313476319,-0.5986487149163311
1.438675266052579,8.221086385292157,-0.03505524727458382,0.8790096648575616,-0.6129282768011587
1.4307019863807373,8.020824640931053,-0.03427761943708286,0.862396807847701,-0.6290526400931566
1.4229032465617903,7.824371372530848,-0.03353750942332555,0.8458924825888632,-0.6469042917469366
1.4152705031859116,7.631701967979829,-0.032834172106054785,0.8294936439417443,-0.6663687602517954
1.4077953918350006,7.442792500910894,-0.032166796162736946,0.813197374048982,-0.6873343408291762
1.4004697415325018,7.257619701981934,-0.03153451081551328,0.7970008775071952,-0.7096918285172451
1.3932855877118429,7.076160931213387,-0.03093639197282483,0.780901477001904,-0.7333342579659878
1.3862351838362081,6.898394151278151,-0.030371467815305333,0.7648966093914599,-0.7581566487907321
1.3793110117930238,6.724297901641759,-0.02983872386455765,0.7489838222293295,-0.7840557553477416
1.3725057911780871,6.553851273452896,-0.02933710756967325,0.7331607707173121,-0.8109298198025207
1.3658124875766542,6.387033885085565,-0.02886553244278801,0.7174252150855661,-0.8386783273596177
1.359224319942004,6.223825858234871,-0.028422881771561714,0.7017750183987208,-0.8672017625118461
1.3527347671659573,6.064207794468064,-0.028008011933192373,0.6862081447909034,-0.8964013651466599
1.3463375739305292,5.90816075213144,-0.027619755331400285,0.6707226581362613,-0.926178885317571
1.3400267559253265,5.755666223511728,-0.027256922974710957,0.6553167211655719,-0.9564363354484924
1.3337966045114353,5.606706112147641,-0.02691830671129997,0.639988595043863,-0.9870757386881792
1.3276416909093862,5.4612627101832985,-0.026602681132605645,0.6247366394286855,-1.0179988720698578
1.3215568699863307,5.319318675650106,-0.026308805154834306,0.6095593130338746,-1.04910700305694
1.3155372837158252,5.180857009557332,-0.026035423284343752,0.5944551747293807,-1.0803006179685932
1.309578364382615,5.045861032663822,-0.025781266569656743,0.5794228852141711,-1.1114791406779931
1.3036758376045634,4.914314361793956,-0.02554505323948859,0.5644612093063924,-1.1425406398604228
1.2978257252444199,4.786200885549864,-0.02532548902262839,0.5495690189030936,-1.173381522937087
1.292024348285517,4.661504739258845,-0.02512126714174546,0.5347452966709828,-1.2038962147127785
1.286268329747764,4.540210278979572,-0.02493106796914917,0.5199891405401036,-1.2339768185406979
1.2805545977235742,4.422302054372782,-0.02475355832815399,0.5052997690841667,-1.2635127576654872
1.2748803886176598,4.307764780221355,-0.024587390418927716,0.49067652788477634,-1.2923903941960675
1.2692432506801008,4.196583306360502,-0.02443120034245623,0.4761188969921921,-1.3204926229442104
1.2636410479288156,4.088742585750921,-0.02428360619045951,0.46162649961284297,-1.3476984371351908
1.2580719645657086,3.984227640395453,-0.024143205662645092,0.44719911217382713,-1.3738824627575001
1.2525345100004748,3.8830235247626597,-0.024008573165474622,0.4328366759374071,-1.3989144580763344
1.247027524607516,3.7851152863379625,-0.023878256338514457,0.4185393103643117,-1.4226587746012365
1.2415501863548792,3.690487922873885,-0.023750771945283182,0.4043073284537479,-1.4449737755884897
1.236102018459835,3.5991263358548373,-0.023624601055101235,0.3901412543205675,-1.465711207998491
1.230682898243986,3.5110152796277774,-0.02349818343054407,0.3760418433060326,-1.484715523754135
1.2252930673820146,3.4261393055774363,-0.023369911021380214,0.3620101049578154,-1.5018231462120377
1.219933143762816,3.3444827006427893,-0.023238120449911876,0.34804732925651966,-1.5168616780424884
1.2146041352103845,3.2660294193797945,-0.02310108435384068,0.3341551165086543,-1.5296490473297417
1.209307455345206,3.1907630086740966,-0.022957001430320888,0.32033541136699323,-1.5399925898156048
1.2040449419060038,3.118666524097364,-0.022803984997524295,0.30659054147415693,-1.5476880670528523
1.1988188778978466,3.0497224367844566,-0.0226400498560156,0.2929232612467911,-1.5525186231525139
1.1936320159876959,2.9839125295899294,-0.022463097188772384,0.2793368013143201,-1.5542536872938806
1.1884876066351122,2.921217781169606,-0.02227089718152029,0.26583492407979376,-1.5526478359313944
1.183389430527974,2.8616182365388667,-0.02206106896750719,0.2524219857527314,-1.5474396387101856
1.1783418359965965,2.805092862605523,-0.02183105739229791,0.23910300497199272,-1.5383505269857287
1.173349782213655,2.7516193871953796,-0.0215781059376278,0.22588373772490042,-1.5250837456955135
1.1684188891660234,2.7011741202355637,-0.02129922491134242,0.21277075757784097,-1.5073234812789624
1.163555495630511,2.6537317561159277,-0.020991153658331502,0.19977153911464518,-1.4847343048929968
1.1587667267345474,2.60926515693588,-0.020650315002220605,0.18689454071185668,-1.4569611377772087
1.1540605731932545,2.5677451175490162,-0.02027275926989189,0.1741492800434672,-1.423630043411217
1.1494459850805105,2.529140115316256,-0.019854093884403345,0.1615463915457462,-1.384350291714406
1.144932984167643,2.4934160506691008,-0.01938939231444394,0.14909764886428803,-1.3387183408106207
1.140532800700954,2.460535989529024,-0.01887307261328597,0.13681592626680064,-1.2863246627199283
1.1362580433990075,2.430459926074004,-0.018298730012336523,0.1247150602985849,-1.2267647229028644
1.1321229160988249,2.4031445951911152,-0.01765889868490274,0.11280955607435357,-1.1596559236576778
1.128143501937583,2.378543379067871,-0.016944702717201474,0.10111406238864724,-1.0846629179228728
1.1243381479177732,2.3566063719890415,-0.016145332237666083,0.08964252090552617,-1.0015342800506128
1.120728001802368,2.337280689672415,-0.015247242678900857,0.07840689054341238,-0.9101537540464374
1.1173377835708809,2.3205111273266965,-0.014232915855769928,0.06741539072371652,-0.8106084167071307
1.1141969215873027,2.306241265808467,-0.013078927479693362,0.05667036160871318,-0.7032725667531663
1.111341261290855,2.2944150589508965,-0.011752901185068634,0.04616621976144973,-0.5888975548311425
1.1088156928463906,2.284978736374267,-0.010208563549405523,0.0358887591657577,-0.4686817252126912
1.1066783523368955,2.277882407272582,-0.008377006098377035,0.025818450414107456,-0.3442725699712905
1.1050079853983665,2.273079801047892,-0.006147923801874417,0.015943342844054367,-0.21763657367066927
1.103920094389348,2.2705218728550314,-0.0033119980156782057,0.006299511006893825,-0.0907429353788656
