x,y,v_x,v_y,omega
2.375,32.48,0.0,3.7948717948717947,-3.1020408163265305
2.3737848350444217,31.620772563530306,-0.010566651787638243,3.6766711309515943,-2.827371653266253
2.370384819842936,30.787957322859345,-0.01899869779049771,3.5652005270567786,-2.589669018320111
2.365242998691417,29.980073774727096,-0.025712790483581983,3.459873804528007,-2.3826096125027334
2.35871665076227,29.195768406312457,-0.031038061074215,3.3601728773383988,-2.201131682442097
2.3510951197550556,28.43380018765304,-0.0352361215972169,3.2656377197000146,-2.0411521558468424
2.342613612937935,27.69302816173044,-0.03851611159513366,3.175858157887822,-1.8993536181018469
2.333463957161718,26.97240075877177,-0.041046112545883626,3.090467085231052,-1.7730223874790583
2.3238030386586797,26.270946541586305,-0.04296187443706096,3.009134803338172,-1.6599243635567251
2.3137594664743024,25.587766148646296,-0.04437353586186876,2.93156426570541,-1.5582090655695313
2.3034388639288204,24.922025247083667,-0.04537083409884644,2.8574870522304736,-1.4663348957572888
2.292928093435623,24.272948342816566,-0.04602717018982471,2.7866599413964996,-1.38301051629532
2.2822986469050828,23.63981332239662,-0.0464027996409599,2.7188619752986707,-1.307148554598725
2.271609379585864,23.021946622814077,-0.04654735096094651,2.653891934114751,-1.2378288101395787
2.26090872443768,22.418718942794627,-0.04650182424064985,2.5915661530109237,-1.1742688348353623
2.250236493360494,21.82954142307411,-0.04630018512618831,2.5317166271674307,-1.1158002731857772
2.2396253482206605,21.25386223448673,-0.04597064217671053,2.4741893605489604,-1.0618497295793534
2.229102006729199,20.691163522004192,-0.04553667514034302,2.4188429219078786,-1.0119232150593696
2.218688234465499,20.140958660539532,-0.04501786628313963,2.3655471777848383,-0.9655934402285726
2.208401663690127,19.60278978470222,-0.04443057524183048,2.3141821773222038,-0.9224893834232881
2.1982564713042887,19.076225560013107,-0.043788488982852126,2.2646371678005317,-0.8822876871818753
2.188263941832865,18.560859167553744,-0.04310307163822333,2.2168097231504293,-0.8447055311054457
2.1784329362143984,18.05630647779123,-0.04238393373974533,2.1706049704366324,-0.809494702595343
2.1687702831590103,17.56220439250959,-0.04163913630710946,2.125934901577676,-0.7764366439181105
2.159281106644449,17.07820933649186,-0.04087544208037975,2.0827177594460715,-0.7453382985072299
2.149969100578365,16.603995882913274,-0.04009852371165507,2.0408774890633623,-0.7160286142874754
2.1408367596211972,16.139255498390252,-0.03931313678545552,2.000343245919437,-0.6883555893032849
2.1318855735306204,15.683695395336049,-0.03852326400216905,1.9610489545518945,-0.6621837667125442
2.1231161910715195,15.237037480745165,-0.03773223564218808,1.9229329114557936,-0.6373921035389009
2.1145285584697477,14.799017391801314,-0.036942830460172105,1.8859374271863991,-0.6138721514285853
2.106122036522504,14.369383609807851,-0.03615736038542748,1.8500085031915436,-0.5915264987771688
2.097895499772996,13.947896644899995,-0.03537774178420633,1.8150955394854682,-0.5702674325537344
2.0898474205806403,13.534328284835784,-0.03460555554062738,1.7811510697685273,-0.5500157854018073
2.081975940445333,13.1284609018951,-0.03384209780987081,1.7481305210200442,-0.530699939486913
2.074278930555565,12.730086812557879,-0.03308842297071965,1.7159919949557818,-0.5122549633630925
2.066754043209442,12.339007685196531,-0.03234538003904537,1.6846960690559245,-0.4946218620601166
2.0593987554924054,11.955033991513808,-0.031613643587358076,1.654205615141655,-0.477746923819372
2.0522104063754334,11.577984497895336,-0.03089374003848573,1.6244856337146178,-0.46158114956420127
2.0451862282145434,11.207685793233068,-0.030186070056211826,1.595503102479011,-0.44607975338712774
2.038323373479912,10.843971850118788,-0.0294909276362325,1.5672268376451814,-0.4312017241576679
2.0316189374154865,10.486683616611032,-0.028808516402254056,1.539627366770099,-0.41690943986908197
2.025069977223213,10.135668636049353,-0.02813896353056014,1.5126768120271215,-0.4031683276058379
2.0186735282764348,9.790780692630698,-0.027482331658814117,1.486348782917696,-0.3899465630704614
2.0124372512457365,9.451880047777955,-0.02674616426030183,1.4606133462365745,-0.3745188103201764
2.0063678942572074,9.11883252164268,-0.026030853031253538,1.435452098418002,-0.35987501471391514
2.0004607109210153,8.791508640846246,-0.02533595858780986,1.4108425172031824,-0.3459652637703496
1.994711058913723,8.469783981093332,-0.024661015388643986,1.3867632197786717,-0.3327434248766592
1.9891144052043135,8.153538913372447,-0.02400553860621991,1.3631938908377328,-0.3201668140805345
1.9836663298245605,7.8426583660825315,-0.023369029913372873,1.3401152160311065,-0.3081958977348992
1.9783625284148831,7.5370316018998125,-0.022750982344690453,1.3175088203403693,-0.2967940233657909
1.9731988137428664,7.236552008301093,-0.022150884368497496,1.2953572109528302,-0.2859271765748098
1.9681711163626898,6.941116900751883,-0.021568223285212157,1.273643724257687,-0.2755637611701981
1.9632754845590417,6.650627337651002,-0.021002488050858987,1.2523524766195369,-0.2656744000532743
1.95850808369803,6.364987946198706,-0.020453171610112588,1.2314683186178261,-0.256231754676667
1.9538651950896024,6.084106758423619,-0.019919772810996526,1.2109767924698929,-0.247210361143557
1.9493432144505998,5.807895056665732,-0.01940179796293874,1.190864092381302,-0.2385864812380364
1.9449386500443966,5.536267227868972,-0.018898762091003798,1.1711170275905334,-0.23033796687006222
1.9406481205618031,5.269140626088014,-0.018410189931546576,1.1517229878960762,-0.22244413658803336
1.936468352798248,5.006435442660585,-0.01793561670806268,1.1326699114728613,-0.21488566296091435
1.9323961791739657,4.74807458353898,-0.01747458872048028,1.1139462548019685,-0.20764446976279305
1.9284285351368238,4.493983553313171,-0.017026663776405524,1.0955409645528775,-0.20070363800812113
1.9245624564813275,4.244090345493383,-0.016591411488780034,1.0774434512713786,-0.19404731998765587
1.9207950766121105,3.998325338652215,-0.016168413460933867,1.0596435647387705,-0.18766066054502958
1.9171236237757439,3.7566211980561377,-0.01575726337703587,1.0421315708792989,-0.1815297249134158
1.9135454182808458,3.5189127824431665,-0.015357567013383202,1.0248981301030482,-0.175641432502226
1.910057869723173,3.2851370556285246,-0.014968942183772245,1.007934276980803,-0.1699834960862818
1.9066584742295545,3.055233002642808,-0.01459101863030185,0.9912314011558483,-0.16454436590543414
1.9033478755030104,2.8292383337886626,-0.014196796383123322,0.9739396323584597,-0.17611195273634309
1.9001251539709565,2.607206294799429,-0.013826869112997733,0.9567737501566169,-0.18993272995213156
1.8969846654860605,2.3891083608114663,-0.013481726407837688,0.9397300236517522,-0.2058832107567258
1.8939206701727265,2.1749168477637255,-0.013161711099414254,0.9228048724155655,-0.22384382839904093
1.8909273647263192,1.9646048786022483,-0.01286703191282323,0.905994859423373,-0.24369865299640495
1.8879989119193212,1.7581463510500974,-0.012597775104551168,0.8892966845083667,-0.2653351194492435
1.8851294675382624,1.5555159068261162,-0.012353915165526076,0.8727071783088753,-0.28864376531563063
1.8823132049584184,1.3566889022019595,-0.012135324659204142,0.8562232966837923,-0.3135179775599389
1.8795443375478376,1.1616413797922824,-0.011941783258888679,0.8398421155742811,-0.33985374712788124
1.8768171390781145,0.9703500414775803,-0.011772986043050477,0.8235608262926973,-0.36754943033093634
1.8741259623063908,0.7827922223633408,-0.011628551102374367,0.8073767312224162,-0.39650551604662826
1.8714652558812492,0.5989458656825413,-0.011508026507552312,0.7912872399149592,-0.4266243977574449
1.8688295797144001,0.4187894985513694,-0.01141089668243956,0.7752898655734882,-0.45781014946030485
1.866213618950269,0.2423022084902584,-0.011336588223050111,0.7593822219144263,-0.48996830448032136
1.8636121966567383,0.06946362062390676,-0.01128447519895585,0.743562020401695,-0.5230056362169728
1.8610202853523155,-0.09974612452514009,-0.01125388396993638,0.7278270678508674,-0.5568299398374102
1.8584330174778483,-0.2653463927343864,-0.011244097547171145,0.7121752644034569,-0.5913498139101372
1.855845694914567,-0.4273560773563645,-0.011254359524839518,0.696604601874643,-0.6264744409422399
1.853253797644674,-0.5857936202572631,-0.011283877604666117,0.6811131624810175,-0.6621133657441514
1.8506529916458785,-0.7406770325078043,-0.01133182673268523,0.6656991179584698,-0.6981762704969333
1.848039136107229,-0.8920239149177078,-0.011397351864266545,0.6503607290841824,-0.7345727453374635
1.8454082900502642,-1.039851478508794,-0.01147957037021008,0.635096345620935,-0.7712120532057953
1.8427567184369438,-1.184176565026462,-0.011577574093444775,0.6199044067066067,-0.8080028876152745
1.8400808978440084,-1.3250156675951743,-0.011690431062514264,0.6047834417169965,-0.8448531219085479
1.8373775217823947,-1.4623849516307672,-0.011817186864563066,0.5897320716359641,-0.8816695484500592
1.8346435057401262,-1.5963002761308616,-0.01195686567690189,0.5747490109735437,-0.9183576060765206
1.8318759920277587,-1.726777215475046,-0.012108470952382093,0.5598330702802325,-0.9548210939795728
1.8290723545070202,-1.8538310818784112,-0.012270985749691952,0.5449831593142753,-0.9909618700276875
1.8262302032858528,-1.9774769486563457,-0.012443372695240072,0.5301982909286325,-1.026679531345552
1.823347389466679,-2.0977296744750404,-0.012624573558445753,0.5154775857556534,-1.0618710747569131
1.8204220100395103,-2.214603928781699,-0.012813508416935383,0.5008202777805251,-1.0964305344594905
1.8174524130176026,-2.3281142186310646,-0.013009074382260845,0.48622572090961763,-1.1302485940366682
1.8144372029208684,-2.4382749171512543,-0.013210143850211603,0.47169339665723603,-1.1632121696194015
1.8113752467213595,-2.5451002939226868,-0.013415562232473434,0.45722292309438123,-1.1952039606931044
1.8082656803760362,-2.6486045475795734,-0.013624145118164028,0.44281406522635003,-1.226101964699744
1.80510791608493,-2.7488018409847754,-0.013834674804498985,0.4284667469928268,-1.2557789512186617
1.801901650427999,-2.8457063393771804,-0.014045896125336486,0.4141810651150421,-1.2841018911280264
1.798646873551728,-2.939332251946176,-0.014256511494410033,0.399957305050116,-1.3109313357646941
1.79534387959723,-3.029693877352578,-0.014465175066441042,0.3857959593533639,-1.3361207407338236
1.7919932785856605,-3.1168056537897044,-0.014670485903729947,0.3716977487955496,-1.359515728702512
1.7885960100046745,-3.2006822142641127,-0.014870980017886995,0.35766364663405736,-1.3809532852925472
1.785153358372022,-3.2813384478739067,-0.015065121135612017,0.3436949064946145,-1.4002608821395284
1.7816669710899034,-3.35878956797481,-0.0152512900132473,0.32979309438279114,-1.4172555214189748
1.7781388789472978,-3.4330511882510066,-0.015427772096365618,0.3159601254102438,-1.4317426968181868
1.7745715196782426,-3.504139407850076,-0.015592743286724805,0.3021983058860206,-1.4435152672979654
1.7709677650434248,-3.5720709068973804,-0.015744253537777496,0.28851038148187313,-1.4523522423996627
1.7673309519724523,-3.6368630538732774,-0.015880207948938158,0.27489959222160126,-1.4580174818410758
1.7636649183874766,-3.6985340265095203,-0.0159983449638958,0.26136973505008754,-1.4602583184946019
1.7599740444294407,-3.757102948028347,-0.01609621119293837,0.247925234678838,-1.4588041237157285
1.756263299932003,-3.8125900406884554,-0.016171132263042804,0.23457122323512586,-1.4533648491136313
1.7525382991442071,-3.8650167986825963,-0.016220178935180653,0.22131362888784764,-1.4436296017876553
1.7488053639056198,-3.9144061823962346,-0.016240127487316368,0.20815927296987088,-1.4292653445934191
1.745071596750038,-3.96078283579606,-0.01622741299600265,0.19511597398510344,-1.4099158647849344
1.7413449657939957,-4.004173328129738,-0.01617807357827903,0.18219265500342105,-1.385201231730636
1.7376344038172842,-4.044606419962456,-0.01608768274095249,0.1693994478897773,-1.3547180795295848
1.7339499247706227,-4.082113351510486,-0.015951265490887535,0.156747782962653,-1.3180412208971344
1.7303027622299378,-4.116728147741576,-0.01576319138463242,0.1442504451337922,-1.2747273494483826
1.7267055363625965,-4.148487929036079,-0.015517033548771961,0.1319215661227596,-1.2243219516282724
1.723172459298073,-4.177433207270042,-0.015205375707952462,0.11977650547691757,-1.1663710669224177
1.7197195942873302,-4.203608133593441,-0.014819537428941817,0.10783154950916836,-1.1004402421705237
1.7163651931835793,-4.22706064439155,-0.014349167821066749,0.09610332699612156,-1.026143923529962
1.713130152072921,-4.24784242498432,-0.013781624445526193,0.08460780859320688,-0.9431894978705749
1.7100386504217582,-4.266008578243209,-0.013100998608064707,0.07335874148407243,-0.8514407974041471
1.707119081557193,-4.281616856759918,-0.012286556735979932,0.062365419530783645,-0.7510049706201296
1.7044054528560137,-4.294726319438254,-0.011310214578621415,0.05162990810693317,-0.6423417242265084
1.701939554608082,-4.305395368377518,-0.01013237888165465,0.04114443049538015,-0.5263808254126546
1.6997744263236108,-4.313679429929834,-0.008694823592009689,0.030890887350830037,-0.4046080327091686
1.697980210667673,-4.319629279776137,-0.006907051677015031,0.02084693739961518,-0.2790440408131578
1.6966554477288471,-4.323292742033438,-0.004612626051904077,0.01100925614214837,-0.15201746385483722
1.6959578461452098,-4.324729299803906,-0.0014534746753753318,0.0014825505576040576,-0.025673413775079534
