x,y,v_x,v_y,omega
2.375,32.48,0.0,3.128205128205128,-2.1224489795918373
2.374492850720317,31.86178612488487,-0.005071492796830099,3.0539336229461376,-1.9847183677204405
2.3730482170978955,31.258123009747173,-0.009374843427385794,2.9826975284308146,-1.8603675619295472
2.3708085885763395,30.668423006957923,-0.013021441788172128,2.914302499461717,-1.7477140024117235
2.3678959228281453,30.092135683190286,-0.016105215693771453,2.8485707382146437,-1.6453245466158966
2.3644148385831634,29.52874468796876,-0.018705626756048633,2.785339214000603,-1.5519735995241022
2.3604552653087545,28.977764954752125,-0.02089010598803904,2.7244581181657654,-1.466609033046786
2.3560946504469866,28.438740191269886,-0.022716042629640495,2.665789516656607,-1.3883243108299408
2.351399804690696,27.911240622617996,-0.02423241493326456,2.609206169862325,-1.316335583316963
2.3464284499296397,27.39486095614419,-0.02548113267729955,2.554590494875726,-1.2499627840102405
2.3412305220070744,26.889218541689193,-0.026498146548352478,2.501833649674232,-1.1886139623804726
2.335849270533359,26.39395170450227,-0.0273143681888012,2.4508347221949776,-1.1317722470120317
2.330322190128587,25.908718231275977,-0.027956435858922067,2.4015000100679873,-1.078984955577334
2.324681811169981,25.43319399236599,-0.02844735372713487,2.3537423790318948,-1.0298544644382754
2.3189563730634744,24.967071685472586,-0.02880702733793329,2.3074806899021207,-0.9840305263122059
2.3131703989814385,24.5100596879345,-0.02905271348242313,2.2626392854787363,-0.941203784206693
2.3073451877073685,24.06188100638294,-0.029199399258278608,2.2191475300368686,-0.901100277276873
2.3014992355454393,23.622272313870468,-0.02926012236101365,2.1769393950878335,-0.8634767721010341
2.2956485990645286,23.19098306576426,-0.0292462424480929,2.135953085974258,-0.8281167831807905
2.28980720765505,22.767774686706957,-0.029167671646690693,2.0961307045987616,-0.7948271708517581
2.283987133405818,22.352419821826256,-0.029033070845630744,2.0574179442082605,-0.7634352244780965
2.2781988245959943,21.944701646136977,-0.02885001725260666,2.019763812684542,-0.7337861547638206
2.2724513080952677,21.544413226744275,-0.02862514775466032,1.98312038124245,-0.7057409319992414
2.266752365134784,21.151356933037754,-0.0283642818501729,1.9474425558227586,-0.6791744176641947
2.2611086842207264,20.765343890575664,-0.02807252729040412,1.9126878687981501,-0.6539737454976983
2.2555259943865846,20.386193474806223,-0.027754371051016337,1.878816288896263,-0.6300369152859918
2.2500091814987186,20.01373284116753,-0.027413757827642327,1.8457900474906452,-0.6072715685114485
2.244562389926224,19.647796488456017,-0.027054157897304896,1.813573479624521,-0.5855939198780951
2.2391891115469265,19.288225852661725,-0.026678625895668856,1.7821328783184047,-0.5649278227732978
2.2338922637755916,18.934868928742397,-0.026289851817680523,1.7514363608748846,-0.5452039500905173
2.2286742580591,18.587579918051333,-0.025890205347233134,1.7214537460357329,-0.5263590746466864
2.223537060079088,18.246218899350684,-0.025481774452890526,1.6921564409707637,-0.5083354357782492
2.2184822427292428,17.91065152153491,-0.02506639904556197,1.6635173371869836,-0.49108018067220677
2.2135110327871272,17.580748716361953,-0.02464570037558988,1.6355107145426027,-0.47454487064778444
2.208624352074858,17.256386429644174,-0.02422110674710378,1.6081121526351558,-0.4586850440037719
2.203822853795795,16.93744536948988,-0.023793876043526802,1.581298448907811,-0.44345982822976726
2.199106954642724,16.62381077031068,-0.02336511548718327,1.555047542884176,-0.42883159538229204
2.194476863194416,16.315372171422194,-0.022935798995897205,1.5293384460006714,-0.41476565527852505
2.1899326050499743,16.012023209166355,-0.022506782448517917,1.5041511765577298,-0.40122998188558684
2.1854740450923233,15.713661421574827,-0.02207881712799205,1.4794666993575383,-0.38819496890208094
2.1811055009487905,15.420188439136854,-0.0216066243073393,1.4552631250221755,-0.37431890958914577
2.176830639842564,15.131509414314419,-0.021141986754922442,1.431527123202169,-0.3610724071647269
2.1726479283117377,14.847532485894721,-0.02068512855334073,1.4082421609948135,-0.3484194929993137
2.16855579353957,14.568169024644973,-0.02023621916833557,1.3853924515026532,-0.3363266421132412
2.1645526335774576,14.293333488334927,-0.01979538045278966,1.362962911597829,-0.32476258083719217
2.1606368262508666,14.022943284922832,-0.01936269281312232,1.3409391225231102,-0.3136981116251935
2.1568067369055446,13.756918643359626,-0.018938200640094972,1.319307293108957,-0.3031059533146597
2.15306072513223,13.495182491508189,-0.018521917093056603,1.2980542254054148,-0.292960595314701
2.1493971505913825,13.23766034071313,-0.018113828315415706,1.277167282545182,-0.2832381643683176
2.145814378044903,12.98428017659161,-0.017713897149376833,1.256634358670017,-0.2739163026791145
2.1423107816890137,12.734972355647912,-0.017322066409516296,1.2364438507669684,-0.2649740563212564
2.1388847488713205,12.48966950734383,-0.016938261767414656,1.216584632273849,-0.25639177296468907
2.1355346832652633,12.248306441283933,-0.01656239429316055,1.1970460283251059,-0.2481510080480107
2.132259007566551,12.010820059199435,-0.01619436269396105,1.1778177925198716,-0.24023443862039404
2.1290561657686324,11.777149271437086,-0.01583405528522645,1.1588900851036348,-0.23262578415301918
2.1259246250675847,11.547234917680349,-0.015481351725246615,1.140253452463745,-0.22530973369078153
2.122862877440974,11.32101969164928,-0.015136124540859424,1.121898807846947,-0.2182718787776401
2.1198694409400627,11.098448069543146,-0.014798240468259135,1.103817413214406,-0.21149865164477852
2.1169428607302123,10.879466242006075,-0.014467561630242607,1.0860008621563193,-0.20497726820056442
2.1140817099103186,10.664022049411017,-0.014143946568691949,1.068441063794244,-0.19869567540580732
2.1112845901385597,10.452064920271113,-0.013827251148898153,1.0511302276048056,-0.1926425026576402
2.10855013208863,10.243545812600285,-0.013517329350402328,1.0340608491034868,-0.18680701684102174
2.105876995757856,10.038417158056752,-0.013214033957335667,1.0172256963318282,-0.18117908073884087
2.1032638706461477,9.836632808714011,-0.01291721715974668,1.0006177970955898,-0.17574911452031822
2.100709475822564,9.638147986313921,-0.012626731076089344,0.9842304269053096,-0.1705080600531993
2.0982148923164714,9.44309510112759,-0.012319103984836707,0.9662984249580178,-0.20024510189587455
2.095778624583602,9.251617813323879,-0.012043573343859418,0.9484744530790791,-0.23149921947733884
2.09339431072567,9.0636948038502,-0.011799565235458241,0.9307556416577,-0.2641680107972511
2.0910557099079985,8.87930531671089,-0.011586442941258835,0.9131392297353979,-0.29815121469603323
2.0887567143136487,8.698429137616696,-0.011403513002237823,0.8956225612065596,-0.33335049263142197
2.0864913599376367,8.521046573358579,-0.011250030757884524,0.8782030813746207,-0.36966921435456157
2.0842538363218748,8.34713843183556,-0.011125205399733652,0.8608783338555532,-0.4070122466108402
2.082038495324785,8.176686002667736,-0.0110282045711644,0.8436459578226991,-0.445285743988297
2.07983985901345,8.009671038326527,-0.010958158542185091,0.8265036855893846,-0.4843969410274412
2.0776526267607434,7.846075735714766,-0.010914163984883535,0.8094493405282345,-0.5242539446904491
2.075471681625025,7.685882718129072,-0.010895287372295316,0.7924808353287031,-0.5647655262645811
2.0732920960857357,7.529075017536492,-0.010900568020599261,0.7755961705970866,-0.6058409117438434
2.071109137204499,7.3756360570961625,-0.01092902079176535,0.7587934338062242,-0.647389569693875
2.06891827127822,7.225549633855014,-0.010979638471028038,0.7420707986052724,-0.6893209955571313
2.0667151680480362,7.078799901544144,-0.011051393830809868,0.7254265245034067,-0.731544491297925
2.0644957045259607,6.93537135339929,-0.011143241389946865,0.7088589569451189,-0.7739689392189113
2.0622559684995423,6.795248804924878,-0.011254118874237579,0.6923665277990104,-0.8165025687012025
2.0599922617739765,6.658417376516304,-0.011382948381418562,0.6759477562867082,-0.8590527145283485
2.057701103210772,6.52486247584925,-0.011528637250624264,0.659601250383837,-0.9015255653486943
2.055379231622392,6.394569779937768,-0.01169007863317953,0.6433257087309797,-0.9438259007097523
2.0530236085832585,6.267525216754734,-0.011866151758154518,0.6271199230993613,-0.9858568149606872
2.050631421219199,6.143714946298424,-0.012055721882436777,0.6109827814637456,-1.0275194261631981
2.0482000850398467,6.023125340977657,-0.012257639911089512,0.5949132717439034,-1.0687125679752578
2.045727246881797,5.90574296517465,-0.012470741669408706,0.5789104862861719,-1.1093324622745828
2.0432107880345263,5.791554553829201,-0.01269384680329634,0.5629736271683191,-1.1492723700675966
2.040648827626271,5.6805469898699315,-0.012925757279256182,0.5471020124243839,-1.1884222179834232
2.038039726353405,5.5727072802973225,-0.013165255449404818,0.5312950833016937,-1.2266681973798055
2.035382090644437,5.468022530699134,-0.01341110164027487,0.5155524126801828,-1.2638923327880827
2.032674777358734,5.366479917950631,-0.013662031216755714,0.49987371480484394,-1.2999720160977442
2.0299168991306447,5.268066660819542,-0.013916751064139296,0.48425885650604267,-1.3347795025294242
2.0271078304820542,5.172769988157938,-0.014173935421763796,0.4687078701099984,-1.3681813640727276
2.0242472148407775,5.080577104319591,-0.014432220991000364,0.4532209682734657,-1.400037895679827
2.0213349726188676,4.99147515139094,-0.014690201228101343,0.43779856101305803,-1.4302024691206068
2.0183713105242096,4.905451167765513,-0.01494641971847605,0.42244127524122516,-1.4585208290415286
2.015356732301064,4.822492042524587,-0.015199362512983641,0.4071499771680226,-1.4848303254614215
2.0122920511209195,4.742584465009713,-0.015447449288461377,0.39192579798070454,-1.5089590767334167
2.009178403874726,4.665714868884475,-0.01568902317346873,0.3767701632716659,-1.5307250569788826
2.006017267651829,4.591869369882453,-0.01592233905550252,0.36168482674854824,-1.5499351022690921
2.002810478730591,4.521033696324945,-0.016145550156880854,0.34667190882652993,-1.5663838305601994
1.9995602544517115,4.4531931113654615,-0.016356692631912646,0.33173394076829504,-1.5798524718228975
1.9962692183989075,4.388332325779086,-0.016553667896126657,0.31687391509545365,-1.5901076073122178
1.9929404293746336,4.326435399966009,-0.016734222346612267,0.3020953430353181,-1.5968998210287486
1.9895774147332845,4.267485633685382,-0.016895924066877895,0.2874023197709357,-1.5999622729158327
1.9861842087242305,4.211465441888173,-0.017036136023663676,0.2727995982011467,-1.5990092133764071
1.982765396607209,4.158356214893548,-0.017151985146550423,0.2582926717450911,-1.593734473987829
1.9793261654408387,4.108138161082085,-0.0172403265171524,0.2438878663695318,-1.5838099923691722
1.9758723626235901,4.060790130308682,-0.01729770165533326,0.2295924413645069,-1.5688844637456463
1.9724105635051783,4.016289416445403,-0.017320289528785587,0.21541469726827417,-1.5485822633683723
1.9689481497171668,3.974611537970741,-0.017303848351329414,0.2013640874783507,-1.5225028606880624
1.965493400347813,3.9357299965152492,-0.01724364534220928,0.18745132707657455,-1.4902210598775423
1.9620555987967072,3.899616015043428,-0.017134370168849274,0.17368848764162376,-1.4512885689754467
1.9586451592391925,3.8662382603334606,-0.016970025406296663,0.16008905945803728,-1.40523764545786
1.9552737783619403,3.835562559249844,-0.016743783366226655,0.1466679513781283,-1.3515879213469066
1.9519546208282335,3.80755162589152,-0.016447791970841657,0.13344138220510207,-1.2898580147325016
1.9487025515201102,3.782164828223518,-0.016072901110391075,0.12042659447490511,-1.2195842235402943
1.9455344352053765,3.7593580395979025,-0.01560826203694399,0.10764129178125234,-1.1403494779405354
1.942469536923172,3.7390836435757606,-0.015040720785103516,0.09510266844014967,-1.0518267017326959
1.9395300774076345,3.7212907886501725,-0.014353874370268907,0.08282588081574561,-0.9538414256675816
1.9367420326898797,3.7059260161105314,-0.013526572807280828,0.07082184458067137,-0.8464579073667049
1.9341363246106882,3.692934389153862,-0.012530507984632785,0.05909442498602601,-0.7300889490226622
1.9317506461855947,3.6822611870155306,-0.011326276266304275,0.047637596397306144,-0.6056181777019862
1.9296323448086223,3.6738540007674914,-0.009856737503417166,0.03643426608308311,-0.47450019952584177
1.9278431949789498,3.6676645121799645,-0.008034760793308752,0.025460619792179888,-0.3387693641555062
1.9264681932730934,3.663647980511179,-0.005715256265255816,0.014704696895664893,-0.20085923526138022
1.9256367879514764,3.6617543992624917,-0.0025987969509129977,0.004231115591194767,-0.06315221873584376
