x,y,v_x,v_y,omega
2.375,32.48,0.0,2.2051282051282053,-7.755102040816326
2.3739538851925492,32.064985782616695,-0.011011734815270497,2.163442504169689,-7.396088390919017
2.370931635896292,31.6577716025081,-0.020801415671646617,2.1230225496050394,-7.061005381335463
2.3661533609061287,31.25812378132749,-0.029496215803756637,2.0837966207171386,-6.74769122408401
2.3598164123995833,30.86582168107301,-0.03720850531777549,2.0456991714352877,-6.454224254983861
2.3520980090409163,30.48065660127217,-0.04403784582608661,2.0086700896261833,-6.178891347208851
2.343157509862661,30.1024308062822,-0.050072671839756805,1.9726540681629663,-5.9201611631419215
2.3331383930252234,29.730956663343363,-0.055391715922748205,1.937600068035349,-5.676661393145378
2.3221699838483976,29.366055875401013,-0.060065222780682936,1.9034608576735748,-5.44715929949641
2.310368968789185,29.00755879542871,-0.06415598836892464,1.870192615719096,-5.2305450156947
2.297840725853125,28.65530381118128,-0.06772025306328092,1.8377545868854162,-5.025817154817249
2.2846804969307044,28.309136791093188,-0.07080847243588656,1.8061087824629545,-4.83207036233525
2.27097442348874,27.968910583497475,-0.07346598484794732,1.7752197185445067,-4.648484513839232
2.25680046372279,27.634484562540273,-0.0757335916357342,1.745054186268182,-4.474315310202546
2.2422292065398097,27.30572421515581,-0.07764806292195513,1.7155810493577253,-4.308886064690053
2.2273245954738536,26.982500764288414,-0.07924257987758485,1.686771065035919,-4.151580510551029
2.2121445737505616,26.66469082423177,-0.08054712247285742,1.6585967250340419,-4.001836485381341
2.196741660137003,26.35217608452836,-0.08158881030144124,1.6310321139492217,-3.8591403712808536
2.181163463885677,26.044843019352808,-0.08239220287040884,1.6040527826355238,-3.7230221885642414
2.1654531459600754,25.742582619708564,-0.08297956476750777,1.5776356346722933,-3.5930512562865067
2.1496498327781732,25.44529014611102,-0.08337110030514448,1.5517588242492124,-3.4688323457328183
2.133788987900508,25.152864899722275,-0.08358516156501593,1.526401664053404,-3.3500022637822275
2.1179027463975566,24.86521001015205,-0.0836384332028941,1.501544541948937,-3.23622681207399
2.1020202160378405,24.582232238352884,-0.08354609689937963,1.4771688454107028,-3.127198075494039
2.0861756421425905,24.30385247642723,-0.08323889147167378,1.453144438017238,-3.0185209000355147
2.0703983462916553,24.02999442477257,-0.08283790695922313,1.4295718951896828,-2.914633095910343
2.0547052281545066,23.76057376755675,-0.08235281027392206,1.4064350228715814,-2.8152675076112694
2.0391114337283307,23.49550919334567,-0.0817923942121414,1.383718389876678,-2.720174759680639
2.023630513719824,23.234722254627453,-0.08116465850898238,1.3614072808413635,-2.6291218772192235
2.008274567291014,22.978137235933218,-0.08047688284691315,1.3394876527821697,-2.541891028702741
1.9930543726153238,22.725681029901153,-0.07973569268666474,1.3179460949237836,-2.4582783788715745
1.9779795055349494,22.477283020690937,-0.0789471186856982,1.296769791499542,-2.3780930408269185
1.963058447473676,22.23287497420894,-0.078116650380337,1.2759464872583115,-2.301156117664677
1.9482986836382061,21.992390934652633,-0.07724928472987155,1.2554644554396694,-2.2272998250300775
1.9337067924338358,21.755767126925488,-0.07634957005297335,1.2353124680039438,-2.1563666869009066
1.9192885269252158,21.5229418645122,-0.07542164582723933,1.2154797679253782,-2.088208797722278
1.9050488890884334,21.293855462438586,-0.07446927877047085,1.1959560433758636,-2.022687144735324
1.8909921975254813,21.06845015497173,-0.07349589557639237,1.1767314036436543,-1.9596709849784593
1.8771221492451997,20.846670017744163,-0.07250461263709655,1.157796356646533,-1.8990372720034552
1.8634418760550349,20.628460894011077,-0.07149826304885033,1.1391417879122745,-1.840670127848652
1.8499539960545865,20.413770324772848,-0.07047942116639637,1.1207589409111658,-1.7844603562560146
1.8366606606741929,20.20254748251587,-0.06945042494301028,1.1026393986359726,-1.7303049935142767
1.823563597659064,19.9947431083437,-0.06841339626887176,1.0847750663342364,-1.678106893662948
1.8106641503611747,19.79030945228785,-0.06737025949838521,1.0671581553062999,-1.6277743451066515
1.7979633136667557,19.589200216603196,-0.06632275833760345,1.049781167690084,-1.5792207159705267
1.785461766856354,19.39137050186739,-0.06527247124557298,1.032636882160495,-1.532364125779188
1.773159903666667,19.196776755716776,-0.06422082548797385,1.0157183404775165,-1.487127141267344
1.7610578597983826,19.005376724063268,-0.06316910996765106,0.9990188348225958,-1.443436494332637
1.7491555380917445,18.817129404647666,-0.06211848694433028,0.9825318958679637,-1.4012228203231498
1.7374612668651055,18.632227016029894,-0.06097910491502661,0.9638090369506565,-1.407886037311984
1.725979997539139,18.45087051701841,-0.059876361674092764,0.945206742117639,-1.4165440093385127
1.7147048303825074,18.273037309913022,-0.058809608395714315,0.9267217537285216,-1.4270630992819897
1.703628996630984,18.098705402329767,-0.0577781153045325,0.9083509576741832,-1.4393126209027232
1.6927458731818024,17.927853380389,-0.05678107889737831,0.8900913785444283,-1.4531645420568218
1.6820489959729437,17.760460382772848,-0.055817628564292794,0.8719401753098089,-1.468493194648221
1.67153207215771,17.596506075555325,-0.054886832648692985,0.8538946375062095,-1.4851749900915971
1.661188991177705,17.435970627710375,-0.053987703982942274,0.8359521819143096,-1.5030881390764952
1.651013834830769,17.278834687204203,-0.05311920493217113,0.8181103497295956,-1.522112374431228
1.6410008864244983,17.12507935757878,-0.05228025197594149,0.8003668042222446,-1.542128675884936
1.631144639100632,16.97468617493312,-0.051469719854230774,0.7827193288899859,-1.5630189955175906
1.621439803410866,16.827637085208025,-0.05068644530120327,0.7651658261110098,-1.5846659826706235
1.6118813142204567,16.683914421678203,-0.04992923038731351,0.747704316308188,-1.6069527070651795
1.6024643370123566,16.54350088255309,-0.0491968454874231,0.7303329376403487,-1.6297623788405666
1.593184273661522,16.406379508584344,-0.04848803188978374,0.7130499462411771,-1.6529780641822023
1.5840367677464902,16.272533660573433,-0.04780150405792041,0.6958537170315479,-1.6764823951560852
1.5750177094632996,16.14194699666744,-0.0471359515546116,0.6787427451368157,-1.700157272305505
1.5661232402053549,16.01460344932449,-0.0464900406342819,0.661715647946877,-1.7238835584953522
1.5573497568719175,15.89048720182248,-0.04586241550716512,0.6447711678637461,-1.7475407624102117
1.548693915967561,15.769582664175463,-0.04525169927553245,0.6279081757890681,-1.7710067100248397
1.5401526375551735,15.651874448311311,-0.04465649453907463,0.611125675412517,-1.7941572022704688
1.5317231091259629,15.53734734235183,-0.04407538366314169,0.5944228083715047,-1.8168656570189916
1.5234027894514706,15.425986283822034,-0.043506928699935464,0.5777988603631737,-1.8390027334015504
1.5151894124848342,15.317776331598903,-0.042949670948869575,0.5612532683013747,-1.8604359363716
1.5070809913815717,15.212702636390961,-0.042402130138103136,0.5447856286243434,-1.8810291993197639
1.4990758227140102,15.110750409518698,-0.04186280320465074,0.5283957068731899,-1.9006424424555082
1.491172490958256,15.011904889741416,-0.04133016264539293,0.5120834486771477,-1.9191311045983983
1.4833698733384058,14.916151307848697,-0.040802654405660145,0.49584899229882445,-1.9363456459829747
1.4756671451196253,14.823474848703729,-0.040278695265715314,0.4796926829113581,-1.9521310196950268
1.4680637854499476,14.733860610391226,-0.039756669678257854,0.4636150887992119,-1.966326109449599
1.4605595838603418,14.647293560084282,-0.0392349260018056,0.44761701969491213,-1.9787631316290535
1.4531546475439763,14.563758486202229,-0.03871177206519982,0.4316995474846126,-1.9892669998736678
1.4458494095490044,14.483239946385389,-0.03818546998713577,0.4158640295347648,-1.9976546511277489
1.438644638034931,14.40572221076328,-0.03765423016100488,0.40011213490849196,-2.0037343329881963
1.4315414467612615,14.331189199940663,-0.03711620429867344,0.38444587375062667,-2.0073048536140847
1.4245413069993176,14.259624417072914,-0.036569477406000306,0.3688676301204209,-2.008154797520889
1.4176460610848007,14.191010873350724,-0.03601205853628136,0.35338019853419844,-2.006061713558506
1.4108579378612203,14.125331006168445,-0.03544187013298675,0.3379868244371558,-2.000791285614238
1.4041795703045663,14.062566589216598,-0.03485673572652861,0.32269124874017296,-1.9920965025836819
1.397614015670381,14.00269863372699,-0.03425436568594974,0.3074977564135909,-1.9797168525974698
1.3911647785696843,13.945707280122566,-0.03363234063717169,0.292411228896153,-1.9633775783264786
1.3848358374660812,13.891571679404823,-0.03298809203233469,0.2774371997116502,-1.942789046720541
1.3786316752017846,13.840269863780023,-0.03231887917078758,0.2625819121283419,-1.9176463095674687
1.3725573143188412,13.791778606325899,-0.03162176170230019,0.24785237686244485,-1.8876289632561056
1.3666183581641034,13.746073269997037,-0.03089356624230934,0.2332564265992643,-1.8524014604290855
1.3608210390838633,13.703127647049381,-0.030130845128638725,0.21880276232341514,-1.8116140872657893
1.3551722754745206,13.662913791158086,-0.02932982444338954,0.2045009839007398,-1.7649049037033657
1.3496797401325966,13.625401846279171,-0.028486337050546914,0.19036159377204181,-1.7119030570908123
1.3443519433531081,13.590559878889607,-0.027595734312488778,0.17639595769706481,-1.652234030584272
1.339198335730817,13.558353723913694,-0.026652766974786874,0.16261619994411983,-1.5855275833290714
1.334229437883153,13.528746859723192,-0.025651420895361408,0.1490350020611436,-1.5114293826005183
1.3294570077246117,13.501700334366571,-0.024584686036650507,0.13566526485065472,-1.4296176069835556
1.3248942610527001,13.477172773707274,-0.02344422629926015,0.12251958419458096,-1.3398260697359423
1.3205561688847842,13.455120511893782,-0.02221990178406606,0.1096094875263911,-1.2418755592637778
1.3164598663976612,13.435497893624973,-0.020899071764596187,0.0969443889873694,-1.1357148760416356
1.3126252251724877,13.41825780131937,-0.01946557271091393,0.0845302668610722,-1.02147200348856
1.3090756654107494,13.403352448885652,-0.01789821425475216,0.07236817980965492,-0.8995132357994227
1.3058393230815748,13.390734439842337,-0.016168547104979603,0.06045296801470722,-0.7705029410414328
1.3029507521373278,13.380357982954365,-0.01423746283446245,0.04877289396395795,-0.6354483618566835
1.3004534768714733,13.372179951077648,-0.0120496452271641,0.037311652106760726,-0.4957036553307083
1.2984040662794192,13.366160078331735,-0.009523097847089382,0.02605542942916822,-0.3529001636438223
1.2968796101583326,13.36225871315225,-0.006523808690663861,0.015011572460147244,-0.20877378253505952
1.2959962466087565,13.360427087473543,-0.0027747549890858227,0.0042686978420506325,-0.06488955966443227
