x,y,v_x,v_y,omega
2.375,32.48,0.0,2.871794871794872,-5.3061224489795915
2.37410008752948,31.968468636698013,-0.009999027450223012,2.8118869426716167,-5.015353740511257
2.371515898596242,31.467533086717765,-0.018714182919088482,2.754063612664455,-4.748070710218978
2.3674644606766964,30.97682901900597,-0.02630179396475305,2.6982038063555365,-4.501779158914342
2.3621365293298067,30.49601299580429,-0.032897443222908086,2.6441964514408896,-4.274301332867231
2.3557000469060307,30.024760773916093,-0.03861902815237956,2.5919393473168624,-4.063729776452478
2.348303095766875,29.562765794642594,-0.04356931783824137,2.5413382001664386,-3.86838878036682
2.340076428249088,29.109737835118498,-0.04783809902605877,2.492305794545726,-3.686802029060412
2.3311356407102712,28.665401798613544,-0.05150398473857035,2.4447612777315375,-3.517665335684538
2.3215830470991765,28.22949662520695,-0.05463594427359532,2.398629537897342,-3.3598235735780824
2.311509297931834,27.80177430731485,-0.05729460203020899,2.3538406609037192,-3.2122510858128166
2.3009947828176642,27.381998997028546,-0.05953334368278674,2.310329453388577,-3.074034990112316
2.29011084838281,26.96994619423286,-0.061399261148929414,2.268035022119008,-2.944360904083873
2.278920858285549,26.565402006119115,-0.06293396215396614,2.2269004013670557,-2.822500701536408
2.2674811177819345,26.168162470060615,-0.0641742656639777,2.186872221505173,-2.7078019795116672
2.2558416818001263,25.778032932940196,-0.06515280080055642,2.147900413166162,-2.5996789711902855
2.2440470625788675,25.394827480953712,-0.06589852388009776,2.109937942239212,-2.4976046848528646
2.2321368505079437,25.018368414696845,-0.06643716579683047,2.072940571725984,-2.4011040857440378
2.2201462597878256,24.648485765002953,-0.0667916199822586,2.036866647095016,-2.309748167686884
2.2081066088309647,24.285016845559447,-0.06698227953842187,2.001676902277312,-2.2231487859419543
2.196045743901326,23.92780583880684,-0.06702733079089439,1.9673342838627614,-2.140954143134811
2.183988413285377,23.576703412032906,-0.06694300938632018,1.9338037914031811,-2.0628448369074164
2.1719565982692677,23.23156636092511,-0.06674382412600394,1.901052332016747,-1.9885303919334352
2.1599698063326427,22.89225727814781,-0.06644275294760771,1.869048587731054,-1.9177462105961154
2.1480453312341004,22.55864424477343,-0.06605141481397575,1.8377628942064996,-1.8502508863780815
2.136198484036096,22.230600542625908,-0.06558022071940345,1.807167129654866,-1.7858238321922537
2.12444279858083,21.908004385794587,-0.06503850656133114,1.7772346129153447,-1.7242631827653596
2.1127902144691735,21.59073866975235,-0.064434650234852,1.747940009776175,-1.6653839359921914
2.101251240200142,21.278690736666064,-0.06377617497660773,1.7192592467381194,-1.6090163030911357
2.0898350987889067,20.97175215562382,-0.06306984070378302,1.6911694315090777,-1.5550042415580283
2.078549857888625,20.669818516624034,-0.06232172485490456,1.663648779599624,-1.5032041484580836
2.067402546188505,20.372789237278752,-0.06153729403531537,1.636676546459073,-1.4534836946151288
2.0563992576416883,20.080567381278712,-0.06072146759598313,1.6102329646524924,-1.4057207828368392
2.0455452448867906,19.79305948775309,-0.059878674125102734,1.5842991856321826,-1.3598026155231757
2.0348450030621783,19.510175410732863,-0.05901290170392378,1.5588572257036752,-1.315624858900186
2.0243023450686906,19.231828167995083,-0.05812774266816035,1.533889915827199,-1.2730908927506572
2.0139204692116186,18.95793379862679,-0.057226433521529584,1.5093808549315915,-1.2321111359168777
2.0037020200437268,18.688411228702495,-0.05631189056615588,1.485314366449473,-1.192602439062576
1.99365365937755,18.423184700757893,-0.055336561280252994,1.4616470551571912,-1.1526110896554866
1.9837805953812844,18.162180961357997,-0.05436414978936497,1.4383944937305542,-1.1143026645056147
1.9740821707609002,17.905326599669685,-0.053396123770461094,1.415542858361799,-1.0775874897582514
1.964557480411563,17.652550640551926,-0.05243376899994961,1.3930789096133276,-1.042381571179858
1.9552054024647547,17.403784442189995,-0.051478208186811036,1.370989961074806,-1.0086061767595207
1.9460246261211664,17.15896159919069,-0.0505304178530568,1.3492638500285945,-0.9761874541033071
1.9370136766018362,16.918017850790566,-0.04959124347283661,1.3278889099727698,-0.9450560793830922
1.9281709375141207,16.680890993855257,-0.048661413057334894,1.3068539448639938,-0.9151469349338361
1.919494670897339,16.44752080037162,-0.047741549351349846,1.2861482049542057,-0.8863988128884634
1.9109830351847292,16.217848939156227,-0.04683218078876031,1.2657613641057064,-0.8587541425019082
1.902634101293354,15.991818901523622,-0.045933751337628705,1.2456834984787841,-0.8321587390495022
1.8944458670313613,15.769375930676006,-0.04504662935118014,1.225905066494717,-0.806561572393121
1.8864162699922267,15.550466954592842,-0.04417111552809409,1.206416889984863,-0.7819145534943428
1.8785431990880173,15.335040522214271,-0.04330745007423343,1.1872101364436978,-0.7581723373199395
1.8708245048580223,15.123046742726423,-0.042455819147931916,1.1682763023101772,-0.7352921407335752
1.863258008675119,14.914437227769813,-0.04161636066210564,1.1496071972077146,-0.7132335741006486
1.8558415109597548,14.709165036404055,-0.04078916950860654,1.1311949290784702,-0.6919584854525194
1.8485727985002853,14.507184622673261,-0.039974302263276126,1.1130318901525733,-0.6714308161634585
1.8414496509684324,14.308451785626762,-0.03917178142397822,1.095110743697402,-0.6516164671898983
1.8344698467097187,14.112923621659341,-0.038381599228398844,1.0774244114961593,-0.6324831750081406
1.827631167880746,13.920558479043898,-0.03760372109351795,1.0599660620087559,-0.6140003964646366
1.8209314049980416,13.731315914537678,-0.036838088714310824,1.0427290991714555,-0.5961392018232394
1.8143683609567707,13.545156651950705,-0.036084622855364186,1.0257071517949161,-0.5788721753572392
1.8079398545718806,13.36204254257208,-0.03534322586563905,1.0088940635231558,-0.5621733228912728
1.8016437236890552,13.181936527356317,-0.034613783943531054,0.9922838833186531,-0.5460179857499842
1.7954836387107713,13.00502822083537,-0.033831604704065515,0.9733639669140853,-0.5801973406048295
1.789460101990132,12.831516081397467,-0.03309658108081946,0.9545486935070514,-0.615637691524292
1.783564764125529,12.661381508077493,-0.032407172970322584,0.9358354544926419,-0.6522329821315761
1.7777895542302864,12.49460636001902,-0.031761825865707645,0.9172217461570435,-0.6898786893135054
1.7721266822679886,12.331172937830228,-0.031158973715377437,0.8987051670517501,-0.7284715907227743
1.7665686409029449,12.171063965378703,-0.03059704145177742,0.8802834157429782,-0.7679095336094539
1.761108206923443,12.014262571957502,-0.03007444720935419,0.8619542889370331,-0.8080912039641124
1.755738442292258,11.860752274754486,-0.029589604248257937,0.8437156799853571,-0.8489158949323076
1.7504526948761057,11.71051696155595,-0.02914092259787562,0.8255655777761637,-0.8902832734292241
1.7452445989034315,11.56354087361403,-0.028726810431838005,0.8075020660229525,-0.932093143843385
1.740108075198033,11.419808588605214,-0.028345675183703543,0.7895233229638784,-0.9742452076690997
1.7350373312345941,11.279305003604367,-0.02799592441006091,0.7716276214899546,-1.0166388178479657
1.730026861061213,11.142015317995067,-0.02767596640528296,0.7538133297244834,-1.0591727265295632
1.7250714451334752,11.007925016232573,-0.027384210569580247,0.736078912080995,-1.101744824879638
1.720166150104575,10.877019850370367,-0.027119067529311574,0.7184229308324238,-1.144251873469629
1.7153063286164258,10.749285822254716,-0.026878949005679515,0.700844048230361,-1.1865892216733531
1.7104876191376706,10.624709165284177,-0.026662267424934643,0.6833410292200967,-1.2286505143739674
1.7057059458960269,10.503276325621922,-0.026467435259993764,0.6659127448049458,-1.2703273841458733
1.7009575189545365,10.384973942738483,-0.026292864089901096,0.6485581761221699,-1.3115091269209604
1.696238834484065,10.269788829150233,-0.026136963359778196,0.6312764193028421,-1.3520823589755058
1.6915466752879063,10.15770794920503,-0.02599813881976431,0.6140666911994384,-1.3919306528823698
1.6868781116386082,10.048718396750061,-0.02587479061688215,0.596928336077998,-1.4309341498624173
1.6822305024923052,9.942807371498247,-0.02576531100870576,0.5798608333866109,-1.4689691457394582
1.6776014971519349,9.83996215388784,-0.025668081662078412,0.5628638067290451,-1.5059076474554896
1.6729890374579022,9.740170078204962,-0.025581470493839274,0.5459370341918134,-1.5416168968399724
1.6683913605931449,9.64341850371013,-0.02550382800346398,0.5290804601952059,-1.5759588580527022
1.6638070025992704,9.549694783476788,-0.025433483039585234,0.5122942090641355,-1.608789664841821
1.6592348027117025,9.458986230612116,-0.025368737933392473,0.49557860054335423,-1.6399590234882941
1.6546739086347402,9.371280081486951,-0.025307862921742856,0.4789341675140183,-1.6693095670634621
1.6501237828923718,9.286563455552251,-0.025249089771240504,0.4623616762048829,-1.6966761564336936
1.6455842104078438,9.204823311262963,-0.0251906045012942,0.4458621492316617,-1.7218851233450025
1.6410553074847254,9.12604639756633,-0.025130539088908884,0.4294368918420206,-1.744753450968202
1.6365375323849007,9.050219200339395,-0.025066962020255948,0.41308752179057756,-1.7650878875652312
1.6320316977250813,8.977327883079745,-0.02499786753329113,0.39681600331664624,-1.7826839895704554
1.6275389849436963,8.907358221064236,-0.024921163370987626,0.38062468574457287,-1.7973250915412027
1.623060961125168,8.840295528093126,-0.024834656834881664,0.36451634726775584,-1.8087812023706349
1.6185995985097716,8.776124574833556,-0.024736038891743438,0.34849424450525557,-1.816807830234874
1.6141572970659608,8.714829497670078,-0.024622866039490664,0.33256216842226627,-1.821144743486339
1.609736910560419,8.656393696867333,-0.024492539577640714,0.31672450716376277,-1.8215146818581922
1.6053417766323006,8.60079972276143,-0.02434228184589542,0.3009863162351491,-1.8176220429958405
1.6009757514668648,8.548029148639575,-0.024169108881169448,0.28535339622990036,-1.8091515850483502
1.5966432497772345,8.498062428969341,-0.023969798781388905,0.2698323778837989,-1.7957672091007602
1.5923492909525612,8.450878741742518,-0.023740854826093682,0.2544308135253576,-1.7771109188778131
1.5880995524342112,8.406455813969814,-0.023478462044460805,0.23915727283800792,-1.7528021041082709
1.5839004316671161,8.364769729902346,-0.023178435367704767,0.22402143902273502,-1.7224373649444424
1.5797591183868602,8.325794722514868,-0.022836156635139448,0.20903419861590322,-1.6855911974244882
1.5756836796186557,8.289502950388513,-0.022446496344909746,0.1942077138991407,-1.641818007403071
1.5716831607030262,8.255864264703327,-0.022003713828754427,0.17955546038071296,-1.5906561304802778
1.567767707122345,8.224845975054244,-0.021501325956590437,0.16509220238686925,-1.531634830757986
1.5639487142049542,8.19641262886093,-0.020931928681087442,0.15083386642772845,-1.4642856567930338
1.5602390154538854,8.170525828025024,-0.020286946330786492,0.1367972539712122,-1.388160068114189
1.5566531261312595,8.147144118998249,-0.01955626836505639,0.12299951299296054,-1.302855900649519
1.5532075681737874,8.126223008983448,-0.018727708940191237,0.1094572649492636,-1.2080559219332556
1.5499213176269662,8.107715180608434,-0.01778618602448817,0.09618527255090197,-1.1035821457396597
1.546816439820165,8.091570995394992,-0.01671245627330194,0.08319456315401219,-0.9894690219727138
1.5439190155797102,8.077739379808044,-0.01548114639841753,0.07049005447875573,-0.8660556314057115
1.5412605229434542,8.06616914805615,-0.014057660671094017,0.058068076097828325,-0.7340891178882092
1.5388799441919718,8.056810679065084,-0.012393214345377202,0.045914912691820936,-0.5948158601154964
1.5368270850166255,8.04961754076783,-0.01041633204735855,0.03400884616655555,-0.4500131095363553
1.5351681881335524,8.0445469758109,-0.008015855542343499,0.022330764465996786,-0.3018911822183922
1.5339971980060931,8.04155649217141,-0.004995145873869114,0.01089683152834145,-0.15279672205137995
1.533470258671787,8.040585326360063,-0.0008597356184198452,-0.00010610029115441441,-0.004742704429957556
