x,y,v_x,v_y,omega
2.375,32.48,0.0,3.7435897435897436,-6.775510204081632
2.3724322927094494,31.632328136201174,-0.022327889483048462,3.6274699416173983,-6.18242793983571
2.365236554197856,30.81059312404169,-0.04024374974820071,3.518051903247681,-5.668264020970024
2.354330435727103,30.01332439178818,-0.05459206304095657,3.4147196815654564,-5.219627859309607
2.3404574883429126,29.23918380135814,-0.06604226203895767,3.3169376265218413,-4.82579470500989
2.324222836370924,28.48694881035187,-0.0751286246739862,3.2242362083153124,-4.478103811029053
2.3061208261754,27.755498525196504,-0.08228015963491614,3.136201053905237,-4.169508010910707
2.286556634693878,27.04380200744026,-0.08784324455223515,3.0524643178882114,-3.8942327023558825
2.265863283236697,26.350908365764248,-0.09209894203194359,2.9726977836423,-3.647514984860991
2.2443151235760292,25.675938284494745,-0.09527635936516873,2.8966072708751236,-3.425402243614355
2.222138593138575,25.0180767230105,-0.09756303574312956,2.8239280463792085,-3.22459530623512
2.1995208403990945,24.37656658070553,-0.09911307503496351,2.7544210171422803,-3.042325351319967
2.1766166780282723,23.750703166383445,-0.10005355427653181,2.6878695421801524,-2.876256605023554
2.1535542149087656,23.139829343942708,-0.10048960328439661,2.6240767399132268,-2.7244089036332433
2.130439438435269,22.543331251199916,-0.10050845300688045,2.562863196980598,-2.585095676683234
2.1073599583173612,21.96063450790222,-0.10018267845318404,2.504065005608064,-2.4568739846508048
2.084388077276434,21.391200843934968,-0.09957280885923044,2.4475320723680687,-2.3385040422851184
2.061583318888239,20.834525090519996,-0.09872943799463389,2.393126652979524,-2.2289162523897557
2.0389945156992684,20.29013248659726,-0.09769493756163623,2.34072207678342,-2.1271842209277803
2.0166615396808054,19.757576260149897,-0.09650485390325762,2.2902016314544853,-2.032502561981842
1.9946167406321038,19.236435450383595,-0.09518905086806088,2.241457583904648,-1.944168558555191
1.9728861452249478,18.726312941712532,-0.09377264832460061,2.1943903175828674,-1.8615669428162145
1.9514904591860585,18.226833684668726,-0.09227679549182817,2.1489075697545683,-1.784157212034712
1.9304459070289053,17.73764308231563,-0.09071931022254691,2.1049237550549926,-1.7114630150691847
1.90976493730656,17.258405523646807,-0.08911520910219516,2.0623593638043136,-1.643063236949161
1.889456816205579,16.788803047892813,-0.08747714829763974,2.021140425360844,-1.5785844819097699
1.8695281281629816,16.32853412572674,-0.08581579120320701,1.9811980282571873,-1.5176947127292868
1.8499831988517639,15.877312545118208,-0.08414011585086051,1.9424678900778625,-1.4600978498381008
1.8308244531798614,15.434866391088963,-0.08245767260046465,1.9048899710460134,-1.4055291700307846
1.8120527187539794,15.000937109913668,-0.08077480066807441,1.8684081261304653,-1.353751373728194
1.7936674834719484,14.575278649421431,-0.0790968104800227,1.8329697911933227,-1.3045512131480672
1.775667114445414,14.157656668015058,-0.07742813757679747,1.7985256992968883,-1.25773659264511
1.7580490442555394,13.74784780585934,-0.07577247276993818,1.7650296237962997,-1.2131340678037812
1.7408099295577868,13.345639012415962,-0.07413287242791049,1.7324381452765514,-1.170586682334354
1.7239457862377359,12.950826925136521,-0.07251185209427206,1.7007104397620618,-1.129952092004552
1.707452104646222,12.563217294680332,-0.07091146609280363,1.6698080859439224,-1.0911009331836288
1.6913239478831255,12.182624452510858,-0.069333375325427,1.6396948894428065,-1.0539154004381592
1.6755560356341503,11.808870817153409,-0.06777890510044478,1.6103367223611,-1.0182880032810138
1.6601428156771552,11.441786435774972,-0.0662490945255999,1.5817013765818408,-0.9841204768619143
1.6450785248504123,11.081208558081396,-0.06474473875042594,1.553758429449249,-0.9513228252796977
1.6303572410035276,10.726981239823441,-0.06326642513552642,1.526479120619924,-0.9198124794376019
1.6159729272236305,10.378954973466175,-0.061814564254883186,1.4998362390084872,-0.8895135540702053
1.601919469437431,10.036986343810227,-0.06038941649467762,1.473804018869322,-0.8603561908384569
1.588213500069489,9.700940468652526,-0.05879292583525155,1.4483340259802449,-0.8264911795233297
1.5748696562459563,9.370687731965518,-0.05724049871720708,1.4234289017328836,-0.7943374948679169
1.5618779010391473,9.046100758377172,-0.055731285689829414,1.3990665207744581,-0.7637867058377973
1.5492284002482088,8.727057132532678,-0.05426437336180935,1.375225877873309,-0.7347385564207511
1.5369115353528928,8.413439149631472,-0.052838799640938704,1.3518870169197916,-0.7071002521830688
1.5249179132307,8.105133581677752,-0.05145356663899859,1.3290309652864574,-0.6807858173330179
1.5132383731357573,7.802031458265866,-0.050107651577893667,1.3066396730777832,-0.6557155145276956
1.5018639913661243,7.504027860824568,-0.04880001598413395,1.2846959568465588,-0.6318153205999694
1.4907860839849705,7.211021729336714,-0.047529613417202625,1.2631834473956463,-0.6090164521986231
1.4799962079086613,6.922915680634318,-0.04629539594200824,1.2420865413208446,-0.587254936044852
1.4694861606298946,6.63961583744431,-0.04509631952553028,1.221390355983584,-0.5664712191268642
1.4592479788055652,6.361031667428563,-0.043931348512114846,1.2010806876316134,-0.5466098146942597
1.4492739359060243,6.087075831523528,-0.04279945930998025,1.1811439724121786,-0.5276189803858886
1.439556539094057,5.8176640409408655,-0.04169964340277902,1.1615672500457492,-0.5094504252382495
1.4300885254775715,5.552714922241414,-0.04063090978405153,1.1423381299494972,-0.49205904268407724
1.4208628578590559,5.292149889941072,-0.0395922868986926,1.1234447596186994,-0.47540266696930034
1.41187272008687,5.03589302614942,-0.038582824163793966,1.104875795091306,-0.4594418506968236
1.4031115120979534,4.783870966780249,-0.037601593131133954,1.0866203733362825,-0.44413966145257655
1.3945728447282075,4.536012793908256,-0.03664768834491625,1.0686680864201827,-0.42946149568722547
1.386250534355338,4.29224993387826,-0.03572022794090628,1.0510089573189165,-0.41537490821957834
1.3781385974290634,4.052516060802493,-0.034818354026699645,1.0336334172529804,-0.4018494558981907
1.3702312449350995,3.8167470051084145,-0.03394123287733409,1.0165322844346443,-0.3888565541087624
1.362522876832001,3.5848806668240734,-0.03308805497569641,0.9996967441248544,-0.37636934494898955
1.3550080764936427,3.3568569333105245,-0.03225803492307184,0.9831183299060183,-0.3643625760116706
1.3476887832700901,3.1327281660081,-0.03138799310782052,0.9658274727237579,-0.3722226467496387
1.340565092977938,2.912561680755097,-0.030557139867415567,0.9486637033893127,-0.3824385292153455
1.3336280148983917,2.6963286853714443,-0.029765278215595554,0.9316232129902624,-0.39487966026434695
1.3268686169157424,2.4840012455334843,-0.02901209554657236,0.91470235081809,-0.40941974540437404
1.3202780508467467,2.275552249256016,-0.028297174618608624,0.897897616812082,-0.42593644645212514
1.3138475753492704,2.0709553730463917,-0.027620003620315584,0.8812056545759628,-0.4443110822544455
1.3075685766130742,1.8701850496025578,-0.026979985390086763,0.8646232449356267,-0.4644283411528931
1.3014325870200971,1.6732164369338243,-0.026376445853193105,0.8481473000098693,-0.48617600393220406
1.2954313019473844,1.4800253887892083,-0.025808641735613796,0.831774857769389,-0.5094446760453917
1.2895565948727976,1.2905884262835343,-0.025275767608619083,0.8155030770625556,-0.5341275279515383
1.2838005309317637,1.1048827106160388,-0.024776962313414932,0.7993292330895656,-0.5601200424370589
1.2781553790624829,0.9228860167801294,-0.024311314810765663,0.7832507133096527,-0.5873197678175281
1.2726136228671596,0.744576708166079,-0.02387786949639351,0.767265013769038,-0.6156260759351746
1.2671679703078802,0.5699337119610028,-0.02347563101907907,0.7513697358403107,-0.6449399238768728
1.2618113623476932,0.39893649525216546,-0.02310356863472146,0.7355625833669766,-0.6751636183388191
1.2565369806401954,0.23156504174080794,-0.02276062012613004,0.7198413602100272,-0.7062005815568981
1.2513382543644676,0.0677998289740458,-0.022445695314980446,0.704203968196615,-0.7379551177057578
1.246208866296493,-0.09237819399810832,-0.0221576791891464,0.6886484054743044,-0.7703321786444504
1.2411427582032104,-0.2489876286346231,-0.02189543466548482,0.6731727652779744,-0.8032371278516914
1.236134135641096,-0.4020466486804253,-0.021657805005075394,0.6577752351203058,-0.8365755013487752
1.2311774722376028,-0.5515730218076698,-0.021443615894865493,0.6424540964209791,-0.8702527643522691
1.2262675135309324,-0.6975841312244242,-0.021251677206614795,0.6272077245942977,-0.9041740623310104
1.221399280441464,-0.8400969973590691,-0.021080784440937823,0.6120345896200167,-0.9382439650617446
1.216568072446733,-0.9791282997350663,-0.020929719861070235,0.5969332571277927,-0.972366202183954
1.2117694705311746,-1.114694399158438,-0.020797253317697995,0.5819023900319873,-1.006443388645942
1.2069993399819237,-1.2468113603495894,-0.020682142762745322,0.5669407507606605,-1.0403767383098552
1.2022538331028751,-1.3754949751620913,-0.0205831344463721,0.5520472041306421,-1.0740657638418167
1.197529391920976,-1.5007607865440349,-0.02049896278753343,0.5372207209297101,-1.1074079608534622
1.192822750961421,-1.6226241134128472,-0.020428349904247738,0.5224603822773319,-1.1402984740817426
1.1881309401721412,-1.7411000766321862,-0.020370004785142292,0.5077653848473437,-1.1726297431939088
1.1834512880827848,-1.856203626300335,-0.020322622078826402,0.4931350470495937,-1.2042911255834878
1.178781425289428,-1.9679495705836132,-0.020284880472103195,0.47856881628323683,-1.2351684932807747
1.1741192883636198,-2.076352606356302,-0.02025544062188061,0.4640662773923342,-1.2651438008388542
1.169463124293244,-2.1814273519410463,-0.02023294259877734,0.44962716247503,-1.2940946207758686
1.1648114955732218,-2.2831883822811108,-0.020216002792720515,0.4352513622212035,-1.3218936428608743
1.1601632860765108,-2.3816502669193085,-0.020203210222158693,0.4209389389805078,-1.3484081332322628
1.155517707850412,-2.4768276112083143,-0.020193122178700885,0.4066901417934834,-1.3734993490473626
1.1508743090001599,-2.5687351012346937,-0.020184259127840012,0.3925054236533006,-1.3970219040997702
1.1462329828414848,-2.657387553004881,-0.02017509877368202,0.3783854613048753,-1.4188230806379454
1.1415939785266997,-2.742799966517083,-0.02016406918096979,0.3643311779316414,-1.4387420825206954
1.1369579133753507,-2.8249875854289215,-0.02014954083076173,0.35034376912782705,-1.4566092249205933
1.1323257871711818,-2.903965963128165,-0.02012981746635908,0.3364247326047473,-1.472245056135384
1.127698998722837,-2.9797510361228277,-0.020103125562726573,0.3225759021314786,-1.485459407836927
1.1230793650272886,-3.0523592057878304,-0.020067602224650566,0.30879948625985787,-1.4960503714917377
1.1184691434237184,-3.121807429636597,-0.020021281284655478,0.29509811242509376,-1.5038032010397464
1.1138710571831618,-3.1881133234246875,-0.019962077328879477,0.2814748770365816,-1.508489145675242
1.1092883250480774,-3.251295275532634,-0.01988776732402819,0.26793340216297046,-1.5098642224028151
1.1047246953195913,-3.3113725752061782,-0.01979596944541715,0.2544778993460914,-1.5076679469157543
1.1001844851937035,-3.3683655563357178,-0.019684118605780968,0.2411132409107844,-1.5016220546898233
1.0956726261791958,-3.4222957585037292,-0.01954943804211119,0.22784503881108076,-1.4914292640875613
1.0911947166018128,-3.4731861069714967,-0.0193889061090459,0.2146797304738697,-1.4767721627799406
1.0867570824313453,-3.5210611130404814,-0.019199217112411262,0.20162467012599372,-1.457312342373774
1.0823668479925335,-3.5659470956928487,-0.018976734529431525,0.1886882225032775,-1.432689970274591
1.0780320185894385,-3.6078724244122284,-0.018717434193132487,0.17587985331743566,-1.402524081880203
1.0737615777720233,-3.646867781340326,-0.018416833784390935,0.16321020692689042,-1.3664140134969325
1.0695656030452925,-3.6829664380368143,-0.018069902969790365,0.15069115565125213,-1.3239425952975974
1.0654554055016354,-3.716204537498534,-0.01767094523592307,0.13833579618978747,-1.274682008386601
1.061443701538499,-3.7466213649512383,-0.01721343705222009,0.12615835557286575,-1.2182036093269637
1.0575448291568925,-3.7742595802078682,-0.01668980104870631,0.11417395100653821,-1.1540935656215119
1.0537750283925074,-3.79916536892906,-0.016091075163337947,0.10239812482992712,-1.081976829211808
1.0501528169517143,-3.8213884491162347,-0.01540641562616725,0.09084605071073198,-1.0015527268556332
1.0466995108928276,-3.840981843463126,-0.01462233271197649,0.07953129143612038,-0.9126459913065395
1.0434399705912252,-3.858001303339691,-0.013721495997610156,0.06846401183835187,-0.815276677889806
1.0404037012440375,-3.872504262688274,-0.012680846151847287,0.05764867814929937,-0.7097495514222949
1.0376265172595982,-3.8845482483321803,-0.011468579799799162,0.04708163179770079,-0.5967554232166149
1.0351531204628743,-3.894188852343021,-0.010039218432582002,0.036749707427020176,-0.4774601430770884
1.0330412407103378,-3.901477811783778,-0.008324953328605793,0.026632548579552728,-0.35353106732417017
1.0313688527374487,-3.9064626945779466,-0.006217550783472586,0.016714258326273428,-0.22702640406388946
1.0302495964418592,-3.909192250626141,-0.003515112656436894,0.007021011658003581,-0.10007547743166065
