x,y,v_x,v_y,omega
2.375,32.48,0.0,2.2564102564102564,-5.428571428571429
2.3740419667287154,32.01088101141914,-0.009124126393185515,2.2113896348360074,-5.151587476129544
2.3712832792477014,31.55106234109433,-0.017149087711710635,2.167835796828861,-4.895217723393262
2.3669416604212103,31.100244679436404,-0.024199663016777867,2.1256657427704098,-4.657423315236047
2.36121026164937,30.658145424778645,-0.030385087191223393,2.0848033492082494,-4.436408562322019
2.3542606983680567,30.224497322692336,-0.03580122977366551,2.0451785754232557,-4.230587279053717
2.3462456642927823,29.799047259489406,-0.04053242808609106,2.0067267884141997,-4.0385544393781645
2.337301190475847,29.381555187276376,-0.04465303683709888,1.9693881850432295,-3.8590622014635696
2.3275486035148303,28.971793161931295,-0.04822874374401727,1.9331072944337317,-3.6909995419430754
2.317096227871363,28.569544478572382,-0.05131769095566892,1.8978325470797264,-3.5333748880253877
2.3060408697038204,28.174602891655013,-0.0539714344494977,1.8635158997523311,-3.3853012515497776
2.2944691134890016,27.786771908909206,-0.05623576759639729,1.8301125073506188,-3.245983460554382
2.2824584577048146,27.405864150017724,-0.058151430348241474,1.7975804344730169,-3.114707156729004
2.270078311737539,27.031700762316156,-0.05975472172104644,1.7658804007800133,-2.990829285430171
2.2573908727850824,26.66411088693259,-0.061078030207113894,1.7349755552539627,-2.8737698519161627
2.2444518987127795,26.302931169725053,-0.062150294291011515,1.704831275293987,-2.763004755527739
2.2313113904716104,25.948005312157225,-0.06299740324393185,1.6754149872567607,-2.6580595445503565
2.21801419572388,25.59918365790718,-0.06364254673445251,1.6466960056008153,-2.5585039598798947
2.2046005436697267,25.256322811554025,-0.06410652044796042,1.6186453882387604,-2.463947156492995
2.19110651967421,24.91928528615174,-0.06440799379505646,1.5912358060686798,-2.3740335089705766
2.1775644871147555,24.58793917689387,-0.0645637448664124,1.564441424958671,-2.2884389216292864
2.164003462866422,24.262157858408713,-0.06458886702247514,1.5382377987094775,-2.2068675757283858
2.1504494519884476,23.94181970351265,-0.06449695086299766,1.5126017717292248,-2.129049056175656
2.1369257464458133,23.62680782149652,-0.06430024478113998,1.4875113903291852,-2.0547358085056917
2.1234736491530395,23.31701588588944,-0.06381496753098961,1.4628879964048767,-1.9785633059781749
2.1101297243929906,23.012341510947888,-0.06327003018376275,1.4387727173242062,-1.9060136330665685
2.0969057214850393,22.712679985261552,-0.06267285465386742,1.4151465749266323,-1.8368702270691353
2.083811909986967,22.41793048569898,-0.06203011199444281,1.3919915161454743,-1.7709319422960519
2.0708572293504055,22.127995889185936,-0.06134779882994972,1.3692903554073266,-1.7080117767614664
2.0580494233884585,21.8427825961206,-0.06063130556954759,1.3470267214054068,-1.6479357183575962
2.04539516118211,21.562200364548765,-0.05988547734805787,1.3251850078501757,-1.5905416979569114
2.032900145865552,21.286162154301014,-0.0591146685239255,1.3037503278426832,-1.5356786383493732
2.02056921256704,21.01458398036446,-0.05832279146189765,1.2827084715530717,-1.4832055891958684
2.008406416638354,20.747384774824873,-0.057513360239875,1.2620458669192083,-1.432990939292447
1.9964151131796894,20.484486256771895,-0.056689529842644824,1.2417495431091279,-1.3849116984148553
1.9845980287556844,20.22581280961122,-0.055854131338357114,1.2218070965163546,-1.3388528418679613
1.9729573261002522,19.971291365273636,-0.05500970347528306,1.2022066590796645,-1.294706711616027
1.9614946625213772,19.720851294852693,-0.054158521085430116,1.1829368687388362,-1.2523724685311255
1.9502112426405238,19.47442430524027,-0.053302620636983954,1.1639868418557149,-1.211755590880056
1.9391078660336027,19.23194434136361,-0.052443823238453764,1.1453461474457776,-1.1727674146849687
1.9281849702804412,18.993347493658455,-0.05158375536308379,1.1270047830795495,-1.1353247120482721
1.9174426698764644,18.758571910440878,-0.0507238675319357,1.1089531523259086,-1.0993493039357094
1.906880791413023,18.52755771486649,-0.0498654511675052,1.0911820436206865,-1.0647677042692556
1.8964989053907684,18.300246926188628,-0.04900965380634801,1.0736826104541881,-1.0315107924992768
1.8862963549930534,18.07658338504899,-0.048157492838556304,1.0564463527804473,-0.9995135121080752
1.8762722821130167,17.856512682553316,-0.047309867923699324,1.0394650995593155,-0.9687145927487251
1.8664256508982722,17.63998209290284,-0.04646757221672322,1.0227309923499628,-0.9390562939476643
1.8567552690505977,17.426940509368578,-0.04563130252303448,1.0062364698811235,-0.9104841685000292
1.847259807094298,17.217338383410457,-0.04480166848934323,0.989974253529544,-0.8829468438660155
1.8379448450955147,17.011283923234117,-0.04391225530859354,0.9724491767212794,-0.8859917967851887
1.8288133797011157,16.8088968275244,-0.043054081780920975,0.9550469728950962,-0.8913222696603634
1.8198588496796066,16.610151664737042,-0.04222715651916624,0.937764101270209,-0.8988100603144427
1.8110747040839503,16.41502373145822,-0.0414313729632737,0.920597168051908,-0.9083307157117594
1.802454425405264,16.223489022207605,-0.04066651921469311,0.9035429200491684,-0.91976324683495
1.7939915507425526,16.035524200528883,-0.039932287096842954,0.8865982387957931,-0.9329898539235283
1.785679691145191,15.851106571264399,-0.03922828049707504,0.8697601351516635,-0.9478956609377172
1.7775125492736867,15.670214053915288,-0.03855402304106217,0.8530257443636801,-0.964368458154219
1.769483935514011,15.492825156992367,-0.03790896514632492,0.8363923215688903,-0.9822984518361425
1.76158778267139,15.318918953266493,-0.03729249049768645,0.8198572377251392,-1.0015780199475093
1.7538181593608373,15.148475055829831,-0.036703921983765264,0.803417975957376,-1.022101472903793
1.7461692822038757,14.981473594881699,-0.036142527130155463,0.7870721283105389,-1.0437648183639094
1.7386355269337335,14.817895195154303,-0.03560752306167592,0.7708173929027452,-1.0664655290760057
1.7312114385048458,14.6577209538946,-0.035098081022967235,0.7546515714753727,-1.0901023127892508
1.72389174029664,14.500932419319032,-0.03461333048375448,0.7385725673395611,-1.1145748832365279
1.7166713424963596,14.347511569457595,-0.03415236285225002,0.7225783837217323,-1.139783731178278
1.709545349741044,14.19744079130285,-0.03371423481742042,0.7066671225139529,-1.1656298944755643
1.702509068094708,14.050702860177854,-0.03329797133816187,0.6908369834384017,-1.1920147261303942
1.6955580114332474,13.907280919234736,-0.03290256829479528,0.6750862636388939,-1.2188396591931456
1.6886879073066474,13.76715845899243,-0.03252699481568179,0.6594133577164109,-1.246005967390211
1.6818947023456405,13.630319296818062,-0.03217019528914715,0.6438167582299513,-1.273414520269255
1.6751745672781122,13.496747556251592,-0.031831091068263324,0.6282950566888215,-1.3009655315943756
1.668523901619244,13.366427646067148,-0.031508581873340796,0.6128469450677908,-1.328558299648482
1.6619393380986516,13.239344238957372,-0.031201546894206594,0.5974712178824497,-1.35609093801497
1.6554177468876574,13.1154822497185,-0.030908845591450015,0.5821667748687003,-1.3834600953149345
1.648956239690314,12.994826812803929,-0.03062931819277641,0.566932624317704,-1.4105606622695148
1.642552173762947,12.87736325910235,-0.03036178587738286,0.5517678871259196,-1.4372854643395474
1.6362031559288512,12.76307709178306,-0.0301050506378168,0.5366718016292189,-1.4635249380669044
1.6299070466573498,12.651953961035428,-0.02985789480505442,0.5216437293006071,-1.48916678910462
1.6236619642798775,12.543979637511551,-0.02961908021848854,0.5066831614029658,-1.514095629777891
1.6174662894200371,12.43913998426057,-0.02938734701808715,0.49178972670162197,-1.5381925938680936
1.6113186697198718,12.337420926919457,-0.029161412031106133,0.47696320035660844,-1.561334926161556
1.6052180249509707,12.23880842189822,-0.028939966720334116,0.46220351413136285,-1.5833955441606808
1.5991635526065795,12.143288422266714,-0.028721674654819052,0.4475107680734533,-1.604242569227117
1.5931547340798113,12.050846841015403,-0.028505168457260376,0.4328852438438016,-1.623738824329459
1.5871913415434653,11.961469511322957,-0.028289046174604864,0.418327419893796,-1.6417412955222925
1.5812734456591158,11.875142143419087,-0.02807186700967634,0.40383798871450033,-1.6581005543189373
1.5754014242572254,11.791850277581172,-0.0278521463416614,0.3894178764084967,-1.6726601382791564
1.5695759721464282,11.71157923274777,-0.027628349951645773,0.37506826486200096,-1.6852558874749235
1.563798112229156,11.634314050171007,-0.02739888735570905,0.36079061682147134,-1.6957152351061113
1.558069208122976,11.560039431463455,-0.027162104131718875,0.3465867042028475,-1.7038564515320067
1.5523909785130128,11.488739670324318,-0.026916273106026574,0.33245863997940744,-1.7094878425305478
1.5467655134915284,11.420398577156405,-0.026659584241444625,0.3184089140007164,-1.7124069049298478
1.5411952931773725,11.354999395712703,-0.02639013303623084,0.30444043308216584,-1.7123994462067156
1.5356832089523196,11.292524710844784,-0.026105907202368064,0.2905565656599233,-1.7092386796810348
1.5302325877058212,11.232956346373296,-0.025804771335713413,0.2767611912113897,-1.7026843142113843
1.524847219548136,11.176275252076831,-0.025484449213667132,0.2630587544692199,-1.6924816677455043
1.5195313895397535,11.122461378819995,-0.025142503247117372,0.24945432416731617,-1.6783608490105404
1.5142899141009538,11.07149354094539,-0.024776310455738897,0.23595365559084489,-1.660036072889837
1.5091281829223022,11.02334926528366,-0.024383034102848096,0.22256325547324937,-1.6372052052189492
1.5040522074149933,10.978004626558874,-0.023959589776282236,0.20929044666757343,-1.6095496754607608
1.49906867705071,10.935434069682927,-0.023502604169275663,0.19614342834145518,-1.5767349559770505
1.4941850253933924,10.895610220586157,-0.02300836399565334,0.18313132496110274,-1.538411891153347
1.489409508297686,10.858503689025376,-0.02247275120155191,0.17026421371300327,-1.4942192773034355
1.4847512977632378,10.824082869526055,-0.021891158650334315,0.1575531148519511,-1.4437882560240978
1.4802205964833162,10.79231375062497,-0.02125837734892049,0.14500992230123863,-1.386749301544331
1.4758287805129173,10.763159748342577,-0.02056844141678304,0.13264724229297858,-1.3227428663632987
1.4715885811768816,10.736581587822648,-0.019814409402603334,0.12047809599203994,-1.2514350976859283
1.4675143230678547,10.71253726767527,-0.018988048778605833,0.10851542922110519,-1.172540417155461
1.463622243846169,10.690982154504045,-0.01807937238030575,0.09677136288578006,-1.0858530625198983
1.459930935186987,10.671869268591085,-0.01707594818333203,0.08525612199956581,-0.9912896654423778
1.4564619650616613,10.655149830516269,-0.015961862534054957,0.07397662157012103,-0.8889440507281654
1.4532407734199944,10.640774130668706,-0.014716153100868535,0.06293480554952371,-0.7791527311091673
1.45029798346139,10.628692735827268,-0.013310417933456891,0.052126097702250664,-0.6625636576546945
1.4476713572078992,10.618857919241918,-0.01170507019502839,0.04153882215821332,-0.5401904920300864
1.4454088056889944,10.61122492998075,-0.009843039508826664,0.031156313662426906,-0.41342102633591127
1.4435733614303916,10.605752182091287,-0.0076373820016767445,0.020965094808654338,-0.28393774966216434
1.4422528341005199,10.602398155868208,-0.0049390687590063105,0.01097801207781976,-0.15351268190114356
1.441586996940098,10.601106785339486,-0.0014022375307236245,0.001320754862398174,-0.02369094890189291
