x,y,v_x,v_y,omega
2.375,32.48,0.0,3.5897435897435894,-5.551020408163265
2.372978629601798,31.666690506886074,-0.017577133897409968,3.482512872116625,-5.084183876976383
2.367300249578933,30.87736742900739,-0.03180008369272271,3.3811660659588796,-4.676919318668601
2.358665165325882,30.11073604599818,-0.043287605464236885,3.2851937862950975,-4.319521376200908
2.3476455612365235,29.365611719801315,-0.05253503879105807,3.194148180634197,-4.004138936759189
2.3347107826396565,28.640906885776605,-0.05994129683387066,3.107632984798053,-3.7243740875845166
2.3202471541456484,27.93562009373398,-0.0658293857227231,3.0252956416595405,-3.474977485979791
2.3045736274817212,27.248826684423307,-0.070462150485338,2.946820961041959,-3.2516146623205495
2.2879542174326253,26.579670789445494,-0.07405445863723391,2.871925951808612,-3.0506851226720038
2.270607944404222,25.927358415562374,-0.07678269813149159,2.800355560218517,-2.869181167354185
2.2527168274112395,25.291151427400507,-0.0787922322422697,2.731879119449885,-2.7045768686976914
2.2344323426358903,24.670362281717317,-0.08020328754337433,2.6662873647517715,-2.5547401500575044
2.2158806669714233,24.064349395815704,-0.0811156312780788,2.603389903957897,-2.4178627013652476
2.1971669540621814,23.472513055120118,-0.08161230706315449,2.5430130586124178,-2.292403768235495
2.1783788358922416,22.894291782264176,-0.08176263354501868,2.484998009700108,-2.1770448064968786
2.1595893014108674,22.329159103615368,-0.08162462281475767,2.4291991959417074,-2.0706527011143527
2.1408590717387797,21.776620659917743,-0.081246939551223,2.3754829231680863,-1.9722497766778664
2.1222385667893526,21.236211616346807,-0.08067049479162092,2.32372615136177,-1.8809892244011008
2.1037695389100475,20.707494334236394,-0.07992974763711876,2.273815432207062,-1.7961348723619188
2.0854864341018455,20.190056272420748,-0.07905377243420363,2.2256459748855058,-1.7170444562867015
2.0674175295368467,19.683508090810456,-0.07806713682665324,2.17912082172571,-1.6431557254961404
2.0495858867355237,19.187481932695007,-0.07699062666311522,2.1341501184086282,-1.5739748558327702
2.0320101523314196,18.701629865497218,-0.07584184641604838,2.0906504659200134,-1.5090667481742255
2.014705232420097,18.225622462418038,-0.07463571803023428,2.048544343464127,-1.4480468747043462
1.997682861736927,17.75914750970085,-0.07338489660602629,2.007759593207099,-1.3905744008575744
1.98095208508524,17.30190882618774,-0.07210011775647052,1.9682289590807984,-1.3363463628313426
1.9645196653487873,16.853625183497616,-0.07079048864746562,1.9298896730072517,-1.28509272185436
1.9483904299197048,16.414029316574624,-0.06946373247499205,1.892683082844873,-1.2365721493526936
1.932567565337217,15.98286701557561,-0.06812639432924993,1.856554317146557,-1.1905684235696745
1.9170528682704893,15.5598962911181,-0.06678401494664289,1.8214519824839643,-1.146887339456872
1.9018469596181122,15.144886605822194,-0.06544127768272257,1.7873278896543459,-1.1053540508361392
1.8869494673787157,14.737618165872114,-0.06410213309463833,1.7541368055637498,-1.0658107777734989
1.872359183026,14.337881267013689,-0.06276990475506267,1.72183622798778,-1.0281148234585364
1.8580741953601945,13.945475690007715,-0.06144737929542036,1.6903861807598046,-0.9921368541619208
1.8440920051770755,13.56021014108818,-0.06013688316648459,1.659749027236145,-0.9577594034540686
1.8304096235714482,13.181901733439233,-0.05884034818679534,1.6298893001460149,-0.9248755681309908
1.8170236562552482,12.810375506114354,-0.057559367606246824,1.6007735461572865,-0.8933878684644179
1.8039303759056378,12.445463977182747,-0.05629524412949659,1.572370183682765,-0.8632072496763386
1.7911257842530617,12.087006728207928,-0.05504903111029601,1.5446493726200003,-0.834252205096487
1.7786056653629236,11.734850017447219,-0.05382156793438058,1.5175828948644206,-0.8064480044265144
1.7663656313489617,11.388846419412971,-0.052613510447897374,1.4911440445638149,-0.7797260130125994
1.7544218813482497,11.048856652789954,-0.05124518521046687,1.4652887086798174,-0.7487875212913263
1.7427887246512321,10.714746940858657,-0.04991269911142614,1.4400131342010354,-0.7194270519326944
1.7314579727438884,10.386386567828616,-0.04861557834373613,1.41529445736455,-0.6915437486222911
1.7204215558193718,10.063649942530027,-0.04735326447814812,1.391110980014491,-0.6650444239391231
1.709671540327768,9.746416338870006,-0.04612513110101343,1.3674420952900372,-0.6398428845471236
1.6992001429813692,9.434569652732307,-0.04493049799810742,1.3442682189508248,-0.6158593236122534
1.6889997417397304,9.12799817408094,-0.043768643233533536,1.3215707258436702,-0.5930197729847536
1.6790628842243376,8.82659437313654,-0.04263881342205731,1.299331891064139,-0.5712556085967426
1.669382293949031,8.53025469959195,-0.04154023245017284,1.2775348354105553,-0.5505031033149693
1.659950874697831,8.238879393921504,-0.040472108864609835,1.2561634747672346,-0.5307030221744968
1.6507617133350796,7.952372309918079,-0.039433642115836935,1.2352024730886377,-0.5118002555160921
1.6418080812927391,7.670640747663846,-0.03842402781755927,1.2146371986873121,-0.4937434860706001
1.633083434945258,7.393595296205827,-0.037442462160538106,1.1944536835563204,-0.47648488648816817
1.6245814150528326,7.121149685266445,-0.03648814559968339,1.1746385854817976,-0.45997984420788024
1.6162958454284384,6.853220645372822,-0.03556028591678757,1.155179152723612,-0.444186710911849
1.6082207309620955,6.589727775837456,-0.0346581007470614,1.1360631910621717,-0.4290665741136781
1.6003502551169573,6.330593420067149,-0.03378081964544554,1.1172790330274458,-0.4145830487000763
1.592678776995537,6.075742547717606,-0.03292768575820709,1.0988155091424978,-0.400702086481121
1.5852008280603647,5.825102643247945,-0.03209795715633507,1.0806619210284647,-0.38739180201337947
1.5779111085812427,5.578603600463094,-0.03129090787950919,1.0628080162311058,-0.3746223131443902
1.5708044838708328,5.336177622662802,-0.03050582873275097,1.045243964640981,-0.3623655948899661
1.5638759803612725,5.097759128044228,-0.029742027872120817,1.0279603363901058,-0.3505953454000804
1.557120781566729,4.863284660030828,-0.0289988312108682,1.0109480811176987,-0.33928686289704235
1.5505342239700652,4.632692802224046,-0.028275582673163033,0.9941985085065058,-0.32841693258326793
1.5441178492251497,4.40602405323061,-0.02751898032610148,0.976834091436416,-0.3355030581892853
1.5378715264264429,4.183334273126871,-0.026796870097438658,0.959598779030884,-0.3449990707850944
1.531787311353681,3.964594214718854,-0.02610934792657624,0.9424886853866523,-0.3567734590165645
1.525857252989943,3.749775506052032,-0.025456376975494976,0.9255000856291982,-0.37069907145380143
1.5200734226692378,3.5388506142682914,-0.024837799726288006,0.9086294081424694,-0.3866528038465983
1.5144279405557124,3.3317928111834654,-0.024253349086976635,0.8918732273777631,-0.4045152996588479
1.508912999673833,3.1285761404559764,-0.023702658581540217,0.8752282572090864,-0.42417066257457625
1.5035208876921704,2.929175386224255,-0.023185271693785644,0.8586913448058711,-0.44550617973047957
1.498244006648067,2.733566043096893,-0.022700650428854944,0.8422594649972638,-0.46841205448301737
1.4930748907864098,2.5417242873850867,-0.022248183150772424,0.82592971510541,-0.49278114756261804
1.4880062226728876,2.3536269494717175,-0.02182719174942061,0.8096993102282362,-0.5185087255036975
1.4830308477303527,2.169251487215618,-0.021436938185665173,0.7935655789552291,-0.5454922152671839
1.478141787336218,1.988575960292959,-0.021076630458984304,0.7775259595026647,-0.573630963992195
1.4733322506090807,1.8115790053805192,-0.020745428037861776,0.7615779962576655,-0.6028260028254715
1.4685956450039523,1.6382398120876935,-0.02044244678934025,0.7457193367234151,-0.6329798137810558
1.4639255858275242,1.4685380995455013,-0.020166763440470196,0.7299477288608597,-0.6639960985783884
1.4593159047777668,1.3024540935615896,-0.01991741960089776,0.7142610188253219,-0.6957795483942153
1.4547606576058283,1.1399685042502163,-0.019693425372481588,0.6986571490996772,-0.7282356134421425
1.4502541309926058,0.9810625040454006,-0.019493762568582967,0.6831341570291583,-0.761270271262877
1.4457908487275306,0.8257177060038998,-0.019317387562505183,0.6676901737664908,-0.7947897925676458
1.4413655772729776,0.6739161423021542,-0.019163233781435227,0.6523234236400011,-0.8287005034263093
1.4369733307943124,0.5256402428279685,-0.019030213859131898,0.6370322239616225,-0.8629085425295522
1.4326093757329024,0.38087281376328974,-0.018917221457475392,0.6218149852964482,-0.8973196121803466
1.4282692349974546,0.239597016048819,-0.018823132763808988,0.6066702122207095,-0.9318387215826649
1.4239486918478281,0.10179634361433187,-0.018746807667725914,0.5915965046009087,-0.9663699208940724
1.4196437935450223,-0.03254539874961182,-0.018687090617542985,0.5765925594334006,-1.0008160243921473
1.4153508548413969,-0.1634441180129329,-0.018642811153112598,0.5616571732911421,-1.0350783209713792
1.4110664613863912,-0.2909154561661822,-0.018612784107807697,0.5467892454327541,-1.0690562700359436
1.4067874731251253,-0.41497481427938965,-0.01859580946841624,0.5319877816386352,-1.1026471806832283
1.4025110277703745,-0.535637377535565,-0.0185906718772425,0.5172518988498352,-1.135745871881917
1.3982345444325672,-0.6529181414335596,-0.018596139755865097,0.5025808306979582,-1.1682443111358172
1.3939557274978056,-0.7668319393771341,-0.01861096402467005,0.487973934028783,-1.200031228889791
1.3896725708505353,-0.877393471892411,-0.018633876386375665,0.47343069653884856,-1.23099170567716
1.3853833625455545,-0.9846173377456537,-0.018663587135196613,0.45895074566328536,-1.2610067287299322
1.3810866900437233,-1.0885180672675574,-0.018698782445944966,0.44453385887503727,-1.289952714476922
1.3767814461371923,-1.1891101582299655,-0.018738121089105587,0.43017997558070165,-1.3177009930456376
1.3724668357034564,-1.2864081146668411,-0.018780230508600032,0.41588921082691616,-1.3441172505707477
1.368142383443303,-1.380426489084286,-0.018823702188385628,0.40166187106393775,-1.3690609248096406
1.363807942776108,-1.4711799285654052,-0.018867086222006193,0.3874984722501271,-1.392384549296751
1.3594637060872508,-1.5586832253457814,-0.01890888498544809,0.3733997606227,-1.4139330410674988
1.3551102165471751,-1.6429513725156184,-0.01894754579781833,0.3593667365063179,-1.433542926901564
1.3507483817502854,-1.7239996255957095,-0.018981452436004832,0.34540068158144754,-1.4510415031505195
1.3463794894551246,-1.8018435708376757,-0.0190089153480024,0.3315031900878085,-1.466245924639539
1.3420052257459265,-1.8764992012144006,-0.01902816038415609,0.3176762044924062,-1.4789622190328024
1.3376276959807254,-1.9479830011943235,-0.019037315834984775,0.3039220562025667,-1.4889842246700666
1.3332494489441291,-2.0163120415313074,-0.01903439752672161,0.2902435119451428,-1.496092452572726
1.328873504685524,-2.0815040854470084,-0.01901729167853959,0.27664382645227414,-1.500052877600935
1.3245033865985842,-2.1435777077274665,-0.018983735164414255,0.26312680207343897,-1.500615670379281
1.3201431583894547,-2.2025524283879676,-0.018931292741059338,0.24969685584399035,-1.497513891711116
1.3157974666948056,-2.2584488626587103,-0.018857330690672653,0.2363590943363794,-1.490462186405011
1.3114715902562895,-2.311288889073964,-0.01875898616598902,0.2231193962310723,-1.4791555361390598
1.3071714967492105,-2.361095837354519,-0.018633131286870802,0.2099845018606846,-1.4632681647082535
1.302903908623565,-2.407894697469679,-0.01847633067526407,0.19696210783637322,-1.4424527388877701
1.2986763796826137,-2.4517123506167735,-0.018284790550398018,0.18406096300790778,-1.4163400817043659
1.2944973846594587,-2.492577821654848,-0.018054296607471237,0.17129095906231906,-1.3845397229641336
1.2903764248577623,-2.530522550462557,-0.0177801364507583,0.15866320448296448,-1.346641769780159
1.2863241541686072,-2.5655806762923135,-0.017456999976677316,0.1461900636018905,-1.302220808638901
1.2823525317450415,-2.597789323794693,-0.01707884718476434,0.13388513207097635,-1.250842877465861
1.2784750107824365,-2.627188871067844,-0.0166387264031043,0.12176310508683634,-1.192077002207385
1.2747067780038555,-2.653823167688806,-0.016128515149773662,0.10983947422589163,-1.12551340210356
1.271065066884468,-2.6777396530093256,-0.01553853806229028,0.09812996334381904,-1.050791219127648
1.2675695814828603,-2.6989893014958852,-0.014856987169082151,0.08664958871323475,-0.9676393978708483
1.2642430903652364,-2.717626294455698,-0.014069022549386226,0.07541121963296811,-0.8759347380857784
1.2611122868746685,-2.7337072945371474,-0.013155355629465522,0.06442356368396168,-0.7757801866268146
1.2582090717031027,-2.74729020393503,-0.012089993688497684,0.05368869194979956,-0.6676021109940199
1.2555725132971127,-2.7584323701455418,-0.010836601146198024,0.04319970988075841,-0.5522542871739206
1.2532519260961066,-2.7671884600801704,-0.00934241799298626,0.03294020259426991,-0.4310953449738478
1.2513119399314991,-2.7736088191164896,-0.007527026916642937,0.022889006417225254,-0.30597767868276404
1.2498418586426518,-2.7777404625030826,-0.005256288638550898,0.013038327379260063,-0.17906604619514804
1.2489786721387155,-2.7796373523727382,-0.0022496809608959847,0.0034563671394820857,-0.05242691458824869
