x,y,v_x,v_y,omega
2.375,32.48,0.0,2.871794871794872,-3.7142857142857144
2.3742859496476156,31.94025309896615,-0.0075163194987822235,2.809751454877202,-3.500842607322665
2.3722400039000027,31.41208160143876,-0.014019951528720907,2.7499485190953283,-3.305543482247244
2.3690422646959193,30.895072278588277,-0.019640461145841587,2.692254879330811,-3.126371505487335
2.3648499241713115,30.38883582398563,-0.0244894391131886,2.6365499059602064,-2.9615760827704376
2.3598004188201034,29.893004954905848,-0.02866324879426716,2.5827224001427402,-2.809632760730683
2.354014105631761,29.40723271269903,-0.03224531108301902,2.5306696230869425,-2.6692098811226344
2.347596539879615,28.9311909354532,-0.0353080126237817,2.480296453184961,-2.5391407313741703
2.3406404196722885,28.464568880636396,-0.037914305348075814,2.431514650149806,-2.4184001913998125
2.3332272507305314,28.007071978984953,-0.04011905193358084,2.3842422093390843,-2.306085075840752
2.325428775477399,27.55842070380072,-0.04197016125728698,2.3384027926001716,-2.2013975269289285
2.3173082029466348,27.118349542181345,-0.04350954959286179,2.2939252244458923,-2.103630936145624
2.3089212698500248,26.686606056647804,-0.044773956687241684,2.2507430443282272,-2.012157970341097
2.3003171581111896,26.26295002723932,-0.04579564056365212,2.208794107340038,-1.9264203557079016
2.2915392900459484,25.847152665483584,-0.04660297064941624,2.1680202269308815,-1.8459201352870092
2.2826260189715923,25.43899589277234,-0.04722093539643673,2.1283668542401015,-1.7702121658425458
2.273611230219824,25.038271676618955,-0.04767157778007144,2.0897827894797465,-1.6988976605149775
2.2645248652000705,24.644781419077717,-0.04797436979628082,2.052219921480639,-1.6316186166265492
2.2553933792231136,24.258335392289716,-0.048146535224317714,2.0156329920772733,-1.5680529949035937
2.2462401421786256,23.87875221670729,-0.04820332840187491,1.979979382474557,-1.5079105384019855
2.2370857898072307,23.50585837805486,-0.04815827550754432,1.9452189191300067,-1.4509291375227642
2.227948532171978,23.139487779521247,-0.048023383810901876,1.9113136970132498,-1.3968716624352717
2.218844424978105,22.779481326058708,-0.047809323493024726,1.8782279183819377,-1.345523196581767
2.209787608583171,22.425686537994814,-0.04752558592733741,1.8459277454484906,-1.2966886151969856
2.2007905188570267,22.077957191453496,-0.047180621716283705,1.8143811655127584,-1.2501904613207337
2.1918640734721553,21.73615298333557,-0.04678196128236472,1.783557867307506,-1.2058670789190882
2.183017836712758,21.400139218833473,-0.046336320395498114,1.7534291274513971,-1.1635709687089006
2.174260165471673,21.06978651965258,-0.0458496926685529,1.723967706031684,-1.1231673373028175
2.165598338746154,20.74497055128689,-0.04532743075796759,1.6951477504493142,-1.0845328145222097
2.157038672637204,20.42557176785246,-0.04477431775729176,1.6669447067552128,-1.0475543172973905
2.1485866225944963,20.11147517312064,-0.0441946300606856,1.6393352377902781,-1.0121280415981622
2.1402468744232443,19.802570096516643,-0.04359219279459866,1.6122971475149106,-0.9781585664034326
2.132023425375192,19.4987499829598,-0.04297042876384754,1.585809310978192,-0.9455580559007843
2.123919656478387,19.199912195520696,-0.04233240172883675,1.5598516094333978,-0.914245547967008
2.1159383971157326,18.905957829959668,-0.04168085472015681,1.5344048701564137,-0.884146318569729
2.1080819827371005,18.61679154029087,-0.04101824400228812,1.5094508105677429,-0.8551913130907373
2.100352306481252,18.332321374588638,-0.040346769217166824,1.4849719862978856,-0.82731663673878
2.092756506545463,18.052459984718233,-0.03960901958061479,1.460937380758961,-0.7985910250109542
2.0853005061311527,17.777123038707167,-0.03887519530686146,1.437346261462804,-0.7711250262194869
2.0779834587530432,17.506227723690365,-0.038146356041660126,1.414183370292985,-0.7448489124767561
2.0708043301801804,17.239694062403082,-0.03742341840952786,1.3914341169415998,-0.719697544628108
2.0637619241210077,16.977444789798845,-0.036707171687026516,1.369084542050347,-0.6956100221743138
2.0568549050928606,16.71940523644067,-0.03599829176715118,1.3471212827725259,-0.672529363466588
2.050081818782144,16.465503218223052,-0.035297353608812865,1.3255315405708397,-0.6504022132537268
2.0434411101668024,16.21566893201603,-0.03460484234215427,1.3043030510820304,-0.629178574971303
2.036931139642184,15.969834856853314,-0.0339211631801416,1.2834240558939323,-0.6088115654372513
2.030550197364503,15.72793566031449,-0.0332466502691349,1.262883276093678,-0.5892571898611133
2.0242965160023516,15.489908109777112,-0.03258157459561225,1.2426698874576825,-0.5704741352895852
2.01816828206577,15.255690988237976,-0.031926151052618625,1.222773497164795,-0.5524235808022043
2.0121636459638017,15.025225014424564,-0.03128054475757498,1.2031841219237625,-0.5350690229409638
2.0062807309250847,14.79845276693738,-0.030644876702601402,1.1838921674150111,-0.5183761150089121
2.000517640901455,14.575318612182247,-0.030019228809292118,1.1648884089547926,-0.5023125190075918
1.994872467561654,14.35576863586832,-0.029403648451768852,1.1461639732970645,-0.4868477691034487
1.9893432964707904,14.139750577863058,-0.028798152504691726,1.12771032149514,-0.4719531456207884
1.9839282125410174,13.927213770209654,-0.02820273096660337,1.1095192327512158,-0.4576015586549484
1.9786253048298654,13.718109078125483,-0.027617350203416432,1.0915827891874337,-0.44376744048539746
1.9734326707546068,13.512388843812342,-0.02704195585193628,1.073893361477195,-0.43042664604560227
1.9683484197838719,13.3100068329204,-0.026476475418959835,1.0564435952800784,-0.4175563607757138
1.963370676661345,13.110918183518137,-0.025920820607639266,1.0392263984279495,-0.4051350152463031
1.9584975842106775,12.915079357430177,-0.025374889399385443,1.0222349288137336,-0.3931422059972956
1.953727305765663,12.722448093813775,-0.024838567916557742,1.005462582937882,-0.3815586220865892
1.9490580272651825,12.532983364852946,-0.024311732088498655,0.9889029850708315,-0.3703659768882046
1.9444921303534717,12.34685032055691,-0.023750340666351975,0.9703922180453224,-0.4023925478188831
1.9400290393690383,12.164224147716844,-0.02322956443294895,0.9519885486922182,-0.4358237573651465
1.9356611425810697,11.985084761023039,-0.022748296493035985,0.933689205979432,-0.47055416929795923
1.9313810420674322,11.809412591395638,-0.022305393124199494,0.9154915269405609,-0.5064802208261727
1.9271815602953866,11.637188565763985,-0.021899678160490307,0.8973929533926277,-0.5434999931837275
1.923055745909593,11.468394087434323,-0.021529946953126766,0.8793910290248774,-0.5815129849474555
1.9189968788051943,11.303011016975777,-0.02119496993528109,0.8614833968545417,-0.6204198871159616
1.9149984745589164,11.141021653555018,-0.02089349581501226,0.8436677970481943,-0.6601223589676984
1.911054288286821,10.982408716649974,-0.020624254417572,0.8259420651101547,-0.7005228036962018
1.907158317993574,10.827155328072482,-0.02038595919555309,0.8083041304423761,-0.7415241427921688
1.903304807474845,10.675244994228528,-0.020177309422646145,0.7907520152834431,-0.7830295881051165
1.8994882488317046,10.526661588543018,-0.0199969920840959,0.7732838340377275,-0.8249424104711954
1.8957033846536593,10.381389333973534,-0.019843683474274437,0.7558977930094866,-0.8671657037376566
1.89194520992524,10.239412785534359,-0.019716050509088274,0.738592190560775,-0.9096021429476883
1.8882089737098495,10.100716812748011,-0.01961275175817897,0.7213654177165686,-0.9521537353709606
1.8844901806639145,9.96528658193661,-0.01953243819903123,0.704215959245535,-0.9947215629742138
1.8807845924342539,9.833107538259483,-0.01947375369213351,0.687142395250528,-1.0372055148214887
1.8770882289920467,9.704165387396305,-0.019435335173206295,0.6701434033092369,-1.0795040077738838
1.87339736995785,9.578446076766728,-0.01941581255518161,0.6532177612126138,-1.121513693722713
1.8697085559738489,9.455935776167628,-0.019413808329037354,0.6363643503568628,-1.1631291514362438
1.8660185901819628,9.33662085769759,-0.019427936848711826,0.6195821598540879,-1.2042425609273917
1.8623245398696318,9.220487874824904,-0.01945680328108984,0.6028702914373255,-1.244743358056464
1.8586237383491753,9.10752354043981,-0.019499002197398484,0.5862279652478711,-1.2845178668680484
1.8549137871415877,8.99771470371362,-0.019553115777205983,0.5696545266067816,-1.323448906923487
1.8511925585416558,8.891048325566569,-0.01961771159049937,0.5531494538884807,-1.3614153726296505
1.8474581986484497,8.787511452522043,-0.01969133991693326,0.5367123676328327,-1.398291781281364
1.8437091309536933,8.687091188696868,-0.019772530554186173,0.5203430410532317,-1.4339477862306036
1.8399440605904112,8.58977466564517,-0.019859789059310556,0.5040414121225606,-1.4682476512742857
1.8361619793557784,8.495549009736088,-0.019951592357875126,0.4878075974467243,-1.5010496820209205
1.8323621716354668,8.40440130670276,-0.020046383645406556,0.4716419081672643,-1.5322056096659256
1.8285442213722285,8.316318562950652,-0.020142566493942637,0.45554486817071593,-1.561559922293809
1.824708020239303,8.231287663156731,-0.02023849806316949,0.43951723492319766,-1.588949138560128
1.8208537771997704,8.14929532362606,-0.02033248130033197,0.423560023294388,-1.6142010184282753
1.8169820296566663,8.070328040798476,-0.02042275599549838,0.40767453278542587,-1.6371337056069415
1.813093656425953,7.9943720342140345,-0.020507488538328504,0.39186237862973805,-1.6575547965436936
1.8091898927959482,7.921413183151383,-0.02058476019856126,0.37612552729290133,-1.6752603314105674
1.8052723479732995,7.851436956047873,-0.020652553724057852,0.3604663369545855,-1.690033703661757
1.80134302525799,7.784428331694475,-0.020708738016040062,0.34488760360748794,-1.7016444867324958
1.7974043453395503,7.720371711074328,-0.020751050599116708,0.3293926134467019,-1.7098471796915735
1.7934591731653182,7.659250818584592,-0.020777077550694956,0.3139852022347432,-1.7143798787543147
1.78951084890187,7.601048591254639,-0.020784230485602965,0.29866982229106925,-1.7149628893784243
1.7855632235962782,7.545747054461504,-0.020769720099572068,0.28345161763666255,-1.7112973054720997
1.781620700250317,7.493327182566716,-0.02073052564738751,0.268336507571637,-1.7030635998981818
1.7776882811567427,7.443768742890306,-0.020663359548131276,0.25333127849583464,-1.6899202966726579
1.7737716225260187,7.397050121550588,-0.020564626038439084,0.23844368297488158,-1.6715028339930722
1.76987709767614,7.353148130014702,-0.020430372381335816,0.22368254371866067,-1.6474227842653884
1.766011870403002,7.312037791852145,-0.020256230493801135,0.20905785799246135,-1.6172676809896245
1.7621839806520463,7.273692110355444,-0.02003734583204857,0.19458089460440192,-1.5806018246999065
1.7584024453695062,7.238081819679895,-0.01976828872100463,0.18026427040138582,-1.5369686179774933
1.75467737858231,7.205175125386312,-0.01944294061790227,0.16612198532054828,-1.4858952357259405
1.751020136603887,7.174937445357941,-0.01905434336549947,0.15216938339914232,-1.4269008004568133
1.7474434972282307,7.147331169833947,-0.018594492167721886,0.1384229905376211,-1.359509735266763
1.7439618865845703,7.122315470779032,-0.018054040923442663,0.12490015740884225,-1.2832726319906607
1.7405916751754866,7.099846207002788,-0.017421868645858336,0.11161840865688955,-1.1977977771683417
1.7373515774500246,7.079875992693147,-0.01668442320111229,0.09859437354986163,-1.1027972753787936
1.7342632101603512,7.062354521320316,-0.015824706163869367,0.08584216721677052,-0.9981520441864538
1.73135189860821,7.047229256096482,-0.01482067859551331,0.07337115092883975,-0.8839987357989966
1.7286478747708438,7.034446590933772,-0.013642730218865402,0.06118321920495334,-0.7608366676504286
1.726188102940952,7.023953505814617,-0.012249604832628422,0.049270308365086495,-0.6296406084262044
1.7240191391317325,7.0156995020239314,-0.010581593159155219,0.03761394206318901,-0.4919425028567217
1.72220183296188,7.009638059225956,-0.008547945470871404,0.026190718968139716,-0.3498148501137701
1.7208199998010645,7.005725649464857,-0.0059976667482392,0.014992541675000155,-0.20566865739798562
1.7200016646521745,7.0039122565357275,-0.002616387450603146,0.004095804947420694,-0.06180542190123314
