x,y,v_x,v_y,omega
2.375,32.48,0.0,3.948717948717949,-5.428571428571429
2.373352351114963,31.70155447288907,-0.0164764888503685,3.8357373223913007,-4.991566269303685
2.3687114304138137,30.94511476812284,-0.029932718161125735,3.7286597252710285,-4.607933311726703
2.3616277875842226,30.209548671728086,-0.04090371013478545,3.627001238676485,-4.269341867491256
2.352555211914215,29.493815273713388,-0.049822046565291316,3.5303327414705086,-3.9689863080077483
2.3418690720800974,28.79695483104619,-0.05703935177588478,3.4382716852014616,-3.7012701828136687
2.329880852295741,28.118080117539105,-0.06284284606767865,3.350475449869395,-3.461562983315412
2.316849747302124,27.45636898175308,-0.06746820386849084,3.2666359079908713,-3.2460112131773995
2.302991965473862,26.811057898244286,-0.07110961441412887,3.1864749270970716,-3.0513904693506113
2.288488233431248,26.181436344369516,-0.07392770601201057,3.109740611650613,-2.874988778809072
2.2734898802507844,25.566841869682357,-0.07605582579262672,3.036204135220973,-2.7145139573005554
2.258123793224999,24.966655751217697,-0.07760504446522963,2.9656570494256074,-2.5680195738935416
2.2424964721759206,24.380299148068453,-0.078668166025553,2.8979089820668578,-2.4338454299557175
2.2266973599585613,23.807229684259813,-0.07932295614804082,2.8327856560195177,-2.310569436777049
2.2108015889840082,23.246938401184458,-0.07963475359748959,2.7701271747340064,-2.196968501103319
2.194872254440333,22.698947030603975,-0.07965859183926156,2.709786531070846,-2.0919865713041768
2.178962302269533,22.1628055470456,-0.07944092986874077,2.6516283045128977,-1.9947084074555979
2.1631161023033783,21.638089964767055,-0.07902106979280231,2.5955275182725583,-1.9043379510427667
2.147370763104773,21.124400349650625,-0.07843232219324955,2.5413686328917353,-1.8201804093660794
2.1317572341302338,20.62135902066528,-0.07770296755214554,2.489044656961677,-1.7416273543163219
2.116301232163701,20.128608919087622,-0.07685705211318045,2.43845635881493,-1.6681442783767126
2.101024022070717,19.645812126641587,-0.07591504881666078,2.389511565645416,-1.599260162425051
2.0859430764017217,19.172648516213922,-0.07489440787329149,2.3421245386312317,-1.5345586975390737
2.07107263393907,18.708814520913677,-0.07381001675322235,2.296215414371235,-1.473670872098532
2.0564241737063944,18.25402200903863,-0.07267458557353819,2.251709704379221,-1.4162686902176704
2.0420068180640665,17.807997254043812,-0.07149897084974087,2.208537845568977,-1.3620598311152268
2.0278276761624534,17.37047998992125,-0.07029244816639088,2.166634795656641,-1.310783093869125
2.0138921371068914,16.94122254353155,-0.06906294238922492,2.1259396682403646,-1.2622044999796946
2.0002041206194363,16.519989036405477,-0.06781722248533026,2.0863954030203273,-1.2161139487232562
1.986766291694778,16.106554649381664,-0.06656106676125194,2.0479484672178208,-1.1723223385388748
1.973580244687628,15.700704944183993,-0.0652994033102451,2.010548584758886,-1.1306590825300213
1.9606466613934614,15.30223523668602,-0.06403642963142124,1.9741484902208646,-1.0909699582654169
1.9479654469595595,14.910950017172805,-0.06277571470759832,1.9387037049112763,-1.0531152419691956
1.9355358468612538,14.526662413404914,-0.06152028627546098,1.9041723327676536,-1.0169680853262169
1.9233565476769545,14.149193692723909,-0.06027270556752929,1.8705148740423994,-0.982413099832416
1.911425763977042,13.77837279982215,-0.05903513143159572,1.8376940549751761,-0.9493451191621711
1.8997413132914154,13.414035927138404,-0.05780937542467117,1.8056746718623018,-0.9176681146204336
1.8883006808266467,13.056026115140895,-0.05659694922301723,1.774423448112775,-0.8872942425699123
1.8771010753565625,12.70419288002584,-0.05539910547782509,1.7439089030377648,-0.858143005912309
1.86613947750181,12.358391866596271,-0.054216873069697295,1.7141012312579154,-0.8301405143701232
1.8554126814380447,12.01848452429714,-0.05305108756795635,1.6849721917333977,-0.8032188305532354
1.8449173309234697,11.68433780457104,-0.0519024175777946,1.6564950055275978,-0.7773153906766138
1.8346499504101699,11.355823877867415,-0.05077138755520205,1.628644261508638,-0.7523724903827085
1.8246069718963458,11.032819868789026,-0.04965839758304025,1.601395829275267,-0.728336827463989
1.8147847580851648,10.715207607994856,-0.048563740528769814,1.5747267786664434,-0.7051590944183763
1.8051796223379992,10.40287339960037,-0.04748761694288756,1.5486153052784208,-0.6827936147365226
1.7957878458431908,10.095707802925492,-0.04643014800519423,1.5230406614703575,-0.6611980176426616
1.786605692364468,9.793605427539422,-0.04539138678203554,1.4979830923903314,-0.6403329467129858
1.7776396900935476,9.496465996668409,-0.0442686359271678,1.4734112163197965,-0.6172901221502466
1.7688953404136976,9.204192828388901,-0.043174860871332696,1.4493204664752657,-0.595300072378382
1.760366907822903,8.91669141513611,-0.0421094650366119,1.425693666052629,-0.5743022396337933
1.75204877853953,8.633870606244976,-0.041071827797117974,1.4025144228587278,-0.5542402104307881
1.7439354646723333,8.35564245552759,-0.040061310874850486,1.3797670843151137,-0.5350613869031915
1.73602160720429,8.081922077543286,-0.03907726380558274,1.3574366955279271,-0.5167166876844533
1.7283019779638034,7.812627511972337,-0.038119028599283164,1.3355089601815624,-0.49916027536571894
1.720771480733595,7.54767959555063,-0.03718594370280073,1.313970204035529,-0.4823493078980276
1.7134251516275043,7.287001841064729,-0.03627734735810636,1.2928073408234846,-0.466243711592207
1.7062581588479995,7.030520322945275,-0.03539258043694208,1.2720078403710409,-0.45080597362325725
1.6992658019221054,6.778163569031687,-0.03453098882199887,1.2515596987648376,-0.43600095216945517
1.692443510500358,6.529862458113229,-0.03369192539547713,1.2314514104197343,-0.42179570251384746
1.6857868427920226,6.28555012288086,-0.032874751687873335,1.211671941903947,-0.4081593176105082
1.6792914836999449,6.0451618579510935,-0.0320788392329052,1.192210707393707,-0.3950627817727435
1.672953242709806,5.808635032647757,-0.03130357066848416,1.1730575456396621,-0.3824788362777848
1.6667680515811134,5.5759090082501,-0.030548340618440247,1.1542026983369067,-0.37038185580454575
1.6607319618807506,5.346925059436479,-0.02981255638518894,1.135636789799292,-0.35874773472958094
1.6548411423942708,5.121626299671885,-0.02909563847960917,1.1173508078466547,-0.3475537824030774
1.6490918764452105,4.899957610305133,-0.028397021010994467,1.0993360858208552,-0.33677862661294594
1.6434805591484132,4.681865573157733,-0.02771615195697651,1.0815842856531384,-0.32640212452207373
1.6380036946196415,4.467298406401284,-0.027052493330741896,1.0640873819113579,-0.3164052804326276
1.6326578931605056,4.256205903534035,-0.02640552126061796,1.0468376467611198,-0.3067701697928965
1.627439868434929,4.04853937527993,-0.02577472599514717,1.029827635779928,-0.2974798689173517
1.6223464346509078,3.844251594245133,-0.025159611845064458,1.0130501745680227,-0.2885183899401074
1.617374503759191,3.6432967421779487,-0.024559697072104376,0.9964983461038142,-0.2798706205664155
1.612526247217312,3.445801167882312,-0.023922868346684202,0.978457396852543,-0.30561034823991845
1.607801271446476,3.2519026186995355,-0.023326889361676217,0.9605280949752105,-0.33302084225834583
1.6031914941756407,3.061579066290662,-0.02277088334667708,0.9427074291135348,-0.36199355893118107
1.5986890138768595,2.8748090729341342,-0.02225391964113492,0.924992504451733,-0.39242245847034346
1.594286119960731,2.6915717686496343,-0.021775019520150807,0.907380538393271,-0.42420376881499317
1.5899753018585105,2.511846829147647,-0.02133316150205259,0.8898688566266122,-0.4572357549211699
1.5857492570908915,2.335614454528148,-0.020927286174136445,0.8724548895683926,-0.4914184925640063
1.5816008984165184,2.1628553486538102,-0.02055630056959483,0.8551361691749704,-0.5266536457091522
1.5775233601470138,1.9935506991247323,-0.020219082125453144,0.837910326115827,-0.5628442465119907
1.573510003709639,1.827682157782661,-0.01991448224829569,0.8207750873048834,-0.5998944769980752
1.5695544225336444,1.665231821673327,-0.019641329511649076,0.803728273788457,-0.6377094514657399
1.5656504463318712,1.506182214395345,-0.01939843250608296,0.7867677989913692,-0.6761949986317276
1.561792144845227,1.3505162677636449,-0.01918458236035912,0.7698916673256401,-0.7152574425125401
1.5579738311142626,1.198217303714145,-0.018998554949284964,0.753097973169347,-0.7548033809975669
1.554190064339206,1.0492690163745522,-0.01883911280128117,0.7363849002265933,-0.794739461024309
1.550435652387475,0.9036554542235713,-0.01870500671602814,0.7197507212832093,-0.8349721492104962
1.5467056540058837,0.7613610022575656,-0.018594977099884617,0.7031937983768434,-0.875407496731829
1.5429953807934909,0.6223703640794263,-0.01850775502404462,0.6867125834045615,-0.9159508971565496
1.539300398990328,0.4866685438193663,-0.018442063007583352,0.6703056191960475,-0.956506835858063
1.535616531137109,0.35424082779115196,-0.01839661552460558,0.6539715410860704,-0.9969786295232758
1.531939857661487,0.2250727657799274,-0.018370119231612796,0.6377090790261675,-1.037268154155969
1.5282667184475351,0.09915015184905229,-0.018361272907907553,0.6215170602826025,-1.0772755598400678
1.5245937144469135,-0.02354099545678423,-0.018368767098309195,0.6053944127757414,-1.1168989703757497
1.5209177093927213,-0.14301445364687737,-0.01839128344361379,0.5893401691252091,-1.1560341657305298
1.5172358316803563,-0.2592838177069723,-0.018427493680036145,0.5733534714757262,-1.1945742450564596
1.5135454764839267,-0.3723625225736029,-0.018476058284259314,0.5574335771906057,-1.2324092678121572
1.5098443081819393,-0.4822638668440362,-0.018535624735615337,0.5415798655137535,-1.2694258702936783
1.5061302631722528,-0.5890010379271047,-0.01860482536124838,0.5257918453169426,-1.3055068546209105
1.5024015531637505,-0.6925871388655409,-0.018682274723775313,0.5100691640674424,-1.340530746946754
1.4986566690409877,-0.7930352170894963,-0.01876656650385238,0.4944116181721235,-1.37437132135678
1.4948943854083967,-0.8903582953945417,-0.018856269822057504,0.4788191648783132,-1.406897085611361
1.4911137659326448,-0.9845694054763072,-0.018949924935462874,0.4632919359393515,-1.4379707245575821
1.4873141696156948,-1.0756816243986833,-0.01904603823403378,0.4478302532843942,-1.467448496716379
1.483495258147257,-1.1637081144239119,-0.019143076450346554,0.4324346469679264,-1.4951795792498086
1.4796570045039394,-1.248662166692199,-0.019239459982826702,0.4171058757149702,-1.5210053562625838
1.4757997029839105,-1.3305572493060183,-0.01933355521746433,0.40184495042324647,-1.5447586452336608
1.4719239808906261,-1.4094070604516844,-0.019423665715379436,0.3866531610333917,-1.566262856371213
1.468030812107771,-1.4852255872782294,-0.019508022113172888,0.37153210723204344,-1.5853310799312452
1.4641215328405524,-1.5580271713522933,-0.019584770559012716,0.3564837335086022,-1.601765097173436
1.4601978598367622,-1.6278265816173274,-0.01965195947888885,0.3415103691417621,-1.6153543118478566
1.4562619114455737,-1.6946390959056288,-0.019707524432997007,0.3266147737412448,-1.625874601205206
1.4523162319243084,-1.7584805921802342,-0.01974927077965492,0.31180018900482287,-1.6330870889274058
1.448363819465318,-1.8193676508163676,-0.019774853810250754,0.2970703973564826,-1.6367368477066222
1.4444081584894546,-1.8773176693606004,-0.0197817559483802,0.28242978808581365,-1.6365515473671302
1.4404532568434716,-1.9323489913167649,-0.019767260511451033,0.2678834314758235,-1.6322400767532486
1.4365036886522677,-1.9844810505774433,-0.019728421400588027,0.25343716113093095,-1.6234911860398504
1.4325646437228652,-2.0337345331118684,-0.01966202789343652,0.23909766421329656,-1.6099722235016098
1.4286419845905631,-2.0801315573764754,-0.019564563429583348,0.22487257843279232,-1.5913280812582682
1.424742312563393,-2.1236958745412267,-0.019432156842120275,0.21077059321473862,-1.5671805241523962
1.4208730444986397,-2.164453088881835,-0.01926052380541126,0.19680155019133946,-1.5371281634852954
1.4170425026002924,-2.2024308973596405,-0.0190448951780615,0.18297653458674742,-1.5007474653878785
1.4132600203671968,-2.237659345174144,-0.018779927152894366,0.16930794355827902,-1.4575953697127373
1.4095360691286454,-2.2701710904545536,-0.018459585232619896,0.15580950924581297,-1.4072143631654923
1.4058824116774247,-2.3000016655853486,-0.01807698927958829,0.14249624206212522,-1.3491412294913934
1.4023122928499863,-2.327189714037324,-0.01762419899479359,0.12938424245766458,-1.2829212209972267
1.3988406823379727,-2.3517771689217426,-0.017091906125343132,0.11649030638654867,-1.2081300769935044
1.3954845939049219,-2.373809321816779,-0.016468978205165057,0.10383122256383107,-1.1244071188286582
1.3922635197276922,-2.3933347076804665,-0.01574176356712952,0.09142263607306908,-1.0315033899997903
1.389200042290051,-2.4104047068158607,-0.01489301080928436,0.07927735528089588,-0.9293489415557951
1.386320724700184,-2.4250727483423944,-0.013900165089384419,0.06740305998442285,-0.8181416281396233
1.383657442894826,-2.4373930178178114,-0.012732652964196855,0.0557996347697719,-0.6984537341434938
1.3812494294446194,-2.447418679746839,-0.011347481537870274,0.04445698452053283,-0.5713387566885537
1.3791465051028409,-2.455199923131147,-0.009681761879915107,0.03335544932255498,-0.4383961440368703
1.3774144970775855,-2.4607827992759255,-0.007638318372638174,0.022473312125223147,-0.3017221784936041
1.376145708330133,-2.4642113598386786,-0.005049569101888346,0.011812293502329606,-0.16366213838081098
1.3754877912279047,-2.4655419769536024,-0.0015296019203933607,0.0014938776469128681,-0.02633075209620281
