x,y,v_x,v_y,omega
2.375,32.48,0.0,2.0,-5.673469387755102
2.37431929137191,32.10340011621812,-0.0071653539798938164,1.9642093029671528,-5.430622871682853
2.372348458392042,31.73351023779948,-0.013580256334508541,1.9293683645974586,-5.202417047838399
2.3692232657187016,31.37015431629154,-0.019316508648021653,1.895430809170315,-4.9876529961279195
2.3650665534673108,31.013164797754516,-0.02443835715609137,1.8623535964825837,-4.785252010099069
2.3599895868296534,30.662382020935198,-0.029003396924511864,1.8300966858260077,-4.594241461051323
2.3540932456759984,30.317653675145312,-0.03306335206132963,1.7986227435412407,-4.413742577891409
2.347469075842966,29.978834310207,-0.036664751444277534,1.7678968873883742,-4.242959846844892
2.340200220439668,29.645784891999323,-0.03984951595885518,1.737886462166077,-4.081171786692939
2.3323622467301406,29.318372398106234,-0.04265547045722431,1.7085608419716993,-3.927722896738748
2.324023881852917,28.99646944886809,-0.04511679140828807,1.679891255271913,-3.782016608368326
2.3152476687264496,28.679953969806636,-0.04726439939662961,1.6518506295855346,-3.643509098501506
2.306090551889321,28.368708881951836,-0.04912630415209122,1.624413453096558,-3.5117038457027023
2.2966044016794664,28.062621817068447,-0.05072790858322228,1.5975556509391249,-3.38614682822518
2.2868364840212427,27.761584855175926,-0.05209227729281852,1.5712544742453134,-3.2664222785708867
2.2768298821265387,27.46549428209075,-0.05324037423037975,1.5454884003354832,-3.152148921869058
2.2666238755967485,27.174250365005143,-0.05419127345162207,1.520237042670882,-3.0429766359929444
2.256254281712439,26.887757144359522,-0.05496234638321689,1.4954810693882956,-2.9385834802291573
2.2457578103637195,26.605928797957098,-0.05552682570856694,1.4711331032688137,-2.835732697687506
2.235166267062001,26.328682695072352,-0.055963103783207555,1.4472469270969188,-2.737457767551513
2.2245029171658315,26.055932670080672,-0.056282684597521754,1.4238059675523402,-2.6435012602876045
2.213788935027065,25.787595632062104,-0.05649607475791466,1.4007944326431285,-2.5536230269025
2.2030435848319474,25.523591420925964,-0.056612874664379816,1.378197263526754,-2.467598846431846
2.1922843849764218,25.263842672338424,-0.05664186065694235,1.356000090026319,-2.3852191944583656
2.181527257598576,25.008274690783608,-0.0565910591098569,1.334189189498046,-2.306288120431778
2.170786664716248,24.756815330150623,-0.05646781333569962,1.312751448743902,-2.230622222944465
2.160075732263645,24.509394881293815,-0.05627884406012115,1.2916743286961658,-2.158049713325268
2.1494063631846534,24.265945966062866,-0.05603030413978741,1.2709458316296323,-2.0884095589728258
2.1387893406200638,24.026403437343212,-0.05572782811905142,1.250554470682527,-2.02155069877987
2.1282344221191627,23.790704284686864,-0.055376577153591705,1.2304892414895483,-1.957331323818215
2.1177504257113946,23.558787545149087,-0.05498127977028266,1.2107395957501819,-1.8956182171755598
2.107345308589542,23.330594218978398,-0.054546268880797194,1.1912954165728753,-1.8362861474722973
2.097026239080879,23.106067189836118,-0.05407551542091549,1.172146995451129,-1.7792173111501506
2.086799662515889,22.88515114924784,-0.05357265894740343,1.1532850107412937,-1.72430081912391
2.0766713615444377,22.66779252501263,-0.053041035488925935,1.13470050752409,-1.671432223830874
2.0666465113959536,22.453939413317276,-0.05248370291616912,1.116384878742767,-1.6205130831067158
2.0567297305323966,22.24354151432226,-0.05190346406864219,1.0983298475205632,-1.5714505576673907
2.046925127100024,22.036550071003767,-0.05130288785106712,1.080527450568839,-1.5241570392895931
2.0372363415475796,21.832917811052244,-0.050684328490454095,1.0629700226050827,-1.4785498070616325
2.0276665857440577,21.632598891642594,-0.050049943125569415,1.0456501817070043,-1.434550709326412
2.018218678898221,21.43554884690458,-0.0494017078832379,1.028560815535251,-1.3920858691618394
2.0088950805541628,21.24172453793425,-0.048741432580532616,1.0116950683629757,-1.35108541144451
1.999697920912086,21.051084105198484,-0.04807077417816939,0.9950463288556285,-1.311483209722471
1.9906329970113192,20.863810065431167,-0.047349477408848144,0.9762593529055604,-1.3188258854457346
1.9817028948515294,20.680094002654144,-0.046651597957360694,0.9575939394841501,-1.328178078215007
1.9729031656389007,20.49991313347796,-0.04597713059662683,0.9390467886861968,-1.3394089364013995
1.964229372085851,20.323245288041257,-0.04532595943547546,0.9206147422264982,-1.3523904945680982
1.9556771086017661,20.15006888356357,-0.04469786671278607,0.9022947785912535,-1.3669973906111885
1.9472420198784506,19.980362898772754,-0.04409254090106094,0.8840840086804966,-1.383106589058453
1.9389198179971983,19.81410684911473,-0.04350958416475435,0.8659796719303057,-1.4005971093908929
1.9307062981761514,19.651280762655205,-0.042948519214686565,0.8479791329067998,-1.4193497582631782
1.9225973532691274,19.49186515658417,-0.042408795596092085,0.8300798783672408,-1.439246864502921
1.9145889871202937,19.335841014234518,-0.04188979544426323,0.8122795147869499,-1.4601720157645242
1.906677326872948,19.183189762526105,-0.04139083873832207,0.794575766354272,-1.4820097957013225
1.8988586343251734,19.033893249745695,-0.04091118808035821,0.7769664734395099,-1.5046455204996176
1.8911293164202614,18.887933723571912,-0.04045005302397952,0.7594495915476598,-1.5279649735898377
1.8834859349555284,18.745293809251834,-0.04000659397320997,0.7420231907689587,-1.551854137313172
1.8759252155894608,18.605956487832934,-0.03957992566960644,0.7246854557457613,-1.5761989202763775
1.8684440562240177,18.469905074350066,-0.03916912028242693,0.7074346861791605,-1.6008848790727537
1.8610395348363915,18.337123195862155,-0.03877321011363745,0.6902692979041261,-1.625796932983262
1.8537089168325818,18.20759476922732,-0.0383911899264645,0.6731878245678298,-1.6508190701982188
1.8464496619937776,18.0813039784979,-0.03802201890305327,0.6561889199523525,-1.675834044016789
1.8392594310858006,17.958235251808357,-0.03766462223354513,0.6392713609902078,-1.7007230573886933
1.832136092201741,17.838373237619017,-0.03731789233550601,0.6224340515291878,-1.725365434060406
1.825077726908455,17.7217027801671,-0.036980689699080305,0.6056760269120465,-1.7496382744773205
1.818082636268843,17.608208893963024,-0.03665184334947013,0.5889964594466024,-1.7734160944751205
1.8111493468137847,17.497876737154552,-0.03633015091429845,0.5723946648531111,-1.7965704446699156
1.8042766165404165,17.390691583563616,-0.03601437827905182,0.5558701097883412,-1.8189695083306823
1.7974634410170467,17.286638793180536,-0.035703258809051494,0.5394224205598314,-1.8404776753938972
1.7907090596796231,17.185703780877212,-0.0353954921111956,0.5230513931594175,-1.8609550901657883
1.7840129624102783,17.08787198307464,-0.035089742302962926,0.5067570047623917,-1.8802571701622837
1.7773748964952694,16.993128822070737,-0.03478463574976168,0.4905394268576214,-1.8982340934745752
1.7707948740677133,16.901459667700777,-0.034478758224511845,0.4743990401945699,-1.9147302520391902
1.7642731801500413,16.812849795965548,-0.034170651435195445,0.45833645175522414,-1.9295836682635303
1.7578103814223043,16.727284344220507,-0.03385880885677235,0.4423525139820422,-1.9426253726501799
1.7514073358555722,16.64474826247315,-0.03354167079304065,0.4264483465164392,-1.9536787404304943
1.7450652033650087,16.565226260285236,-0.033217618581309484,0.4106253607247857,-1.9625587858361342
1.7387854576552146,16.488702748722083,-0.032884967837574795,0.39488528730840666,-1.9690714136121619
1.7325698994516099,16.41516177673357,-0.032541960621424434,0.37923020730754403,-1.9730126288543306
1.7264206713367631,16.344586961292215,-0.03218675637696135,0.3636625868119589,-1.9741677084412446
1.7203402744406486,16.276961410555888,-0.031817421476874254,0.3481853156757138,-1.9723103405145233
1.7143315872702591,16.21226763927013,-0.03143191715880524,0.33280175049014893,-1.9672017430346456
1.7083978870088894,16.150487475585315,-0.031028085592455408,0.31751576198159714,-1.9585897789610915
1.7025428736716877,16.091601958446674,-0.03060363374651066,0.30233178684619516,-1.9462080948457137
1.6967706975761643,16.03559122473718,-0.03015611462741924,0.28725488378007663,-1.9297753226650232
1.691085990680834,15.982434385437248,-0.029682905323426868,0.27229079306131115,-1.9089944030487997
1.6854939024719715,15.9321093902464,-0.029181181085650456,0.257445998421324,-1.8835521137666658
1.6800001412527197,15.88459288044039,-0.028647884380158285,0.24272778901033173,-1.853118923273687
1.674611021933655,15.839860030286154,-0.0280796873994705,0.22814431787636857,-1.8173493391943483
1.6693335217751064,15.797884378209432,-0.027472945848408453,0.21370465135229635,-1.7758829910740137
1.6641753460441626,15.758637650252211,-0.026823640793105636,0.19941880082897803,-1.7283467823643726
1.6591450063087851,15.72208958036791,-0.026127303789814964,0.18529772426892105,-1.6743585768823082
1.6542519152298731,15.688207735045864,-0.025378918093468813,0.17135327912105575,-1.613533059408843
1.6495065034332805,15.656957353962316,-0.024572785028558145,0.15759810070575433,-1.5454906372241282
1.6449203666601413,15.628301224191414,-0.023702338899221985,0.14404537056687317,-1.4698705314790113
1.6405064553796729,15.602199613291319,-0.022759885105710174,0.13070842838149616,-1.386349528381873
1.6362793251137546,15.578610296334187,-0.021736222956588322,0.11760017116727679,-1.294668161153524
1.6322554749122884,15.557488722896359,-0.020620094953582187,0.10473218080987147,-1.1946662253893816
1.6284538152557984,15.538788379561275,-0.019397375114733766,0.09211353850679245,-1.0863291741198213
1.6248963274132624,15.522461405352946,-0.01804986533301261,0.0797493478966897,-0.9698454974868413
1.621609007702995,15.508459498955865,-0.01655350003822213,0.06763914049362613,-0.8456717138836141
1.6186232400697733,15.496735094743997,-0.014875632943057392,0.05577564068392424,-0.7145949504599984
1.6159778306364418,15.48724264306448,-0.01297078214464214,0.044144903311006164,-0.5777728395926007
1.6137221403524542,15.479939551636118,-0.010773326107860358,0.03272974330333497,-0.43671889416276344
1.6119213371315588,15.4747857967123,-0.008182497269987108,0.021520308526321807,-0.2931956880144017
1.6106670165026986,15.471739756285299,-0.0050208777706450694,0.010543274915795488,-0.14898812003399053
1.6101100941652398,15.470739722101285,-0.0008414626236573196,-1.6599294612312798e-05,-0.005617969065190465
