x,y,v_x,v_y,omega
2.375,32.48,0.0,3.435897435897436,-7.63265306122449
2.372824559406982,31.76812577226827,-0.020718481838263945,3.3438571139285282,-7.067104490915647
2.366664428776476,31.075104034413307,-0.03794942892846094,3.2563499132615936,-6.564996014913035
2.3571922819267206,30.400021406050733,-0.052261493450162844,3.1730084520962794,-6.117151374437458
2.3449720088125714,29.742037095506188,-0.06412206001792599,3.093508791185089,-5.715966899285436
2.33047787424749,29.10037452110878,-0.07391731679237278,3.0175633459330897,-5.355102652655971
2.3141099285508697,28.474314265087827,-0.08196788031829744,2.944915282837883,-5.029241971823233
2.296206488160272,27.863188087323017,-0.08854107578263123,2.87533402920791,-4.733902495485747
2.277054304870336,27.266373793106702,-0.09386066983580654,2.808611629995113,-4.465286398150096
2.256896897142684,26.683290797362286,-0.09811464185611689,2.7445597580469396,-4.22016078930208
2.2359414095728805,26.11339626310532,-0.10146143023725093,2.6830072348765657,-3.9957615359762593
2.214364286182676,25.5561817181536,-0.104034983002792,2.6237979551398025,-3.78971542655202
2.1923159822664005,25.011170073795746,-0.10594886381887936,2.566789133982605,-3.5999768058894968
2.1699248928655828,24.477912984115743,-0.10729960666510095,2.5118498153507507,-3.424775708190279
2.1473006399000973,23.95598849620645,-0.10816946919666352,2.4588595933091772,-3.2625751837309185
2.124536831906962,23.444998950482265,-0.10862870216653005,2.4077075088259163,-3.112036021003819
2.1017133883067345,22.944569097361747,-0.1087374273594453,2.358291092321891,-2.9719874505469064
2.078898502715293,22.454344402200054,-0.10854719732095115,2.3105155282656544,-2.841402712034305
2.056150305989655,21.973989514849443,-0.10810229530417129,2.2642929226925697,-2.7193785945310616
2.0335182786457864,21.50318688386593,-0.10744082225648117,2.219541658102766,-2.605118237589643
2.011044453410635,21.041635498350566,-0.10659560855448692,2.1761858229959663,-2.497916620165002
1.988764441508039,20.5890497428564,-0.10559498099404654,2.134154705519876,-2.3971482741263967
1.966708310472499,20.145158352816487,-0.10446340982062009,2.093382342479299,-2.302256846176342
1.9449013365595373,19.70970345963653,-0.10322205601711035,2.0538071163774165,-2.21274620133201
1.923364650960517,19.282439716013805,-0.10188923540213107,2.0153713943152285,-2.1281728166483074
1.9021157958636254,18.863133493241328,-0.10048081313969295,1.978021203517888,-2.048139258525822
1.8811692037972438,18.451562143273623,-0.09901053987346596,1.9417059390316744,-1.9722885730329174
1.860536611540748,18.04751331919875,-0.09749033875982685,1.9063780997766475,-1.9002994479487478
1.8402274181061262,17.650784348506445,-0.0959305510937134,1.8719930496738768,-1.8318820290819386
1.8202489948137366,17.261181654184313,-0.09434014692904766,1.8385088010131097,-1.7667742929188341
1.8006069542524887,16.87852021922962,-0.09272690603521581,1.8058858176029704,-1.7047388936565215
1.7813053838846569,16.502623090647084,-0.09109757365842155,1.774086835564074,-1.6455604158524824
1.7623470491927102,16.133320919423777,-0.08945799483630815,1.7430766998959812,-1.5890429748096293
1.7437335705410295,15.770451533340808,-0.08781323041779443,1.712822215179907,-1.5350081158394933
1.7254655773154477,15.413859539804317,-0.08616765744489006,1.6832920089771268,-1.4832929710493783
1.7075428423889234,15.063395956163106,-0.08452505614105502,1.6544564066534624,-1.433748638556407
1.689964399526413,14.718917865231209,-0.08288868540666107,1.6262873165074703,-1.3862387542645163
1.6727286459731117,14.380288093956128,-0.0812613484343057,1.5987581242075801,-1.340638230729404
1.6558334321568964,14.047374913370618,-0.07964544981536321,1.5718435956544257,-1.2968321413273387
1.6392761401691245,13.720051758141352,-0.07804304530627247,1.5455197874814284,-1.2547147310557467
1.6230537524604916,13.398196964184205,-0.07645588525213767,1.5197639644913947,-1.2141885379240691
1.6071629119943214,13.081693522955483,-0.07488545252091135,1.49455452340119,-1.1751636111224864
1.5916217555822092,12.770432877417132,-0.07312556092777586,1.469832576964059,-1.1316243506540533
1.5764461561663252,12.46431040936178,-0.07140395731873841,1.4456194997535883,-1.0901484840295181
1.5616280797430169,12.16322123118249,-0.06972058004610389,1.421896482906296,-1.0506131275833732
1.547159519079584,11.867064310885407,-0.06807523579611399,1.3986456151611746,-1.01290410916283
1.5330325192314898,11.575742289251615,-0.06646761990002231,1.3758498289701708,-0.9769152526023013
1.5192391990716974,11.289161307909808,-0.06489733400276122,1.353492850475613,-0.9425477288037121
1.505771769351331,11.007230847541635,-0.06336390142929925,1.331559153030785,-0.9097094665080832
1.4926225477441735,10.72986357550646,-0.06186678054363027,1.3100339139708705,-0.8783146166343291
1.479783971269665,10.456975202230758,-0.06040537635645111,1.2889029743691587,-0.8482830647531774
1.4672486064388117,10.188484345760493,-0.05897905060405571,1.2681528015381263,-0.8195399868708313
1.455009157423723,9.924312403922993,-0.05758713049202716,1.2477704540571235,-0.7920154442298297
1.4430584725134699,9.664383433588533,-0.056228916272286524,1.2277435491282238,-0.7656440133032267
1.4313895490858377,9.408624036561712,-0.054903687800401765,1.2080602320795903,-0.7403644475710823
1.4199955372956594,9.156963251668923,-0.05361071020129589,1.1887091478517149,-0.7161193680325125
1.4088697426552255,8.909332452641284,-0.05234923875521701,1.1696794143162859,-0.692854979728373
1.3980056276602495,8.665665251422578,-0.051118523101699065,1.1509605972904313,-0.6705208118344057
1.3873968125956408,8.425897406559397,-0.04991781084695515,1.1325426871208035,-0.6490694791369693
1.3770370756385177,8.189966736355842,-0.048746350649454644,1.1144160767225704,-0.6284564629273123
1.366920352361167,7.957813036498337,-0.047603394849122856,1.09657154096797,-0.6086399095492044
1.3570407347237734,7.729378001877283,-0.04648820169748376,1.0790002173277764,-0.5895804450116302
1.3473924696354445,7.50460515235179,-0.045400037238982054,1.0616935876769091,-0.5712410042357965
1.3379699571521604,7.283439762221544,-0.04433817688753376,1.0446434611825823,-0.5535866736462017
1.32876774837159,7.065828793186384,-0.043301906736946456,1.0278419581999052,-0.5365845459409571
1.3197805430771032,6.8517208305892865,-0.04229052463911947,1.0112814951057698,-0.5202035859886774
1.3110031871766175,6.641066022752415,-0.04130334107979253,0.9949547700072712,-0.5044145068996162
1.302439235909263,6.433957874091487,-0.04025809956167831,0.9775037886682465,-0.5163873233231043
1.2940899780067403,6.23050203062056,-0.03925864236710918,0.9601709110548499,-0.5304432408951171
1.2859458798551475,6.030674041929622,-0.038304197171870565,0.9429527907636036,-0.5464626744091495
1.2779975774199122,5.834450146186999,-0.037393921258941726,0.9258462163089916,-0.5643294953344833
1.2702358902590445,5.641807242419279,-0.03652690884456064,0.9088481052883328,-0.58393076348026
1.2626518340636381,5.452722863968145,-0.035702197778357155,0.8919554990081926,-0.6051564682526132
1.2552366318522095,5.267175153029434,-0.03491877566382112,0.8751655575509428,-0.6278992784219564
1.2479817239361526,5.085142836183984,-0.03417558544148141,0.858475555262875,-0.6520542993569154
1.2408787767650755,4.906605200833344,-0.03347153047353857,0.8418828766479701,-0.6775188367133942
1.2339196907529986,4.73154207245663,-0.032805479165290315,0.8253850126540727,-0.7041921655920859
1.2270966071793168,4.559933792607165,-0.03217626915548908,0.8089795573408246,-0.7319753041955039
1.2204019142519917,4.39176119756964,-0.03158271110474977,0.7926642049213213,-0.7607707910263624
1.2138282524146258,4.227005597599831,-0.031023592108259654,0.7764367471720846,-0.7904824646728629
1.2073685189738461,4.065648756669855,-0.03049767875630836,0.7602950712086373,-0.8210152452230549
1.201015872118763,3.9076728726421415,-0.030003719863531526,0.7442371576267441,-0.8522749163397529
1.1947637344001436,3.7530605577950418,-0.02954044888522472,0.728261079012292,-0.8841679070092929
1.1886057957333507,3.601794819622036,-0.029106586036612696,0.7123649988258588,-0.9166010719513676
1.1825360159860105,3.4538590418248347,-0.028700840128530358,0.696547170671304,-0.949481469642908
1.1765486272088057,3.309236965418414,-0.028321910130563184,0.6808059379612607,-0.9827161368660232
1.170638135565717,3.167912669862872,-0.02796848647028253,0.6651397339962676,-1.0162118586378208
1.1647993230184863,3.0298705541330193,-0.02763925207477039,0.6495470824785178,-1.0498749323179102
1.1590272488190314,2.895095317631757,-0.027332883158132634,0.6340265984858806,-1.083610924616852
1.1533172508630347,2.763571940847349,-0.02704804975612127,0.6185769899370642,-1.1173244201450454
1.147664946957981,2.6352856656475723,-0.0267834160062951,0.6031970595846126,-1.15091876004576
1.1420662360595424,2.5102219750953942,-0.026537640169310737,0.5878857075789737,-1.1842957691474452
1.1365172995314534,2.388366572660903,-0.026309374383917023,0.5726419346542649,-1.2173554699483538
1.1310146024859187,2.269705360692761,-0.026097264144985425,0.5574648459947121,-1.2499957816102243
1.125554895264203,2.1542244179990426,-0.025899947490402853,0.5423536558502231,-1.2821122019868252
1.1201352151204331,2.0419099763718336,-0.025716053878832693,0.5273076929803258,-1.3135974705474118
1.114752888175859,1.9327483958720144,-0.025544202736158886,0.5123264070179611,-1.3443412098749266
1.109405531715963,1.8267261386699793,-0.025383001643804363,0.4974093758585714,-1.3742295432252098
1.10409105690898,1.7238297412142707,-0.025231044136987055,0.48255631419580175,-1.4031446854288336
1.0988076720316937,1.6240457844726777,-0.025086907075261896,0.4677670833431715,-1.4309645042053873
1.0935538862969547,1.5273608619589858,-0.024949147541299285,0.4530417025015298,-1.457562048747525
1.0883285143873695,1.4337615452225272,-0.02481629921665564,0.4383803616552101,-1.4828050422287453
1.0831306818112285,1.343234346436624,-0.02468686817516321,0.42378343630575743,-1.5065553347096998
1.0779598312101761,1.2557656776750115,-0.024559328025335694,0.4092515042810319,-1.528668312784947
1.0728157297636385,1.1713418064121193,-0.024432114322642206,0.39478536488938426,-1.5489922622579322
1.0676984778529222,1.0899488067227985,-0.0243036181603708,0.3803860607231922,-1.5673676802035368
1.0626085191685426,1.0115725055893314,-0.02417217883372041,0.3660549024526911,-1.5836265330425727
1.057546652468203,0.9361984236480119,-0.024036075455228314,0.35179349698844914,-1.5975914578083725
1.0525140452205084,0.8638117096244144,-0.023893517379957138,0.33760377942677133,-1.609074904771592
1.0475122494017362,0.7943970676161882,-0.02374263327501725,0.3234880492230048,-1.6178782212051015
1.0425432197508182,0.7279386762867794,-0.023581458638487374,0.30944901105708755,-1.6237906786021288
1.0376093348325643,0.6644200989360982,-0.023407921535359043,0.2954898208541707,-1.6265884495168061
1.0327134213130744,0.6038241833208922,-0.023219826269305924,0.28161413738589536,-1.6260335459633397
1.027858781917231,0.5461329500182472,-0.023014834643489225,0.2678261797821355,-1.6218727398292494
1.0230492276205194,0.4913274680762463,-0.022790444372810147,0.25413079109405395,-1.6138364982367046
1.0182891147329087,0.4393877167013116,-0.022543964080624413,0.24053350771482848,-1.6016379849566107
1.0135833876714684,0.39029243183113493,-0.022272484123569268,0.22704063390593393,-1.5849722053272775
1.0089376284070235,0.34401893669434,-0.02197284220447775,0.21365931977779445,-1.5635154102053181
1.0043581138340618,0.3005429559531194,-0.021641582299918707,0.20039763966236873,-1.536924929330153
0.9998518826932059,0.25983841389604834,-0.021274904755851004,0.18726466564305486,-1.5048396832174367
0.9954268142374778,0.22187721859277332,-0.02086860434632107,0.1742705277214895,-1.4668817351203274
0.9910917216831523,0.1866290362240477,-0.020417991409159647,0.16142644721878122,-1.42265940383432
0.9868564647942075,0.1540610633605226,-0.01991778848555348,0.148744722910033,-1.3717726807370514
0.9827320879923687,0.12413781032097404,-0.01936199057957773,0.13623863937138467,-1.3138219990131592
0.9787309936067261,0.09682091656854652,-0.0187436702360661,0.12392225350884495,-1.248421804535029
0.9748671649868661,0.07206903011698529,-0.018054697572124242,0.11180999841080262,-1.1752208727136586
0.9711564623186841,0.04983779756584994,-0.01728532783913333,0.09991602588575284,-1.0939318458275413
0.9676170268335922,0.03008002905894358,-0.016423581542694368,0.08825319798954873,-1.0043728425813538
0.9642698493303405,0.01274611975181017,-0.015454299440653577,0.07683165255459495,-0.906523752819263
0.9611395905937101,-0.00221518338727833,-0.014357688527254324,0.0656569487700443,-0.8005980090983312
0.9582557912237342,-0.014855605248087045,-0.01310706737727868,0.05472802133288739,-0.6871255298321136
0.9556546912260468,-0.025225791069800607,-0.011665313553075986,0.04403565315960889,-0.5670319498915309
0.9533820386925698,-0.033373657430644244,-0.009978996289562286,0.03356307408655468,-0.44168221906830707
0.9514976620009974,-0.039343431115646865,-0.007967448392080046,0.023291913389646098,-0.3128377817575793
0.9500839160579551,-0.043177277723223995,-0.005496798684514359,0.013220911444436986,-0.18247005837713812
0.9492667448570915,-0.044925490645397304,-0.002285784180853413,0.0034287354334234677,-0.0524029910780299
