x,y,v_x,v_y,omega
2.375,32.48,0.0,2.3076923076923075,-4.448979591836735
2.3741866995390386,32.00026151906301,-0.007745718675821194,2.2612456059933104,-4.217894863598309
2.371846576230302,31.530117346733324,-0.014541169978817832,2.2163179400036754,-4.004342181076212
2.3681676602568307,31.069257313151123,-0.02049612500661906,2.1728252369696603,-3.8065620718938877
2.363316381598942,30.61738820715956,-0.02570652887803554,2.130690058188063,-3.6230067665198202
2.3574402698250694,30.174232458638606,-0.030256440396941937,2.0898408801067463,-3.452310847361077
2.3506702784799356,29.739526961158315,-0.03421966765194983,2.050211476848403,-3.2932665016297262
2.3431227923268447,29.313022015490805,-0.03766115285367834,2.0117403866517134,-3.1448025695415964
2.334901365603836,28.894480377829204,-0.04063814927021412,1.974370448220657,-3.0059667371853864
2.3260982313099112,28.483676399218357,-0.04320122495764014,1.9380483956921708,-2.8759103471839715
2.316795614926907,28.080395244849147,-0.045395121547163096,1.9027245030622224,-2.7538753980859285
2.307066880584353,27.684432183615684,-0.04725949123906587,1.8683522705897968,-2.6391833812407457
2.2969775332423543,27.29559193976548,-0.048829531065684266,1.8348881470312222,-2.5312256662023183
2.2865860968099905,26.913688099651903,-0.05013653019492354,1.8022912826218755,-2.429455195859542
2.275944885084497,26.53854256757593,-0.0512083433812049,1.770523308577865,-2.3333792930942128
2.2651006798718463,26.16998506551915,-0.052069801501180964,1.7395481395819261,-2.2425534138014442
2.254095328538932,25.807852672253635,-0.05274306833609823,1.709331796280152,-2.156575708114299
2.2429662714768415,25.451989397890237,-0.05324795130286065,1.6798422452760222,-2.0750822738510104
2.2317470084638624,25.102245790415196,-0.05360217263027487,1.6510492544862505,-1.997743004490258
2.220467511657569,24.75847857118042,-0.05382160647727879,1.6229242620354438,-1.9242579491193055
2.2091545918783817,24.420550296668452,-0.053920486657838294,1.5954402571261415,-1.854354114380118
2.1978322239403902,24.08832904415877,-0.05391158894207964,1.5685716715375253,-1.787782648929349
2.186521836012809,23.7616881191856,-0.0538063913206007,1.5422942805878956,-1.724316359705756
2.175242567335598,23.4405057829062,-0.053615215129026464,1.5165851125492391,-1.6637475166663527
2.1640114980477914,23.124664997697177,-0.0533473495167507,1.4914223656319332,-1.6058859088556292
2.1528606455586257,22.814057122497974,-0.05285124561816284,1.466747874360472,-1.5462934011454166
2.1418183430009576,22.508577540546327,-0.05231354064534354,1.4425814775599803,-1.4895371104714379
2.1308927411526226,22.208121530855188,-0.05173981029117904,1.4189043290222938,-1.4354474795153893
2.1200908806412957,21.9125882349428,-0.05113505172145695,1.3956984891909245,-1.3838670144821403
2.1094188071567452,21.621880472239827,-0.050503743369499206,1.3729468698850016,-1.3346492904029836
2.098881674788548,21.335904566676966,-0.049849898232378384,1.350633183094608,-1.2876580494814003
2.088483838774813,21.0545701836353,-0.04917711142224345,1.3287418934927024,-1.2427663827570556
2.078228938799046,20.77779017651237,-0.048488602632681156,1.307258174344751,-1.1998559864862484
2.06811997384223,20.50548044222063,-0.0477872540989009,1.2861678665289615,-1.1588164856177008
2.058159369483037,20.23755978499223,-0.04707564456007697,1.265457440408161,-1.119544817600877
2.0483490384387837,19.973949787915842,-0.04635607967090602,1.2451139603193355,-1.0819446705165439
2.0386904350514525,19.71457469167806,-0.045630619256060885,1.225125051469087,-1.0459259701802135
2.029184604345327,19.459361280024282,-0.04490110175465542,1.2054788690430775,-1.011404411450537
2.0198322262141675,19.20823877149246,-0.04416916616115147,1.186164069355223,-0.9783010294870305
2.010633655235224,18.961138717007948,-0.04343627173354431,1.1671697828782412,-0.9465418071536451
2.001588956553812,18.71799490295954,-0.042703715708478605,1.1484855890113506,-0.9160573151642977
1.9926979382346848,18.47874325940571,-0.04197264923559006,1.130101492453657,-0.8867823819201925
1.9839601804344174,18.24332177308644,-0.041244091719337926,1.1120079010632369,-0.8586557903023029
1.9753750617116634,18.011670404940112,-0.040518943735459965,1.0941956050922397,-0.8316199989606888
1.96694178275903,17.783731011847173,-0.03979799867057235,1.0766557576976525,-0.8056208858897107
1.9586593878108318,17.55944727234216,-0.03908195321703135,1.0593798566357857,-0.7806075122983699
1.9505267839547704,17.33876461605451,-0.038371416840694825,1.0423597270561464,-0.7565319049812266
1.9425427585522226,17.1216301566553,-0.037666920326428106,1.0255875053172727,-0.733348855570427
1.934705994950985,16.907992628102885,-0.03696892349488288,1.0090556237533508,-0.7110157352057943
1.9270150866557463,16.69780232399454,-0.03627782217405799,0.9927567963261283,-0.6894923232998493
1.9194740904262855,16.49115989947092,-0.03554118953509152,0.9752662943750332,-0.6970234068120171
1.9120846499948112,16.288177825872452,-0.03483443362180723,0.9578963113246465,-0.7067247500019421
1.9048404895377389,16.088831155180035,-0.03415757073126309,0.9406434095555102,-0.7184739520978257
1.8977353415256681,15.893095646610565,-0.03351050557417154,0.9235042911061093,-0.732152112279844
1.8907629691537577,15.700947737917975,-0.03289304082497556,0.9064757916804466,-0.7476435613909116
1.8839171868456845,15.512364517903368,-0.03230488591857733,0.8895548751253176,-0.7648356029636157
1.8771918789837325,15.327323700037827,-0.031745665147633335,0.8727386283560168,-0.7836182625115218
1.8705810170066903,15.145803597105687,-0.031214925109911796,0.856024256711983,-0.8038840440689249
1.8640786750072849,14.967783096779637,-0.030712141551091584,0.8394090797265911,-0.8255276929920242
1.8576790439517443,14.793241638042062,-0.030236725644533283,0.8228905272979351,-0.8484459640565917
1.8513764446357444,14.622159188369523,-0.02978802974594317,0.8064661362500657,-0.8725373939025938
1.8451653394833878,14.454516221599206,-0.02936535265745071,0.7901335472767552,-0.8977020768849253
1.839040343288953,14.290293696397583,-0.028967944432403473,0.7738905022625114,-0.9238414433913968
1.8329962329948928,14.129473035252303,-0.02859501074912399,0.7577348419782659,-0.9508580396842717
1.8270279565939453,13.972036103908628,-0.028245716878946718,0.7416645041519649,-0.9786553083098115
1.8211306412381973,13.817965191171364,-0.027919191271035666,0.7256775219172206,-1.0071373681012197
1.8152996006334947,13.667242988992196,-0.027614528773750292,0.7097720226462811,-1.0362087927737698
1.809530341793737,13.519852572760762,-0.02733079350965563,0.6939462271768959,-1.0657743870764018
1.8038185712262664,13.375777381715334,-0.02706702141863752,0.6781984494462221,-1.0957389594212317
1.7981602006168085,13.235001199385856,-0.026822222480961024,0.662527096548816,-1.126007089860749
1.792551352080213,13.097508133978028,-0.026595382629473575,0.646930669240017,-1.1564828922214312
1.786988363041583,12.963282598602198,-0.026385465357477482,0.6314077629107467,-1.187069769131468
1.7814677908113126,12.832309291244748,-0.0261914130260503,0.6159570690649844,-1.217670158598649
1.775986416917044,12.704573174372538,-0.02601214787174594,0.6005773773370253,-1.2481852707015677
1.7705412512556844,12.58005945405247,-0.025846572712630925,0.5852675780921941,-1.2785148128525312
1.7651295361293746,12.458753558458273,-0.025693571347463334,0.5700266656620677,-1.3085567019733748
1.759748750230747,12.340641115625026,-0.025552008639466557,0.5548537422736066,-1.3382067617954043
1.7543966126449857,12.22570793029849,-0.025420730272542925,0.539748022741028,-1.367358403351743
1.749071086939163,12.113939959710688,-0.025298562163864204,0.5247088399999517,-1.3959022865747548
1.7437703854131434,12.00532328809527,-0.025184309512512226,0.5097356515754798,-1.4237259607437927
1.7384929735911177,11.899844099735432,-0.025076755459161455,0.49482804708962663,-1.4507134813511045
1.73323757503861,11.797488650313465,-0.02497465932662454,0.4799857569291028,-1.4767450007694463
1.7280031765967538,11.69824323630364,-0.02487675440533985,0.4652086622120866,-1.5016963299188744
1.722789034133839,11.602094162119059,-0.02478174524146953,0.45049680621248295,-1.5254384679501518
1.717594678923786,11.50902770468739,-0.02468830437808271,0.4358504074224619,-1.5478370967999973
1.7124199247724503,11.419030075089847,-0.02459506849178071,0.4212698744589048,-1.568752037346377
1.7072648760257332,11.33208737685175,-0.024500633857905046,0.40675582304677754,-1.5880366638254821
1.7021299366086255,11.2481855604209,-0.024403551066932153,0.3923090953422483,-1.6055372732023832
1.697015820261834,11.167310373311501,-0.02430231890250983,0.37793078189011137,-1.6210924063668883
1.6919235621629398,11.08944730532604,-0.024195377277436057,0.36362224654286474,-1.6345321184294515
1.6868545321425552,11.014581528195436,-0.024081099107177276,0.34938515470098247,-1.6456771961253687
1.6818104497333495,10.942697828899238,-0.02395778098049699,0.3352215052628036,-1.6543383215501326
1.6767934013218566,10.873780535843814,-0.023823632462291636,0.3211336666936189,-1.660315183359617
1.6718058597108363,10.807813436989829,-0.023676763833140022,0.30712441763006226,-1.663395539481451
1.666850706445118,10.744779688934877,-0.02351517203084551,0.29319699241708874,-1.6633542397335082
1.6619312573085887,10.684661715880083,-0.023336724507528005,0.27935513191429207,-1.6599522231514945
1.6570512914675073,10.627441097352047,-0.02313914064562788,0.2656031397812957,-1.652935514173192
1.6522150848205093,10.573098443531784,-0.022919970278162883,0.25194594422122585,-1.6420342553709912
1.6474274482259146,10.52161325708757,-0.02267656871797855,0.23838916477129002,-1.626961833960803
1.6426937714236436,10.472963780561297,-0.022406067494126655,0.22493918309797561,-1.6074141873955532
1.6380200736699932,10.42712682868115,-0.02210533968349371,0.211603215760586,-1.583069413588317
1.6334130623867225,10.384077605561853,-0.021770958252421053,0.1983893853755714,-1.5535878687811495
1.6288802015357782,10.343789507746369,-0.021399145089904443,0.18530678429568864,-1.518613017820069
1.6244297920384236,10.3062339156414,-0.0209857072658532,0.1723655214659064,-1.4777734171503007
1.620071067475806,10.271379978389906,-0.020525955235265694,0.1595767380721262,-1.4306863726131818
1.6158143097187208,10.23919440100078,-0.020014594832213614,0.14695257039571627,-1.3769640370589724
1.6116709913276854,10.209641248132755,-0.019445580320503468,0.13450602834738937,-1.3162230121152443
1.6076539550022975,10.182681786914245,-0.018811908492716353,0.12225074516222167,-1.248098902667163
1.6037776457692605,10.158274402145693,-0.01810532229811147,0.11020053834777928,-1.1722677259921688
1.6000584201139114,10.136374631341695,-0.017315874419498948,0.09836870740457868,-1.0884765211279768
1.5965149696134373,10.116935383206922,-0.01643127320406427,0.08676698911706165,-0.9965857170240293
1.5931689174463592,10.099907417045259,-0.015435890291915978,0.07540411718448528,-0.8966252967515398
1.5900456785111978,10.085240161424032,-0.014309242423907517,0.06428403158911138,-0.7888645533702494
1.5871757249751761,10.072882915179143,-0.013023648395347679,0.05340402788600792,-0.6738896700771914
1.584596485457971,10.062786360444697,-0.011540537482794473,0.042753636251577284,-0.5526726675690642
1.5823552788513457,10.054904057041853,-0.009804287342208581,0.03231591996599234,-0.42659937904860773
1.5805141340195785,10.049193058129639,-0.0077304253412883335,0.022074545864600767,-0.2974086928284518
1.5791589290386132,10.045611574970252,-0.0051762887631427775,0.012034817558121184,-0.1669939139364955
1.5784236220644627,10.044106620449845,-0.001826634800195993,0.0022980826362296106,-0.03705746291439155
