x,y,v_x,v_y,omega
2.375,32.48,0.0,3.5897435897435894,-7.877551020408164
2.3726451028321485,31.736610948040344,-0.022427592074776553,3.4901521432054707,-7.269624768369333
2.365992159052,31.013598777405438,-0.040933777259972055,3.3956780533174546,-6.732867738041473
2.3557948508703697,30.309934055344257,-0.05618344351745963,3.3058907282175882,-6.256565495580151
2.3426801480678727,29.624672233508146,-0.06871848793489072,3.2204123368882476,-5.831911294555009
2.3271714817347156,28.956943503149926,-0.07898309619041466,3.13890890461862,-5.451617454295751
2.309707217930302,28.305944317899304,-0.08734322575638179,3.0610833358634815,-5.109615854302472
2.290655492719656,27.670930231632635,-0.0941017762497735,2.986669866676235,-4.800824769477865
2.2703262029123925,27.051209788235802,-0.09951050762892583,2.915429594245962,-4.520965706341735
2.2489807544760643,26.446139263686074,-0.1037794774789592,2.847146830037172,-4.266418341573433
2.226840029865422,25.85511810692665,-0.10708456643192076,2.7816260914811677,-4.0341047829044845
2.2040909311044996,25.277584959823752,-0.10957351700543738,2.718689595213081,-3.821396596654655
2.180891777051137,24.71301416167657,-0.11137080731229908,2.6581751490458405,-3.626039654806981
2.1573767737529015,24.16091266275012,-0.11258160505184937,2.5999343645393487,-3.44609303250454
2.133659731187059,23.620817285818852,-0.1132949908133179,2.5438311300441687,-3.2798790592813356
2.1098371644187015,23.092292285934413,-0.11358659745675118,2.4897402974266774,-3.1259422801017442
2.085990889749743,22.574927167410763,-0.11352078034285597,2.4375465456556844,-2.9830155752438894
2.0621902048950282,22.068334723959236,-0.11315240874966316,2.3871433919779204,-2.849992063514407
2.038493725225642,21.572149273447277,-0.11252835000639816,2.3384323271836007,-2.7259017014715647
2.01495093462913,21.086025063220752,-0.11168870329371779,2.2913220559261784,-2.6098917141362357
1.991603498771818,20.60963482556135,-0.11066782868068073,2.2457278265443223,-2.5012101660708126
1.9684863799165966,20.142668465828343,-0.10949520803571418,2.2015708375795207,-2.399192117496325
1.9456287854961745,19.68483186829411,-0.10819616739687646,2.1587777103655403,-2.303247917072024
1.9230549770164325,19.23584580673002,-0.10679248479114352,2.1172800188162837,-2.2128532676611536
1.9007849612950842,18.79544494851421,-0.10530290303122032,2.0770138689533315,-2.1275407688254573
1.8788350823150193,18.363376942478112,-0.10374356344558859,2.0379195218666815,-2.0468926937142045
1.8572185289226963,17.93940158193365,-0.10212837362415354,1.9999410547472254,-1.9705348013401447
1.8359457710982694,17.52329003536716,-0.10046931994181603,1.9630260554098353,-1.8981310201986346
1.8150249354614734,17.114824138179827,-0.09877673374195775,1.9271253463742612,-1.8293788675183587
1.7944621289726665,16.713795739623677,-0.09705951853239093,1.8921927351128822,-1.7640054914812608
1.7742617183754696,16.320006099746212,-0.09532534429805661,1.858184787529665,-1.7017642425716262
1.7544265717528462,15.933265331733075,-0.09358081401264247,1.8250606221192593,-1.6424316956406826
1.7349582675893855,15.553391885539494,-0.09183160659174394,1.7927817225815275,-1.5858050569603739
1.7158572759142063,15.180212069139202,-0.09008259983853402,1.7613117669450473,-1.5316999010094987
1.6971231154132087,14.813559604103386,-0.08833797636144541,1.7306164714913013,-1.4799481904027871
1.6787544898234166,14.453275212559323,-0.08660131496990692,1.7006634479759708,-1.4303965395713076
1.6607494064371862,14.099206232875712,-0.08487566966085891,1.6714220728203262,-1.3829046887980196
1.6431052791347707,13.751206261684231,-0.08316363798119314,1.6428633670985429,-1.3373441602207394
1.6258190180175816,13.409134820079537,-0.08146742027775221,1.614959886279498,-1.2935970716105243
1.6088871074210684,13.072857042046483,-0.07978887111761017,1.5876856187972097,-1.251555087258016
1.5923056738369408,12.742243383347144,-0.07812954396932026,1.5610158926250723,-1.211118488268799
1.5760705450623549,12.417169349264174,-0.07649073007435367,1.534927289117504,-1.1721953470755155
1.5601773017128482,12.097515239743505,-0.07487349230190142,1.509397563460312,-1.134700793096433
1.5446213220812892,11.783165910610528,-0.07327869466532705,1.4844055711394655,-1.0985563582708258
1.5294185087294798,11.474014251809631,-0.07151000392333376,1.4598959412500263,-1.0580475956593978
1.514582716722805,11.169957026543404,-0.06978325328309253,1.4358871565235574,-1.0194474188791964
1.5001051861775634,10.870890990890036,-0.06809799000492414,1.412360802079941,-0.9826427906864771
1.485977262007149,10.576716676371898,-0.06645366876092698,1.3892993361880337,-0.9475286431691385
1.4721904116585796,10.287338212061055,-0.0648496678921148,1.366686038200952,-0.9140072267321085
1.458736239665432,10.002663157229126,-0.06328530347119524,1.344504960198385,-0.8819875193568762
1.445606499447862,9.722602343795327,-0.06175984145804239,1.3227408820282804,-0.851384689911668
1.4327931027341367,9.447069727888067,-0.060272508196483596,1.301379269469418,-0.8221196099963761
1.4202881269293712,9.17598224989122,-0.05882249946794879,1.2804062352624428,-0.794118409426253
1.408083820714888,8.909259702396739,-0.057408988289036754,1.259808502780244,-0.7673120710023423
1.3961726081249144,8.646824605531222,-0.05603113161547213,1.2395733721294464,-0.7416360606946764
1.3845470913154516,8.388602089165808,-0.05468807609369795,1.219688688493532,-0.7170299897850805
1.3732000522123993,8.134519781556769,-0.053378962982992,1.200142812544948,-0.6934373058873858
1.362124453201899,7.884507703998832,-0.05210293235510617,1.1809245927687246,-0.6708050100903561
1.3513134370048236,7.638498171104967,-0.05085912666465892,1.1620233395537862,-0.6490833977581889
1.34076032585902,7.39642569635517,-0.04964669377156773,1.1434288009204727,-0.6282258207798079
1.3304586201169293,7.1582269025833085,-0.048464789486438065,1.1251311397639305,-0.6081884692854436
1.320401996352268,6.923840437095269,-0.04731257970081251,1.1071209125031147,-0.588930171050765
1.3105843050572665,6.693206891133844,-0.04618924215634347,1.0893890490342786,-0.570412206988184
1.300999568001337,6.466268723426154,-0.04509396790012664,1.071926833896108,-0.5525981412845861
1.291641975312738,6.242970187568137,-0.04402596246748429,1.0547258885611837,-0.5354536648870042
1.2825058823366806,6.023257263017808,-0.042984446828300174,1.0377781547752862,-0.5189464511646866
1.2735858063162186,5.807077589484813,-0.04196865812848063,1.0210758788722905,-0.5030460226894033
1.2648764229360412,5.594380404518425,-0.04097785025416279,1.004611596998053,-0.48772362817725035
1.2563725627638564,5.385116484109531,-0.040011294242835345,0.988378121181877,-0.4729521287260197
1.2480776761763748,5.179383660288753,-0.03898762563794262,0.9709821056826912,-0.48661288711773043
1.2399929085459793,4.977291788300622,-0.03801016131820519,0.95370238944235,-0.5022884021406661
1.2321086457948454,4.7788167889649,-0.03707805535926069,0.9365356994692783,-0.519861416506825
1.2244154582586357,4.583935256642242,-0.03619039736654437,0.9194788940798485,-0.539217986575767
1.2169041135009526,4.392624432246336,-0.035346219373295344,0.9025289573097162,-0.5602472201326767
1.2095655877418274,4.204862177382651,-0.034544502142183145,0.8856829937730014,-0.5828410232052637
1.202391076020869,4.020626949521809,-0.03378418091456353,0.8689382239493214,-0.6068938548620708
1.1953720012068385,3.8398977781195818,-0.03306415064763143,0.8522919798813995,-0.6323024889704718
1.1885000219573318,3.6626542415988297,-0.03238327077624061,0.8357417012686257,-0.6589657819211017
1.1817670397248745,3.4888764451114476,-0.031740369532877205,0.8192849319445434,-0.6867844453468472
1.1751652048990233,3.3185449990007427,-0.031134247856181813,0.8029193167288196,-0.7156608228789145
1.1686869221679979,3.1516409978862967,-0.03056368291548952,0.7866425986468427,-0.7454986699899003
1.1623248551778838,2.9881460002945417,-0.030027431276074205,0.7704526165127284,-0.7762029359741698
1.1560719305625482,2.8280420087589135,-0.029524231727121524,0.7543473028742078,-0.8076795471090493
1.1499213414130518,2.67131145031345,-0.029052807791891032,0.7383246823206863,-0.8398351900261831
1.143866550251514,2.5179371573031126,-0.028611869937040315,0.722382870158709,-0.8725770943005885
1.1379012915710813,2.367902348432917,-0.02820011749565041,0.7065200714622042,-0.9058128132351341
1.1320195740008485,2.22119060997602,-0.027816240316089706,0.6907345805082434,-0.9394500017799159
1.1262156821522809,2.0777858770583215,-0.027458920146459648,0.6750247806127017,-0.9733961904788185
1.1204841782018973,1.9376724149336475,-0.027126831761955725,0.6593891443841904,-1.0075585542788332
1.1148199032636892,1.8008348001593113,-0.02681864384002602,0.643826234419024,-1.0418436749708073
1.109217978603989,1.6672579015765052,-0.026533019585689835,0.6283347044648506,-1.0761572959524939
1.1036738067512817,1.5369268609936633,-0.02626861710676157,0.61291330108601,-1.1104040679152782
1.098183072553794,1.4098270734633047,-0.026024089535978786,0.5975608658697716,-1.1444872839539726
1.0927417442386334,1.2859441670339358,-0.02579808489412356,0.582276338219466,-1.1783086024837592
1.0873460745278132,1.165263981848124,-0.025589245685115367,0.5670587587882762,-1.2117677562189677
1.0819926018687527,1.04777254844565,-0.02539620821069994,0.5519072736162448,-1.2447622453242113
1.076678151839814,0.9334560651164239,-0.025217601588715097,0.5368211390430406,-1.277187012689041
1.0713998387952315,0.8223008741314644,-0.02505204645492962,0.521799727480392,-1.308934099102603
1.066155067818437,0.7142934366612153,-0.02489815332406576,0.5068425341410427,-1.339892275915271
1.06094153705843,0.6094203061686443,-0.024754520580763172,0.49194918483583555,-1.3699466525712298
1.0557572405305362,0.5076681000393108,-0.024619732065845636,0.47711944496732434,-1.3989782561821211
1.050600471470814,0.4090234691816619,-0.02449235421722329,0.46235322986741323,-1.4268635800916687
1.0454698263426156,0.31347306529752217,-0.0243709327179989,0.4476506166481762,-1.4534740981619687
1.0403642096045698,0.2210035054847168,-0.024253988596724202,0.4330118577594648,-1.4786757413050875
1.0352828393617208,0.13160133379016514,-0.024140013716122913,0.4184373964743691,-1.5023283326057035
1.0302252540359662,0.04525297928216787,-0.02402746557677786,0.4039278845541546,-1.5242849772567912
1.0251913202085456,-0.03805528984570117,-0.02391476135103786,0.389484202377907,-1.5443914034973922
1.020181241806496,-0.11833741669051534,-0.023800271049434423,0.3751074818584241,-1.5624852508524578
1.015195570827091,-0.19560761119858228,-0.023682309706803222,0.36079913250411194,-1.5783953023061963
1.0102352198198368,-0.26988041156916154,-0.023559128457522848,0.3465608710252339,-1.5919406577024904
1.0053014763752548,-0.3411707522933227,-0.023428904348019895,0.3323947549191756,-1.6029298468168733
1.0003960199042896,-0.40949403971223575,-0.023289728708791764,0.3183032204990113,-1.6111598824109867
0.995520941032892,-0.4748662360784124,-0.023139593875947974,0.30428912584551454,-1.6164152564875272
0.9906787639847561,-0.5373039532033275,-0.022976378011061303,0.2903557991537046,-1.6184668873778822
0.9858724723836316,-0.596824556868313,-0.022797827713934342,0.27650709289379855,-1.6170710318858144
0.981105538978476,-0.6534462832512489,-0.022601538049452117,0.262747444086546,-1.611968186441352
0.9763819598850374,-0.7071883686605602,-0.022384929507106712,0.24908194076405696,-1.6028820154738104
0.9717062940540417,-0.7580711938410829,-0.022145221264280472,0.23551639428853743,-1.5895183659818666
0.9670837088310913,-0.8061164439782473,-0.02187939990667578,0.22205741654159586,-1.5715644574192122
0.9625200326856787,-0.8513472852088597,-0.021584182430587642,0.2087124999404567,-1.5486883796141608
0.9580218164866463,-0.8937885578440756,-0.021255971845910247,0.195490096585431,-1.52053909430808
0.9535964051374506,-0.9334669854678594,-0.020890802908334522,0.18239969030772116,-1.4867472261798638
0.9492520220348775,-0.9704113973642805,-0.020484274259029187,0.16945185156293885,-1.4469270581138942
0.9449978698058832,-1.004652959021307,-0.020031461255202183,0.15665825945633516,-1.4006803277661242
0.9408442523139158,-1.0362254012997738,-0.01952680057305928,0.14403166700525635,-1.347602676411978
0.9368027253400215,-1.0651652326381154,-0.018963932511648206,0.13158577431228569,-1.2872939458455281
0.9328862871691903,-1.091511909655324,-0.01833547863912573,0.11933495918493296,-1.2193739668808004
0.9291096264004552,-1.1153079290090702,-0.017632719158350012,0.10729379656502706,-1.1435060178239835
0.9254894539896765,-1.1365987871199934,-0.016845113325257528,0.09547628068186118,-1.059430660896078
0.9220449618964479,-1.1554327356899847,-0.01595957327691997,0.08389465807997165,-0.9670129207118485
0.9187984749026208,-1.1718602449918123,-0.014959350473814376,0.07255781146121744,-0.8663051257313857
0.91577640015804,-1.1859330871275873,-0.013822313760289105,0.06146925649856,-0.7576249472366107
0.9130106397090709,-1.1977029966250257,-0.012518261944177198,0.05062511966751971,-0.6416412165313441
0.9105407361311357,-1.2072200088593235,-0.01100462927425367,0.04001309208770566,-0.5194467795769845
0.9084172402209438,-1.2145309049236488,-0.009219141299001766,0.029614489477290985,-0.39257831581348185
0.9067073982391203,-1.219678869264662,-0.007065068051699585,0.01941374234187191,-0.26292586586223465
0.9055065934813702,-1.222707151106107,-0.00437116773639568,0.009427037100465436,-0.1324775044298245
0.9049736768930419,-1.223678279919028,-0.0007042283429226021,-0.0001781912631432167,-0.0029300600632281015
