x,y,v_x,v_y,omega
2.375,32.48,0.0,2.1025641025641026,-7.63265306122449
2.373913820649958,32.06348296274582,-0.010861793500418883,2.0626062699776355,-7.277860554812712
2.370776303145217,31.654834949557532,-0.020513381546990197,2.023873861905278,-6.9468311740125515
2.3658168248948366,31.253817924045443,-0.029081400956816588,1.986296393215614,-6.637405559338372
2.3592409218329937,30.860207329203362,-0.036677629661613594,1.9498095552051822,-6.3476659992203714
2.35123305779741,30.473790927395893,-0.043401010694221726,1.9143544628695097,-6.075904347730245
2.3419590213177974,30.094367779389913,-0.04933935410190545,1.8798770171903167,-5.820594910216156
2.3315680082840635,29.721747341478398,-0.054570776235432245,1.8463273619248122,-5.58037141220416
2.320194438325206,29.355748663437584,-0.05916492335314164,1.81365941848333,-5.354007345343662
2.30795954429924,28.99619967302095,-0.06318401690651887,1.7818304856830096,-5.140399122491974
2.2949727675601874,28.642936535084512,-0.06668375048400672,1.7508008936813606,-4.9385515821389045
2.2813329862480614,28.295803075378043,-0.06971406263725562,1.7205337033833503,-4.747565467515987
2.267129599454317,27.95465026061986,-0.07231980530018753,1.6909944441984701,-4.5666265732801685
2.252443486530054,27.619335727770988,-0.07454132394244027,1.6621508842902677,-4.394996306612398
2.237347857860143,27.289723356494072,-0.07641496275667016,1.633972828478854,-4.232003452941726
2.221909010994452,26.96568287966823,-0.07797350590023977,1.6064319397795854,-4.077036971582501
2.2061870040071834,26.647089527567356,-0.07924656397244917,1.5795015812291624,-3.929539675105005
2.1902362562684727,26.333823701924906,-0.08026091341465752,1.5531566751953458,-3.7890026695954457
2.174106085396976,26.02577067662407,-0.081040795300308,1.527373577813018,-3.654960452144304
2.1578411879690083,25.722820322187093,-0.08160817897937098,1.5021299665567371,-3.5269865777480933
2.14148207054969,25.424866851605067,-0.08198299521381172,1.4774047392635268,-3.404689820959324
2.125082165609765,25.13182073645498,-0.0820160541854389,1.4530564122373388,-3.282377704232106
2.1086882516202463,24.84359581851623,-0.08192308570974784,1.4291927671501394,-3.165677782813573
2.0923242726729967,24.560096973919322,-0.08171670376274705,1.4057956788189694,-3.054264756656822
2.0760117655933454,24.281232613632152,-0.08140836703376372,1.382847924052728,-2.947835856115029
2.059770079999446,24.006914508962005,-0.08100848890522976,1.3603331226487665,-2.846109020663285
2.043616577495528,23.737057628376,-0.08052653613395007,1.3382356832112783,-2.748821246220638
2.0275668121316346,23.471579984723483,-0.07997111750498598,1.3165407533138722,-2.655727083416604
2.011634694024001,23.210402492033676,-0.07935006357135328,1.295234173584199,-2.5665972712188405
1.9958326378212081,22.953448831141593,-0.07867049845657183,1.2743024353366441,-2.481217492140472
1.980171697517613,22.700645323465828,-0.07793890457938078,1.2537326414209835,-2.399387236815747
1.9646616889538864,22.451920812324587,-0.07716118105788405,1.233512469991421,-2.3209187671041835
1.9493113012019276,22.20720655123221,-0.07634269646170437,1.2136301409323638,-2.2456361680838293
1.9341281979054101,21.966436098668446,-0.07548833650346885,1.1940743847052748,-2.1733744803472863
1.9191191095357136,21.729545218857368,-0.07460254719349776,1.1748344134055257,-2.103978904939657
1.9042899174241086,21.496471788132833,-0.07368937392255161,1.155899893839815,-2.0373040740925767
1.8896457303432785,21.26715570650347,-0.0727524968857493,1.1372609224538162,-1.9732133816275255
1.8751909543331717,21.041538814062427,-0.07179526321531814,1.1189080019566022,-1.9115783675371107
1.8609293563966562,20.81956481191643,-0.07082071614983622,1.1008320195033605,-1.8522781518156202
1.8468641226284364,20.601179187334974,-0.0698316215323642,1.0830242263111955,-1.7951989131090815
1.8329979112853274,20.38632914284439,-0.06883049189872396,1.0654762185946365,-1.740233408198221
1.819332901256491,20.174963529013127,-0.0678196083896394,1.048179919718004,-1.6872805287219448
1.8058708363479212,19.967032780694204,-0.06680104069605829,1.0311275634711996,-1.6362448919001953
1.7926130657557824,19.762488856508696,-0.06577666522533246,1.0143116783838988,-1.5870364623284008
1.779560581067578,19.561285181370238,-0.06474818165670833,0.9977250730006734,-1.5395702021957205
1.766723485095816,19.363578775143594,-0.0636227780609136,0.9793389892657706,-1.5329394162150072
1.754108617642347,19.169536511163813,-0.06252589647377467,0.9610836505320799,-1.5288195730310097
1.7417102605927586,18.97913261833795,-0.0614576740221106,0.9429552777265459,-1.5270643816805058
1.7295226815739906,18.79234206473661,-0.06041811616556963,0.9249502582868688,-1.5275316625005269
1.7175401592160993,18.609140524981406,-0.05940710741334415,0.9070651392651227,-1.5300830158242977
1.7057570063534169,18.4295043489525,-0.0584244212134799,0.8892966210239472,-1.5345835022244378
1.6941675913247973,18.25341053170004,-0.0574697290727158,0.8716415515006297,-1.5409013329437717
1.6827663575215215,18.08083668444817,-0.05654260896004217,0.8540969210181071,-1.5489075692043175
1.6715478413212432,17.911761006583802,-0.05564255304274014,0.8366598576255451,-1.558475829126058
1.6605066885370163,17.74616225852578,-0.05476897479952854,0.8193276229547152,-1.5694820010192918
1.6496376695019075,17.584019735372113,-0.05392121555156145,0.8020976085819349,-1.5818039618379818
1.6389356929019154,17.425313241225027,-0.053098550448359504,0.784967332888905,-1.5953212995967858
1.6283958184628502,17.270023064094197,-0.0523001939422909,0.7679344384193997,-1.609915038561479
1.6180132685904296,17.11812995127901,-0.05152530478191669,0.7509966897324956,-1.625467366021362
1.6077834390571026,16.96961508513007,-0.05077299055135173,0.7341519717568948,-1.6418613594430163
1.5977019088239932,16.824460059088885,-0.05004231177974264,0.7173982886549671,-1.658980712787419
1.5877644490818188,16.68264685390244,-0.049332285642001275,0.700733763209441,-1.6767094607469615
1.5779670315907155,16.54415781390647,-0.04864188926903124,0.684156636750288,-1.6949316996252741
1.5683058363955305,16.40897562326701,-0.04797006268282066,0.6676652696443061,-1.7135313035410091
1.5587772589903564,16.27708328206505,-0.04731571136892039,0.651258142375302,-1.7323916345868926
1.5493779170038686,16.148464082102652,-0.04667770849595633,0.6349338572486549,-1.751395245517646
1.5401046564753822,16.023101582301738,-0.04605489678890865,0.6186911407604974,-1.7704235734751366
1.5309545577905013,15.900979583557802,-0.045446090059899885,0.602528846678856,-1.7893566231869786
1.521924941344798,15.782082102900723,-0.04485007439713458,0.5864459598919379,-1.8080726379967658
1.5130133730041455,15.666393346802788,-0.04426560900939002,0.5704416010874224,-1.826447757001713
1.5042176694312035,15.553897683460423,-0.04369142672002974,0.5545150323362108,-1.8443556564890473
1.4955359033491151,15.444579613860334,-0.04312623410085375,0.538665663664694,-1.8616671737793418
1.4869664088158139,15.338423741422737,-0.04256871123215833,0.5228930607112875,-1.8782499115079858
1.4785077865854888,15.235414739994024,-0.04201751107109149,0.5071969535758286,-1.893967820311925
1.4701589096378116,15.135537319937995,-0.04147125840568172,0.49157724698444905,-1.9086807578472844
1.461918928960574,15.038776192048783,-0.040928548366694614,0.4760340319076958,-1.922244022057825
1.453787279677543,14.945116028979427,-0.04038794446361519,0.4605675987858611,-1.9345078566628742
1.4457636876207403,14.854541423847596,-0.039847976104411736,0.44517845253243343,-1.9453169269619381
1.4378481764551885,14.767036845643968,-0.03930713555110595,0.42986732950383394,-1.9545097642968152
1.4300410754746498,14.682586591029544,-0.03876387425428222,0.41463521664039404,-1.9619181779190495
1.4223430281993075,14.60117473206564,-0.03821659849913863,0.3994833729986326,-1.9673666336474607
1.4147550019210948,14.522785059375131,-0.037663664282987314,0.3844133539064436,-1.970671599658573
1.4072782983599461,14.447401020186689,-0.03710337132850135,0.36942703797798676,-1.971640861157533
1.399914565615356,14.375005650666921,-0.036533956117400124,0.35452665721970217,-1.970072807701031
1.392665811623207,14.305581501901269,-0.035953583804090146,0.33971483043680023,-1.965755699824113
1.3855344193592258,14.239110558847404,-0.035360338835719894,0.3249946001018584,-1.9584669256860476
1.3785231640695805,14.175574151561136,-0.034752214060733845,0.310369472760822,-1.9479722641461066
1.371635232858787,14.114952857994243,-0.03412709804720097,0.295843462908111,-1.9340251786267084
1.3648742470293411,14.057226397699932,-0.033482760247257756,0.2814211400349956,-1.91636617716927
1.3582442876522807,14.002373515875831,-0.032816833523345884,0.2671076782060058,-1.894722289403671
1.351749924962149,13.95037185735589,-0.03212679337797193,0.25290890699340285,-1.8688067323284863
1.3453962523268732,13.901197830474047,-0.03140993297478573,0.23883136182504472,-1.8383188659962495
1.3391889257629694,13.854826461224174,-0.03066333266425279,0.2248823306736843,-1.8029445803111988
1.3331342102795192,13.811231238917035,-0.029883822170249583,0.21106989239772056,-1.762357308983957
1.327239034786444,13.77038395570177,-0.02906793276050198,0.19740293975493078,-1.7162199411032084
1.321511057963253,13.73225454403321,-0.028211835471408944,0.1838911769306573,-1.6641880006437937
1.3159587484589237,13.696810918629563,-0.027311259571882802,0.17054507710582031,-1.6059145959205394
1.3105914842405646,13.664018832926054,-0.026361382611707024,0.15737577992925877,-1.5410578099026835
1.3054196780655303,13.633841764760394,-0.025356679138636914,0.14439490172734823,-1.4692914091065579
1.3004549392704638,13.606240852251577,-0.024290708812027613,0.13161422336081133,-1.3903199814539642
1.2957102868643393,13.581174908569672,-0.023155815249217903,0.11904521345824,-1.3038998313056709
1.2912004360159868,13.558600552991784,-0.021942693234308152,0.10669834232062737,-1.2098670640386895
1.2869421904783442,13.538472503505893,-0.020639762142117168,0.09458215253828403,-1.1081740774206885
1.2829549887772385,13.520744079029956,-0.019232254868941357,0.08270209222106925,-0.9989347635738737
1.2792616744359202,13.505367948547725,-0.01770088854424099,0.0710592126012323,-0.8824765077682177
1.2758895946297235,13.49229712497267,-0.0160199095177249,0.05964902314932278,-0.759392787866039
1.2728721890488093,13.481486109265617,-0.014154146291417867,0.04846113392119617,-0.6305833612666635
1.270251347186553,13.47289190940285,-0.012054272331143525,0.037480864706489196,-0.49726061321427195
1.2680811109185497,13.466474323380556,-0.009648090348890062,0.026694995516466355,-0.36089445448987956
1.2664342671539335,13.462194152643065,-0.006820347297271971,0.016106711858461582,-0.22307061998751682
1.265417646454456,13.4600054364256,-0.0033458596975033377,0.005780450316186151,-0.08525730986728186
