x,y,v_x,v_y,omega
2.375,32.48,0.0,2.2564102564102564,-7.755102040816326
2.373791499223105,32.033160346805886,-0.012085007768951989,2.2119862755308857,-7.37366198927787
2.3703068637793376,31.59506056109889,-0.022761346668719918,2.1690115815390243,-7.019527853057528
2.364812281493736,31.165419484906476,-0.03218447618729387,2.1273991803851393,-6.690068058057442
2.3575447669789154,30.743972564392667,-0.04049066896091631,2.08707002475295,-6.382961577641557
2.348715725479269,30.33047036159182,-0.047799746035547756,2.047952003255505,-6.096154638892264
2.3385140150162784,29.92467725213938,-0.05421735859435801,2.0099790912689137,-5.827824442532549
2.32710858884131,29.526370279692873,-0.05983690315532547,1.9730906331961295,-5.576348593502312
2.314650784703011,29.135338143145518,-0.06474113822766522,1.9372307322774225,-5.340279212876272
2.3012763152762963,28.75138029702396,-0.06900355603947944,1.9023477289381505,-5.118320911502201
2.287107004475024,28.374306148885346,-0.07268955197324213,1.8683937524479877,-4.909311967838427
2.272252306688893,28.003934340278267,-0.07585742588807175,1.8353243336228195,-4.712208178838309
2.2568106398067957,27.640092100053337,-0.0785592429328982,1.803098068626471,-4.52606895202368
2.240870557883443,27.28261466061368,-0.08084157630062776,1.7716763257700885,-4.350045285490647
2.224511785223267,26.931344729169474,-0.08274615030113656,1.7410229886720077,-4.183369345247085
2.207806130304235,26.586132007270933,-0.08431039888918085,1.711104230313379,-4.025345399554968
2.1908182951968778,26.24683275289279,-0.08556795218439385,1.6818883134680578,-3.8753419105387503
2.1736065938361366,25.913309380171192,-0.08654906142301647,1.653345413747921,-3.73278461628016
2.15622359058609,25.58543009258396,-0.08728097107745074,1.6254474621244197,-3.5971504635306397
2.138716668929554,25.263068545942218,-0.0877882454879052,1.5981680042929747,-3.4679622732585256
2.121128538760073,24.946103538046764,-0.08809305620690565,1.571482074661576,-3.344784039462317
2.10349768960808,24.634418722271956,-0.08821543531302525,1.545366083086504,-3.2272167767716193
2.0858587961601445,24.327902342687246,-0.08817349916632854,1.5197977127605908,-3.1148948449135503
2.068243081601071,24.02644698862178,-0.08798364642440791,1.4947558278940494,-3.0074826886128925
2.050698565953928,23.72996077912761,-0.08746151004702253,1.4701062670476828,-2.8987524442182777
2.0332673305087554,23.43835517697921,-0.08685084440470456,1.4459497544362971,-2.7950444320341505
2.015966071919957,23.151533406483576,-0.0861617414832813,1.4222679505200513,-2.696066045475963
1.9988095654157787,22.869402269823084,-0.08540332355849689,1.3990434160848968,-2.6015450175973562
1.9818108492770008,22.591871972742595,-0.0845838378292836,1.3762595547199894,-2.5112277752304344
1.9649813913721952,22.31885596128551,-0.08371074121877146,1.35390055985084,-2.4248779451023625
1.94833123960551,22.0502707687112,-0.0827907764480825,1.3319513658922413,-2.342274996124472
1.9318691579254494,21.786035871808576,-0.08183004035252242,1.310397603134022,-2.2632130038829565
1.9156027493609429,21.526073555893632,-0.08083404529254297,1.289225556015397,-2.187499524957819
1.899538567390677,21.270308787843994,-0.07980777441011494,1.2684221244809857,-2.1149545700921935
1.883682216810398,21.01866909658147,-0.0787557313926761,1.247974788144249,-2.045409666455655
1.8680384451381598,20.77108446046577,-0.0776819853297061,1.227871573012766,-1.97870700031644
1.8526112254872253,20.52748720110899,-0.0765902111796372,1.20810102055502,-1.9146986323789505
1.8374038317386734,20.287811883162426,-0.0754837263058832,1.1886521589106083,-1.8532457788717362
1.8224189067591736,20.051995219664818,-0.07436552348911464,1.1695144760654714,-1.7942181522021454
1.8076585243325074,19.819975982575155,-0.07323830077754809,1.1506778948311598,-1.7374933556396588
1.7931242454050407,19.591694918143777,-0.07210448849711956,1.1321327494826223,-1.682956327061429
1.7788171691845025,19.36709466680324,-0.07096627370826296,1.1138697639227662,-1.6304988273001222
1.764737979577176,19.146119687285534,-0.06982562236500185,1.0958800312542922,-1.5800189690838624
1.7508869874002095,18.928716184695077,-0.06868429940466084,1.0781549946502642,-1.5314207829578932
1.7372641687625179,18.714832042287583,-0.06754388697225755,1.0606864294246627,-1.4846138169335563
1.7238691999690765,18.50441675672382,-0.06640580096215501,1.0434664262129547,-1.4395127669275851
1.710701489268811,18.297421376584467,-0.06527130604049894,1.026487375180586,-1.3960371353380907
1.6977602057352574,18.093798443947968,-0.06414152929503898,1.009741951184397,-1.3541109153569693
1.685044305541365,17.893501938847695,-0.06301747264388301,0.9932230998183385,-1.313662298845243
1.6725627613659793,17.69668665148872,-0.06179796910997436,0.9749297737714521,-1.3136669495476567
1.6603213634254377,17.503517406689276,-0.060616010295443015,0.9567626742229489,-1.3159988115685728
1.648312640940083,17.313969318830722,-0.059471214558105244,0.9387182043626108,-1.320518644622578
1.6365292096154558,17.12801820603353,-0.058363098688165825,0.9207929236093065,-1.3270909999638052
1.6249637910588355,16.94564055954442,-0.057291086878037044,0.9029835412817876,-1.335583904404608
1.6136092304740899,16.766813514333684,-0.05625451896941876,0.8852869108255794,-1.345868554788927
1.6024585127742945,16.591514820793712,-0.05525265802853365,0.8677000245741159,-1.357819021615689
1.5915047772418256,16.41972281743372,-0.05428469729615775,0.850220009025802,-1.3713119605507524
1.580741330856699,16.251416404468923,-0.053349766555105045,0.8328441206221576,-1.3862263306001261
1.57016166040578,16.086575018205146,-0.05244693795408584,0.8155697420156323,-1.4024431177427168
1.5597594434780384,15.92517860612167,-0.051575231323331375,0.7983943788191222,-1.4198450628379164
1.5495285584443017,15.767207602556486,-0.05073361901403526,0.7813156568327091,-1.4383163926320053
1.5394630935138505,15.612642904898543,-0.0499210302904783,0.7643313197467114,-1.4577425526877061
1.5295573549547372,15.461465850191487,-0.04913635530065257,0.7474392273238416,-1.4780099410532372
1.5198058745598462,15.31365819205239,-0.04837844864825783,0.7306373540671375,-1.4990056414708457
1.510203416436412,15.169202077807231,-0.047646132586084154,0.7139237883844384,-1.5206171548999143
1.500744983193004,15.028080025742334,-0.046938199847994966,0.6972967322645542,-1.5427321280962334
1.4914258215948086,14.890274902367377,-0.04625341613395908,0.6807545014849947,-1.5652380779467288
1.4822414277554303,14.755769899581253,-0.04559052225982438,0.6642955263762449,-1.5880221102077328
1.4731875519313726,14.624548511626312,-0.04494823598075244,0.6479183531731679,-1.6109706312346777
1.4642602029838558,14.496594511709969,-0.04432525349441583,0.6316216459902634,-1.6339690512218896
1.4554556525716973,14.371891928164512,-0.0437202506271684,0.6154041894642961,-1.656901477393125
1.4467704391386405,14.25042502000655,-0.04313188370340242,0.599264892115329,-1.6796503954970146
1.4382013717587832,14.13217825174646,-0.04255879009517032,0.583202790485548,-1.702096337867433
1.4297455339046823,14.017136267285448,-0.04199958844583583,0.5672170541245638,-1.7241175362082422
1.4214002872043001,13.905283862722968,-0.041452878557986475,0.551306991500225,-1.7455895571569067
1.4131632752552976,13.796605957880395,-0.04091724093203911,0.5354720569255023,-1.7663849185751657
1.405032427568309,13.691087566327365,-0.04039123593784661,0.5197118586047993,-1.7863726844118042
1.3970059637148142,13.588713763675162,-0.03987340259710144,0.504026167917222,-1.8054180358890763
1.389082397760169,13.489469653876444,-0.03936225694935255,0.4884149300699505,-1.8233818166898317
1.3812605430683427,13.393340333242257,-0.038856289968908664,0.47287827627192663,-1.8401200497800234
1.3735395175720846,13.30031085185541,-0.038353964993673204,0.45741653759652706,-1.8554834235095137
1.3659187496107286,13.210366172023605,-0.03785371461988773,0.44203026072153573,-1.8693167447187335
1.358397984447875,13.123491123375935,-0.03735393700864679,0.4267202257551577,-1.8814583567757128
1.3509772915929492,13.039670354162688,-0.03685299154061148,0.41148746637732064,-1.891739520827107
1.3436570730644668,12.958888278270464,-0.03634919374421168,0.39633329254491767,-1.899983759137239
1.33643807274912,12.881129017413361,-0.0358408094092548,0.3812593160261169,-1.9060061603065814
1.3293213870300455,12.806376337906794,-0.03532604778149159,0.36626747903955087,-1.9096126475382187
1.3223084768805737,12.734613581375356,-0.034803053713226735,0.3513600862748178,-1.9105992131414857
1.315401181647362,12.665823588692387,-0.034269898618889544,0.33653984055487035,-1.9087511253811356
1.3086017347804522,12.599988616400992,-0.03372457005020874,0.321809882359077,-1.9038421179517802
1.3019127818094622,12.537090244830669,-0.03316495965969081,0.3071738333441484,-1.8956335782719915
1.295337400917683,12.4771092771104,-0.032588849258101835,0.2926358438585256,-1.8838737591320018
1.288879126533529,12.420025628303051,-0.031993894583437425,0.2782006442149784,-1.8682970499390936
1.2825419764478858,12.365818203969155,-0.03137760627299472,0.2638735991239904,-1.8486233601951367
1.2763304830858273,12.314464767643063,-0.03073732734758959,0.24966076413693936,-1.8245576907185292
1.2702497297262254,12.26594179701755,-0.03007020624843022,0.23556894211819973,-1.7957899999662177
1.2643053926946217,12.220224329151662,-0.029373164067606324,0.2216057365406703,-1.7619955169834887
1.2585037908865484,12.177285795835793,-0.028642854013126027,0.2077795966180128,-1.722835713495951
1.252851944461041,12.137097851500528,-0.02787561024194649,0.19409984673464842,-1.6779602312765027
1.247357645255326,12.099630197922906,-0.027067381815202633,0.18057668904157292,-1.6270101743518322
1.2420295425310026,12.064850412704342,-0.026213645428032405,0.16722116314406077,-1.569623326936103
1.236877249251902,12.032723792366507,-0.025309287362973165,0.15404504023428991,-1.5054420544939242
1.231911476490936,12.003213226269818,-0.0243484402466858,0.14106062073261258,-1.4341248892593397
1.2271442071829555,11.976279124697015,-0.023324252833118696,0.1282803949953975,-1.3553630803554968
1.2225889258967912,11.951879433415943,-0.02222856002852247,0.1157165178153197,-1.2689036552911581
1.218260929482821,11.929969777223935,-0.02105140411117876,0.10338004410474821,-1.174580674958744
1.214177755635455,11.910503784238081,-0.019780334362482842,0.09127988575380086,-1.0723561137268653
1.2103597844334104,11.893433645833476,-0.018399377657962363,0.07942149829225323,-0.962370681068035
1.2068310947072922,11.878710953500814,-0.016887519603220564,0.06780542503436347,-0.8450021471742528
1.2036206984794393,11.866287804334515,-0.01521644267530951,0.056426066628627446,-0.7209233752147561
1.200764348297997,11.85611805075354,-0.013347059139113372,0.04527146918112436,-0.5911437680783969
1.1983072642524417,11.848158341066902,-0.011223781316440612,0.03432562768525929,-0.45700766804074944
1.1963085411958332,11.84236816285479,-0.008763449249644126,0.02357615443588464,-0.32011672722069867
1.1948494474417664,11.83870708083743,-0.0058274882910231245,0.01303466573770184,-0.1821486351646849
1.1940552327251635,11.837122938474579,-0.0021146588750063913,0.002806757890825561,-0.04458146339596247
