x,y,v_x,v_y,omega
2.375,32.48,0.0,3.8974358974358974,-6.775510204081632
2.372985488024728,31.711579203751064,-0.020145119752719473,3.786772065053421,-6.23639647798034
2.3673058544919026,30.9647137702444,-0.036651215575536356,3.6818822700132054,-5.762359189805351
2.3586253033838767,30.238296987861737,-0.05015429550472311,3.5822855538134313,-5.343338413277889
2.3474928911303663,29.531312667966755,-0.06116982703037882,3.487557645136409,-4.971103664516058
2.3343641192742925,28.842824712343774,-0.07011789153035895,3.3973219110933828,-4.638875873846684
2.3196180749084716,28.171968304276337,-0.07734255212784931,3.3112421695810035,-4.341036565023662
2.303571129580857,27.517942397505152,-0.08312690114829929,3.229016898130832,-4.072902017027176
2.286487954990734,26.880003256896554,-0.08770484475292586,3.1503745079551595,-3.8305463949191925
2.2685904306531186,26.257458861807237,-0.09127039862323318,3.0750694429380148,-3.6106621558132845
2.2500648839803525,25.649664024859554,-0.0939850681044277,3.0028789265388114,-3.4104490877631632
2.2310680029325263,25.056016109788306,-0.0959837423738316,2.9336002241736647,-3.2275255258868176
2.2117316859362965,24.475951255312903,-0.09737942758846932,2.867048320580359,-3.0598568764379968
2.1921670364799697,23.908941029766623,-0.09826706697479735,2.8030539348824246,-2.905697743607083
2.1724676659265514,23.354489454961644,-0.09872663855938392,2.741461813167359,-2.7635448167895182
2.152712434246171,22.812130348528974,-0.09882567824441901,2.682129251159369,-2.6320983217743708
2.1329677320841474,22.28142494249133,-0.09862134337581908,2.624924809217051,-2.5102303266011017
2.113289387035576,21.761959742642738,-0.09816210710989406,2.569727189268866,-2.3969585634705792
2.0937242608450015,21.253344598814763,-0.09748915479585048,2.516424249010876,-2.2914247120575433
2.074311591482542,20.755210960597946,-0.09663753882874566,2.464912133157317,-2.192876308599125
2.055084123905432,20.267210296776042,-0.09563713694235443,2.415094505061727,-2.100651615144524
2.036069065218542,19.78901265978606,-0.09451344992654345,2.366881864838119,-2.014166916096983
2.0172888934570454,19.320305379064973,-0.09328826768842298,2.3201909423727396,-1.932905813407642
1.9987620439888414,18.8607918692827,-0.09198022699361906,2.274944155449993,-1.8564101740500143
1.9805034933102594,18.410190541266356,-0.0906052797922017,2.231069124713443,-1.7842724486650576
1.9625252565809905,17.968233804953563,-0.08917708750048507,2.1884982384144758,-1.716129132282445
1.9448368124528117,17.534667155020017,-0.08770735378130363,2.1471682609210117,-1.6516551796699708
1.92744546646548,17.109248330947104,-0.08620610609201407,2.1070199798081086,-1.5905592213515476
1.9103566624127262,16.691746544259907,-0.08468193443552358,2.0679978870638775,-1.532579453374545
1.893574249542688,16.28194176649919,-0.08314219426485993,2.0300498905432707,-1.477480095827692
1.8771007121876455,15.879624072213936,-0.08159317928556321,1.9931270523092643,-1.4250483329486554
1.8609373673673892,15.484593031889826,-0.08004026891699849,1.957183350931818,-1.3750916622294065
1.8450845350387124,15.096657150278372,-0.07848805436976958,1.9221754651827305,-1.327435591868742
1.8295416849380295,14.715633346072138,-0.07694044663706043,1.8880625768796089,-1.2819216357422274
1.8143075633587884,14.341346469293864,-0.0754007691553509,1.8548061909031257,-1.2384055631634878
1.7993803026990007,13.973628853138994,-0.0738718374425263,1.8223699706455723,-1.1967558674187844
1.7847575161896194,13.612319897339322,-0.072356027651287,1.7907195873511326,-1.1568524226266652
1.7704363798576113,13.257265680405801,-0.07085533566879385,1.7598225819840723,-1.1185853031131017
1.756413703476909,12.908318598365984,-0.06937142813822883,1.7296482384140945,-1.0818537433667874
1.7426859920065692,12.5653370278404,-0.06790568656517065,1.700167466841763,-1.0465652198842355
1.7292494988006637,12.228185011505836,-0.06645924549388432,1.6713526965038787,-1.0126346389395806
1.7161002716923046,11.896731964175313,-0.0650330255897073,1.6431777768013631,-0.9799836166088765
1.7032341928994632,11.570852397886927,-0.06362776233870679,1.6156178860824884,-0.9485398393161085
1.690647013568531,11.25042566453929,-0.06224403097061595,1.5886494473938895,-0.9182364948078998
1.67833438365923,10.93533571474169,-0.06088226812239332,1.5622500505820947,-0.8890117648550779
1.666291877778506,10.625470871664426,-0.0595427906848461,1.5363983801905339,-0.8608083721623832
1.6545150174888863,10.320723618780157,-0.05822581221135161,1.5110741486521628,-0.8335731749760669
1.6429992905463577,10.020990400482255,-0.0569314572139343,1.486258034326861,-0.8072568037406804
1.631752625712556,9.726173432047002,-0.05553519112408228,1.4619116500256697,-0.7783393315271275
1.6207816710207905,9.43617839735072,-0.05417435579357142,1.438038696937165,-0.7507358827198246
1.6100794098928082,9.150912294898873,-0.05284825548625324,1.414622327581311,-0.7243712405934771
1.5996389681695806,8.870285415964851,-0.05155616174602082,1.3916464617588953,-0.6991753113137297
1.5894536198486797,8.594211195527858,-0.05029732146298816,1.3690957426110157,-0.6750827195245002
1.5795167913234387,8.322606071699493,-0.049070963789424486,1.3469554956726482,-0.6520324401225036
1.5698220643387506,8.055389353063902,-0.04787630605745405,1.325211690683248,-0.629967462607386
1.5603631778499776,7.792483093401707,-0.04671255883027674,1.3038509059386882,-0.6088344847928111
1.5511340289468296,7.533811973309035,-0.04557893020120251,1.282860294988036,-0.588583633013219
1.542128672982737,7.279303188260638,-0.044474629439721663,1.2622275554959506,-0.5691682062689589
1.533341323031684,7.028886342700336,-0.04339887007081112,1.241940900107058,-0.5505444420243887
1.5247663487783614,6.7824933497733575,-0.04235087246241398,1.2219890291627256,-0.5326713016139102
1.516398274933492,6.540058336343748,-0.04132986598627789,1.2023611051333547,-0.5155102734237125
1.508231779253976,6.301517552966331,-0.04033509080888633,1.1830467286408148,-0.49902519220565417
1.5002616902368986,6.066809288506644,-0.039365799361885646,1.1640359159560518,-0.4831820730471872
1.4924829845472054,5.835873789124403,-0.03842125753504541,1.1453190778663496,-0.4679489586700832
1.484890784230775,5.608653181356239,-0.03750074562925809,1.1268869998153006,-0.45329577886320865
1.477480353757622,5.385091399052076,-0.03660355910227359,1.108730823226336,-0.4391942209726529
1.4702470969338268,5.165134113936666,-0.03572900913567731,1.090842027927758,-0.42561761047784247
1.4631865537154618,4.948728669583524,-0.034876423047973476,1.0732124156036806,-0.41254080077636524
1.4562943969531186,4.73582401860304,-0.03404514457545723,1.0558340942011732,-0.39994007138437115
1.4495664290915942,4.526370662859996,-0.033234534039786656,1.0386994632292814,-0.38779303383475294
1.442998578845741,4.320320596548019,-0.03244396841874697,1.0218011998905097,-0.37607854462283885
1.4365868978704075,4.117627251959984,-0.03167284133458667,1.0051322459898457,-0.3647766246099232
1.4303275574397027,3.9182454478039475,-0.030920562972460302,0.9886857955705151,-0.35386838434939427
1.424223502149627,3.722309107103065,-0.030119989928296655,0.9706776114383247,-0.378918405916697
1.4182749917671313,3.529963292204311,-0.029365113896660036,0.9527805375492113,-0.405634320799989
1.412472999117698,3.3411860803344346,-0.028654812597672965,0.9349915811495554,-0.433906258515409
1.406808725729233,3.1559561355415795,-0.02798792128697895,0.9173078667789826,-0.46362686741843895
1.401273609806513,2.974252685666908,-0.027363237940217642,0.8997266319677478,-0.4946910726413294
1.395859333216936,2.796055500136891,-0.0267795279555552,0.8822452233324348,-0.5269958396471864
1.3905578275805515,2.621344868497797,-0.026235528408289514,0.8648610930585185,-0.5604399424088474
1.3853612795508905,2.450101579615847,-0.025729951888318846,0.8475717957609654,-0.5949237352307233
1.3802621353672389,2.2823069014680826,-0.025261489948198795,0.8303749857166961,-0.6303489272345433
1.3752531047537597,2.117942561449869,-0.02482881618659183,0.8132684144654398,-0.6666183585252531
1.3703271642361896,1.9569907271254934,-0.024430588989110824,0.7962499287783041,-0.7036357770409866
1.3654775599426936,1.7994339873480314,-0.024065453945849236,0.7793174689963012,-0.7413056150707521
1.3606978099518836,1.6452553336739868,-0.023732045962251216,0.7624690677441568,-0.7795327643948569
1.3559817062479205,1.494438141996767,-0.023428991077380418,0.7457028490280253,-0.8182223489656643
1.3513233163400753,1.3469661543210343,-0.02315490800107128,0.7290170277292884,-0.8572794939994712
1.3467169846020817,1.202823460597056,-0.022908409378864698,0.7124099095104937,-0.8966090902934282
1.3421573333850938,1.0619944805306325,-0.022688102791013774,0.6958798911537432,-0.9361155525137435
1.337639263957076,0.9244639452796015,-0.02249259148916522,0.6794254613565607,-0.9757025701220355
1.3331579573210048,0.7902168789423953,-0.022320474871546713,0.663045202015514,-1.0152728495146583
1.3287088749643916,0.6592385797374689,-0.022170348694585663,0.6467377900337635,-1.054727845844051
1.3242877595933518,0.5315146007645595,-0.022040805015813732,0.6305019996953433,-1.0939674828705148
1.3198906359058071,0.40703073022937275,-0.02193043185963252,0.6143367056564926,-1.1328898590560832
1.3155138114604454,0.28577297100243726,-0.021837812593984453,0.5982408866128912,-1.171390937958108
1.3111538777008331,0.16772751937001118,-0.021761525002138283,0.5822136297113739,-1.2093642208076425
1.3068077111976588,0.052880742820292426,-0.021700140029604614,0.5662541357858063,-1.2467003989656098
1.3024724751765404,-0.058780843309236275,-0.02165222018157992,0.5503617255095145,-1.283286983737316
1.2981456214042617,-0.16727060051731257,-0.021616317541206357,0.5345358465712251,-1.319007910792779
1.2938248925128164,-0.2726017933742497,-0.02159097137324754,0.5187760819981685,-1.3537431161870441
1.2895083248483492,-0.3747876175509788,-0.02157470527142483,0.5030821597691408,-1.387368080702764
1.2851942519411539,-0.4738412299161183,-0.021566023800527277,0.48745396388225226,-1.419753338950262
1.2808813087034634,-0.5697757810110602,-0.021563408576377445,0.4718915470671616,-1.4507639493641522
1.2765684364740597,-0.6626044502537951,-0.02156531371765872,0.45639514536019044,-1.4802589209403698
1.2722548890429624,-0.7523404842691335,-0.021570160593314135,0.4409651947931601,-1.5080905922788992
1.2679402398058808,-0.8389972387967859,-0.021576331777501588,0.4256023504833908,-1.5341039582595952
1.2636243902170632,-0.9225882246904433,-0.021582164110674297,0.41030750845319336,-1.5581359395172927
1.259307579731004,-1.003127158590992,-0.02158594074991646,0.3950818305522611,-1.5800145898512035
1.2549903974486358,-1.0806280189367286,-0.021585882073766046,0.3799267729051062,-1.5995582368807035
1.2506737957126781,-1.1551051080629193,-0.021580135285810112,0.3648441183568352,-1.6165745517592969
1.2463591059304453,-1.2265731212427795,-0.021566762536518617,0.3498360134417353,-1.6308595447471532
1.242048056941503,-1.2950472236315704,-0.02154372735290384,0.33490501044616044,-1.642196485161735
1.237742796293323,-1.3605431361934919,-0.021508879128896617,0.32005411517305427,-1.650354747026374
1.233445914842118,-1.4230772318136715,-0.021459935383153165,0.30528684102875076,-1.6550885861274258
1.2291604751606804,-1.4826666429190851,-0.021394461431223488,0.29060727002536835,-1.6561358609116414
1.2248900443136443,-1.5393293820412026,-0.021309847039137696,0.2760201211957895,-1.6532167197826724
1.220638731658215,-1.5930844768316703,-0.021203279515156357,0.26153082670886907,-1.646032292455477
1.2164112324527985,-1.6439521210607992,-0.021071712539010065,0.24714561558238662,-1.634263445380941
1.2122128782192678,-1.6919538430407286,-0.02091182979629716,0.23287160421689215,-1.6175696941804787
1.208049695026101,-1.737112692648246,-0.020720002135371136,0.21871689185831025,-1.5955884143535182
1.2039284711703861,-1.7794534475646913,-0.020492236421777367,0.20469065730614783,-1.5679345622060676
1.1998568361872257,-1.8190028383323593,-0.020224113409826227,0.1908032503705021,-1.534201220963561
1.1958433537881517,-1.855789790093752,-0.01991071058091339,0.1770662672434579,-1.4939614363893978
1.1918976323621298,-1.8898456760570639,-0.01954650367930511,0.16349259238965924,-1.4467720210288217
1.1880304582888135,-1.921204573282111,-0.019125237053858362,0.15009637986080868,-1.3921803109970148
1.1842539598859732,-1.9499035045724256,-0.018639746974544503,0.13689293304234873,-1.3297352820474178
1.1805818139540107,-1.975982640165654,-0.018081712345079375,0.12389842288990352,-1.25900499537927
1.1770295135907056,-1.99948541855872,-0.017441291287970884,0.11112936104074303,-1.1796030414810128
1.173614726842292,-2.0204585266385493,-0.016706576196165075,0.09860171975752954,-1.0912273858353705
1.1703577933911067,-2.038951656461407,-0.015862758315689774,0.08632957847107046,-0.9937154765343342
1.1672824348608373,-2.055016935245895,-0.014890826987005397,0.07432320937377607,-0.8871188614264506
1.1644167998499768,-2.0687079223867073,-0.013765523121599777,0.06258666203433477,-0.7717972314916703
1.1617950390970202,-2.08007811837615,-0.012452084407965367,0.051115297860102146,-0.648522944542384
1.1594597373976019,-2.0891791037367327,-0.010900932586217316,0.03989455574573909,-0.5185694600837952
1.1574658112537182,-2.096058837111862,-0.009038328852619924,0.02890277800557063,-0.383731005170141
1.155887306706815,-2.1007615216495026,-0.006746716616412712,0.018124067370826967,-0.24619779934205088
1.154831982496072,-2.1033328387532464,-0.0038065254910161447,0.007589103666620564,-0.1082170601458064
