x,y,v_x,v_y,omega
2.375,32.48,0.0,3.8974358974358974,-6.408163265306122
2.3734649136944963,31.787575717215457,-0.0170565145055944,3.7961672446145447,-5.946439780149815
2.3691125645760525,31.11295277449788,-0.03130292014378182,3.6996432300251803,-5.534973587630087
2.3624085727298163,30.455309178316416,-0.043185878147731165,3.6075078386577837,-5.166723068266705
2.353745093755291,29.8138836325301,-0.05307499934699559,3.519442670079061,-4.835810378314004
2.3434533695315443,29.187969251075707,-0.06127749202796897,3.435161568303057,-4.537302529581981
2.3318139188076676,28.576908148130535,-0.06804973823732577,3.3544062421988836,-4.267038503673588
2.3190648566228464,27.98008674754434,-0.07360650826068793,3.276942653203243,-4.0214916946601305
2.30540872005249,27.396931688274847,-0.07812834252104975,3.2025580053467206,-3.7976597079580263
2.291018094220587,26.826906228537787,-0.08176750005564967,3.1310582139539362,-3.5929755150647047
2.276040269226414,26.269507070959254,-0.08465277765738381,3.062265759140879,-3.4052354041983333
2.260601110229406,25.7242615459622,-0.08689343342048567,2.9960178519374967,-3.232540231038334
2.244808285599158,25.190725102167583,-0.08858239580449172,2.932164856891589,-3.0732472680732847
2.2287539690151497,24.668479061618296,-0.08979889957337912,2.870568926989374,-2.9259305495188426
2.212517108683627,24.157128604768566,-0.09061065966575867,2.8111028157854103,-2.789348063526261
2.1961653389440743,23.65630095587759,-0.09107567077371904,2.753648838558777,-2.6624144916830166
2.1797565953588696,23.16564374403771,-0.09124370239522037,2.6980979596621237,-2.544178464475142
2.163340483084786,22.684823518801643,-0.09115754509459409,2.6443489874052766,-2.4338035100263467
2.1469594392822886,22.21352440243573,-0.09085405271093576,2.5923078611048256,-2.330552036473705
2.1306497230452135,21.75144686335708,-0.09036501658989983,2.5418870175468395,-2.2337718164937037
2.1144422604575235,21.29830659741918,-0.08971790105109742,2.4930048262076254,-2.1428845437737585
2.0983633676173077,20.853833505475883,-0.08893646384019167,2.4455850842734614,-2.0573761116804956
2.082435370586513,20.417770757141902,-0.08804128094641499,2.399556563881901,-1.9767883286004182
2.0666771380520936,19.98987393192985,-0.08705019165824633,2.3548526051409087,-1.9007118359323243
2.051104539881716,19.569910230019502,-0.08597867690150755,2.3114107494184744,-1.828780036194656
2.03573084261525,19.15765774583621,-0.08484018161477601,2.2691724081736817,-1.760663872263738
2.020567051164769,18.752904798407997,-0.08364639005723482,2.2280825632509025,-1.696067326005184
2.0056222045310967,18.355449313155894,-0.08240746142801199,2.1880894951058054,-1.6347235267703977
1.9909036321283309,17.965098250365905,-0.0811322319360556,2.149144535894047,-1.5763913784003942
1.976417176294293,17.58166707610831,-0.07982838844214277,2.111201844745877,-1.5208526282970414
1.9621673857183501,17.20497927182158,-0.07850261795722242,2.0742182028844898,-1.4679093144108546
1.9481576838090957,16.834865879174053,-0.07716073659004928,2.038152826532456,-1.4173815361509077
1.9343905154291545,16.471165077164414,-0.07580780096485114,2.002967195796864,-1.3691055036427224
1.920867474923387,16.11372178872843,-0.07444820465478946,1.9686248979362944,-1.3229318267621268
1.9075894179441064,15.762387314390459,-0.07308576178166079,1.9350914835967135,-1.2787240112129719
1.8945565592195375,15.417018990738072,-0.07172377960243996,1.9023343347631496,-1.2363571338010082
1.881768558108855,15.077479871711201,-0.07036512162736401,1.870322543313198,-1.1957166731527287
1.8692245935299292,14.743638430886811,-0.06901226258292406,1.839026799180006,-1.1566974755728343
1.8569234296269812,14.41536828310911,-0.06766733633872174,1.808419287238903,-1.1192028386383492
1.8448634733586904,14.092547923966322,-0.06633217775339736,1.7784735921253947,-1.083143697582251
1.8330428250277895,13.775060485750323,-0.06500835925661329,1.7491646102745861,-1.0484379015994318
1.8214593226366507,13.462793508656581,-0.06369722286715174,1.7204684685447769,-1.0150095689743162
1.81011058083628,13.155638726090853,-0.06239990824807684,1.6923624488522158,-0.9827885114332194
1.7989940251355372,12.853491863047068,-0.0611173773157343,1.6648249183009558,-0.9517097194075126
1.7881069219508254,12.556252446609175,-0.05985043584773011,1.6378352643422975,-0.921712900990661
1.7774464050018732,12.263823627709474,-0.058599752473958204,1.6113738345432866,-0.8927420683122091
1.7670094984947846,11.976112013348036,-0.0573658753825836,1.5854218805838087,-0.8647451658589145
1.7567931374778092,11.69302750854311,-0.0561492470282536,1.559961506137604,-0.8376737359677026
1.7467941857070266,11.414483167341519,-0.05495021709155237,1.5349756183245198,-0.8114826173138113
1.737009451317259,11.140395052271813,-0.053769053905867135,1.5104478824499716,-0.7861296727346389
1.727435700557168,10.870682101671719,-0.052605954539586004,1.4863626797732927,-0.7615755431773479
1.7180757698322102,10.605267528324152,-0.05139327573772297,1.4626881351996746,-0.7360587453076896
1.7089316063590743,10.344077088761551,-0.05020854063045688,1.4394278599403407,-0.7116115277668169
1.6999982240210474,10.087037452950238,-0.04905126312539734,1.4165680935187144,-0.6881771164521117
1.6912707264854212,9.834077715722657,-0.04792093171489274,1.3940956534543887,-0.6657023201088135
1.6827443112903326,9.58512929549989,-0.046817014897202816,1.3719979045763617,-0.6441372679727408
1.6744142730196452,9.340125838363551,-0.04573896588821431,1.3502627302718535,-0.6234351692014671
1.6662760056857666,9.099003127141497,-0.044686226710435074,1.3288785055287398,-0.6035520920743165
1.6583250044256526,8.861698995196178,-0.043658231735276325,1.3078340716414814,-0.5844467611478387
1.6505568666024022,8.62815324462694,-0.04265441074528158,1.2871187124611643,-0.5660803707367315
1.6429672923935947,8.398307568618232,-0.04167419157480131,1.266722132080014,-0.5484164132532746
1.6355520849376193,8.172105477684568,-0.04071700238048449,1.2466344338495912,-0.5314205210836362
1.6283071501005701,7.94949222958051,-0.039782273586727,1.2268461006399358,-0.5150603208090042
1.621228495918646,7.730414762660033,-0.0388694395457633,1.207347976254248,-0.49930529869522616
1.614312231764269,7.514821632484317,-0.03797793994731233,1.1881312479203798,-0.48412667647811203
1.607554567278246,7.302662951490696,-0.03710722100850155,1.1691874297865033,-0.469497296564169
1.60095181110508,7.09389033154806,-0.03625673647112085,1.1505083473538888,-0.4553915158495321
1.594500369463976,6.888456829235576,-0.035425948430033306,1.1320861227848151,-0.4417851074343082
1.5881967445840368,6.686316893692396,-0.034614328013737206,1.1139131610282842,-0.42865516957641686
1.582037533028598,6.487426316895906,-0.03382135593558281,1.0959821367104832,-0.4159800412891227
1.5760194239305196,6.291742186235286,-0.03304652293195623,1.0782859817408406,-0.4037392240405569
1.5701391971574803,6.099222839255681,-0.03228933010181348,1.0608178735881093,-0.3919133090622606
1.5643937214238948,5.909827820456172,-0.03154928916024859,1.0435712241842034,-0.38048390981773567
1.558779952363917,5.723517840032105,-0.030825922617281638,1.0265396694165396,-0.369433599221661
1.5532949305781059,5.540254734459101,-0.030118763891731806,1.0097170591724196,-0.35874585123627983
1.5479357796646511,5.360001428822443,-0.029427357368875067,0.9930974479015501,-0.34840498650388274
1.5427058353114318,5.1829428632624825,-0.02868313544467252,0.9742199472091221,-0.387360561588167
1.5376052988733155,5.009273050253352,-0.02798949164550977,0.9554446417812155,-0.42747687344007235
1.532625223244351,4.838973822227892,-0.02734468200965328,0.9367690029461191,-0.4686523721325638
1.5277569752771183,4.672027457854995,-0.026746962070708456,0.9181906011972029,-0.5107868962309406
1.5229922356888685,4.508416664407747,-0.0261945889098442,0.8997071037722063,-0.553781448886246
1.5183229986235607,4.348124560535396,-0.025685822926909026,0.8813162725872338,-0.5975379748239976
1.5137415709189712,4.191134659375127,-0.02521892934630967,0.8630159625268835,-0.6419591372319194
1.5092405711253982,4.037430851939174,-0.024792179471165604,0.8448041200948306,-0.6869480935244299
1.5048129283202698,3.886997390711734,-0.024403851696927808,0.8266787824322605,-0.7324082689271849
1.5004518807611462,3.7398188733884936,-0.024052232293335054,0.808638076714861,-0.7782431267814465
1.4961509744182333,3.5958802266893137,-0.02373561596125142,0.7906802199426826,-0.824355934414783
1.4919040614265504,3.4551666901717724,-0.023452306168559128,0.7728035191411117,-0.8706495233608724
1.4877052984973642,3.3176637999694734,-0.023200615266844297,0.7550063719955598,-0.9170260426360866
1.4835491453284209,3.1833573723746156,-0.022978864388080316,0.7372872679473078,-0.9633867036931282
1.479430363052887,3.0522334871788566,-0.02278538311785268,0.7196447897833638,-1.0096315155711526
1.4753440127677842,2.9242784706800187,-0.02261850893884563,0.7020776157592811,-1.0556590086463524
1.4712854541841123,2.7994788782546145,-0.02247658643528643,0.6845845223007756,-1.101365945255596
1.4672503444428167,2.6778214763871446,-0.022357966245775497,0.667164387337791,-1.1466470153169945
1.4632346371433433,2.559293224036722,-0.02226100374837237,0.6498161943335633,-1.191394514903812
1.4592345816347783,2.4438812532093763,-0.02218405745790631,0.6325390370813965,-1.2354980055404576
1.4552467226235608,2.3315728485902376,-0.02212548711117627,0.6153321253534972,-1.2788439517800962
1.4512679001565711,2.222355426073463,-0.022083651410931642,0.5981947914995499,-1.3213153343915358
1.4472952500441087,2.1162165100087797,-0.02205690539420657,0.5811264981080332,-1.362791236227762
1.4433262047940134,2.0131437089615787,-0.02204359738463017,0.564126846860872,-1.4031463975697767
1.4393584951360476,1.9131246897581988,-0.022042065481655035,0.5471955887322388,-1.4422507374382734
1.4353901522248078,1.8161471495587982,-0.02205063353212266,0.530332635705538,-1.4799688370449124
1.4314195106200187,1.7221987856664676,-0.02206760652108693,0.5135380742092336,-1.5161593812197363
1.4274452121552939,1.6312672627423979,-0.02209126530919172,0.4968121805026426,-1.550674553310649
1.4234662108204996,1.5433401770521833,-0.022119860632965123,0.4801554382775291,-1.5833593787192979
1.4194817787990588,1.4584050173169452,-0.022151606271933355,0.4635685587806794,-1.614051011937682
1.4154915138200863,1.3764491216840646,-0.022184671272204304,0.4470525038068761,-1.6425779617154737
1.411495348006607,1.2974596302649672,-0.022217171099788983,0.4306085119608708,-1.6687592488703684
1.4074935584256074,1.2214234326108233,-0.022247157577983945,0.41423812864073556,-1.6924034913281196
1.4034867795738943,1.1483271094104452,-0.02227260744104961,0.3979432402523648,-1.7133079113558611
1.3994760180662649,1.0781568675975883,-0.02229140931038874,0.38172611322383404,-1.7312572607935606
1.3954626698301815,1.0108984679473885,-0.022301348868316525,0.3655894384450377,-1.7460226616296044
1.391448540155035,0.9465371441247896,-0.02230009196664674,0.3495363818060674,-1.7573603618508082
1.3874358669956206,0.885057512023959,-0.022285165360177245,0.33357064153650806,-1.7650104106241955
1.3834273479906676,0.826443468112064,-0.022253934694858157,0.31769651304008867,-1.7686952632655824
1.379426171731052,0.7706780753721532,-0.0222035793008702,0.3019189618477919,-1.7681183361796795
1.3754360539030657,0.7177434353436851,-0.02213106323231073,0.2862437051351732,-1.7629625465671932
1.3714612790463774,0.6676205447104735,-0.022033101842003005,0.2706773019004965,-1.7528888934490434
1.367506748814506,0.6202891349243842,-0.021906122956568172,0.25522725127825396,-1.7375351687613207
1.3635780378240911,0.575727493542125,-0.021746221381376538,0.2399020974135184,-1.7165149347472528
1.3596814584544494,0.5339122663896987,-0.02154910494797568,0.22471153761343826,-1.6894169736176492
1.3558241363538746,0.49481824050468504,-0.021310029502857222,0.20966652777560096,-1.6558055175657318
1.3520140989945686,0.4584181092674484,-0.02102371893387522,0.19477937486034802,-1.6152217160569544
1.3482603805108562,0.424682223556772,-0.020684264218484478,0.18006379970275066,-1.5671870127562522
1.344573147449302,0.3935783366438699,-0.020284992021007295,0.16553494377394945,-1.5112094128157558
1.3409638522766512,0.3650713565577348,-0.019818287675110843,0.15120927940535578,-1.446794054290567
1.3374454250660635,0.33912312871212436,-0.019275347998086983,0.1371043633236731,-1.3734600858785624
1.33403251959351,0.3156922847095913,-0.01864582391917365,0.12323834781559065,-1.2907666060127636
1.3307418395574038,0.2947342112403959,-0.017917287593119446,0.10962913517549935,-1.1983512698435743
1.3275925860829627,0.2762012154743374,-0.017074417678448892,0.09629304000290168,-1.0959858592911522
1.32460709271437,0.26004298633234413,-0.01609773086146958,0.08324283935257758,-0.9836529344167183
1.3218117544836692,0.24620746206043265,-0.014961582812984063,0.07048520811312038,-0.861645082791099
1.3192384233107393,0.23464218384285118,-0.01363098577512627,0.058017883193338025,-0.730680389084867
1.3169265549011482,0.22529608306069093,-0.012056440998108818,0.04582768105286107,-0.5920106951037806
1.3149266206813668,0.21812131221049214,-0.010165050332796726,0.033891995060495395,-0.4474713991077246
1.3133059142514563,0.21307399793467852,-0.007842798888430735,0.022189274670772363,-0.29939189487500345
1.3121602373108514,0.21011100300345475,-0.004886944896067609,0.010732891231694247,-0.1502803375568127
1.311649927414289,0.20917082507955342,-0.0007831650657364863,-0.0002864698550367889,-0.002295911903681558
