x,y,v_x,v_y,omega
2.375,32.48,0.0,2.923076923076923,-2.612244897959184
2.374539268891069,31.95936289569513,-0.005119234543678485,2.861779791421624,-2.467083092645695
2.373217552018452,31.449568782076756,-0.009566508485396748,2.8025992487825104,-2.3338214480340738
2.371148282132338,30.950247238843843,-0.013425379138090552,2.7454178982498467,-2.211182568187388
2.368430863955973,30.461048190192216,-0.016768156154858955,2.690127086768261,-2.0980517908658136
2.3651525490951677,29.981640406282374,-0.01965756452075363,2.6366260677855142,-1.9934535908577284
2.36139003583969,29.51171014639236,-0.022148138317887058,2.584821264325733,-1.8965317941733644
2.3572108380447663,29.0509599270099,-0.024287392736819513,2.5346256177016167,-1.8065329268140435
2.352674459552587,28.599107400545073,-0.026116812731840064,2.48595800968537,-1.7227921525149412
2.3478334043501987,28.15588433235061,-0.027672689516920687,2.43874274803086,-1.644721357222993
2.342734047561685,27.721035665406646,-0.028986830355453776,2.392909106902072,-1.5717990202636956
2.337417388205323,27.29431866342583,-0.030087162493014512,2.348390915106993,-1.5035615778363425
2.3319197012271826,26.875502124314444,-0.030998248375208353,2.305126186130641,-1.4395960372202994
2.326273103506893,26.46436565692541,-0.03174172629468132,2.263056784858654,-1.3795336426150748
2.320506046204433,26.060699014891973,-0.032336688177092086,2.222128126623958,-1.3230444279935005
2.3146437438876406,25.664301482061592,-0.032800004231710825,2.1822889048247074,-1.2698325203688334
2.308708549275558,25.274981304678516,-0.03314660256920931,2.1434908438761444,-1.2196320797523676
2.3027202810942113,24.89255516600744,-0.03338971055686294,2.1056884746913416,-1.1722037808215702
2.2966965114215236,24.51684769956264,-0.03354106358411292,2.068838930250906,-1.1273317567301813
2.290652817958511,24.14769103751821,-0.033611086004917634,2.032901759131649,-1.0848209382060594
2.284603005873576,23.7849243912348,-0.033609048272138176,1.9978387551284877,-1.0444947316056574
2.278559303200139,23.42839366115352,-0.03354320365493543,1.9636138013301396,-1.0061929883305727
2.2725325332043025,23.077951073585474,-0.03342090740991858,1.9301927272037438,-0.9697702252866076
2.2665322666616223,22.733454842170104,-0.03324872084207985,1.897543177411479,-0.935094062141169
2.2605669565763713,22.39476885199258,-0.0330325023273765,1.8656344912276979,-0.9020438462225734
2.25464405753124,22.06176236454245,-0.03277748706297251,1.8344375915515116,-0.8705094401769105
2.2487701315607422,21.734309741867015,-0.032488357053669245,1.8039248826199623,-0.8403901510946696
2.2429509421895917,21.412290188425125,-0.03216930262578023,1.77407015562328,-0.8115937828547984
2.2371915380614364,21.09558750928329,-0.031824076575947303,1.7448485015082231,-0.7840357960020427
2.2314963273980033,20.78408988341787,-0.031456041906641696,1.7162362303297831,-0.757638561651397
2.225869144369304,20.477689650996254,-0.031068213967795515,1.6882107965770161,-0.7323306977648193
2.2203133083181763,20.17628311360823,-0.03066329771140151,1.6607507299566038,-0.7080464777225418
2.214831676663861,19.87977034650693,-0.030243720669878987,1.6338355711689767,-0.6847253024578691
2.209426692206748,19.588055021998564,-0.029811662186933333,1.6074458122572783,-0.6623112285764439
2.2041004254675807,19.301044243191924,-0.02936907935937055,1.5815628411498703,-0.6407525458687017
2.198854612617312,19.018648387383656,-0.028917730088057394,1.5561688900530846,-0.6200013984727752
2.1936906894867887,18.740780958414405,-0.028459193584426865,1.5312469873830674,-0.6000134446754848
2.188609822087099,18.46735844738404,-0.02799488863434696,1.5067809129542993,-0.5807475509689264
2.183612934020562,18.198300201163022,-0.027526089882728245,1.482755156168112,-0.5621655165243777
2.1787029468586656,17.933528888876907,-0.02702932302723302,1.4591483136776098,-0.5433434343035318
2.1738821058148843,17.672969761957376,-0.0265355774592246,1.4359530965394345,-0.5253114972271319
2.1691498123185253,17.416549954265008,-0.02604546138920838,1.413155877820186,-0.5080277146418385
2.164505365639394,17.164199001253472,-0.025559501712251485,1.3907436000857707,-0.4914527473058997
2.1599479767449465,16.91584874016431,-0.025078152670498403,1.3687037453493742,-0.47554971320675965
2.1554767806805795,16.67143321546179,-0.02460180360024699,1.3470243069008598,-0.4602840095007166
2.151090847628777,16.43088858918144,-0.024130785864227657,1.32569376288079,-0.44562314908109607
2.146789192785772,16.194153055889547,-0.023665379058048462,1.3047010514735755,-0.431536610433835
2.14257078517929,15.961166761972521,-0.02320581656952516,1.2840355476045067,-0.41799569957483684
2.138434555537577,15.731871728994989,-0.022752290560620708,1.2636870410347456,-0.4049734229839994
2.134379403308078,15.50621178088375,-0.022304956433812115,1.2436457157568246,-0.3924443705582129
2.1304042029136383,15.284132474711551,-0.02186393683774431,1.2239021306009144,-0.3803846077014262
2.1265078093247602,15.065581034870245,-0.021429325260900696,1.2044472009691554,-0.3687715757554416
2.122689063018184,14.850506290437064,-0.02100118925661396,1.1852721816217557,-0.35758400005160235
2.118946794384671,14.638858615551108,-0.020579573337967772,1.166368650444423,-0.34680180493202356
2.1152798276423312,14.430589872629227,-0.020164501576922334,1.1477284931320415,-0.336406035150394
2.1116869843059645,14.225653358261788,-0.019755979938265587,1.1293438887284124,-0.3263787831174417
2.1081670862577084,14.02400375163926,-0.019353998375688186,1.1112072959663553,-0.31670312150561264
2.1047189584596047,13.825597065370197,-0.018958532714352435,1.0933114403565802,-0.30736304077198134
2.1013414313445575,13.63039059856013,-0.018569546341727826,1.0756493019775133,-0.29834339119842984
2.098033342918448,13.438342892029198,-0.018186991726159694,1.058214103921718,-0.28962982908419344
2.0947935406028404,13.249413685554046,-0.017810811780587934,1.0409993013577419,-0.28120876675838613
2.0916208828447567,13.063563877026628,-0.01744094108700986,1.0239985711691362,-0.273067326109477
2.0885142405173163,12.880755483429247,-0.017077306995658608,1.007205802135099,-0.26519329535521236
2.0854724981326793,12.700951603531319,-0.0167198306114228,0.9906150856196658,-0.2575750888004709
2.082497229783123,12.52433675500853,-0.016338706605870803,0.9717721201890982,-0.2986171720952745
2.079586954968687,12.35110455901021,-0.015997680221191617,0.9530300575700273,-0.3407555792610733
2.0767345726728808,12.18123707681869,-0.015695456398877792,0.9343864112246356,-0.38389236191292236
2.073933216652697,12.014716808697393,-0.015430721603168423,0.9158387901231044,-0.42793078338184637
2.071176258504979,11.85152667690068,-0.015202146704802947,0.8973848965070518,-0.47277510615906854
2.0684573102428447,11.691650009056044,-0.015008389541137186,0.8790225239889082,-0.5183303793923937
2.065770226438835,11.53507052185795,-0.014848097170084222,0.8607495559899241,-0.5645022254869263
2.0631091059885724,11.38177230501185,-0.014719907832832078,0.842563964522278,-0.6111966248296294
2.0604682935462146,11.23173980536571,-0.014622452637809131,0.8244638093237442,-0.6583196976161341
2.0578423806809814,11.084957811164479,-0.014554356975891988,0.8064472373566061,-0.7057774817080504
2.0552262068024594,10.941411436360642,-0.014514241674353131,0.7885124826860388,-0.7534757053890478
2.052614859901263,10.801086104910762,-0.014500723894499466,0.7706578667570794,-0.801319553817295
2.050003677150978,10.663967534984199,-0.014512417775328428,0.7528817990936282,-0.849213427889495
2.0473882454171473,10.530041723005475,-0.014547934822793663,0.7351827784477599,-0.8970606941365816
2.0447644017193705,10.399294927446203,-0.014605884041392498,0.7175593944330582,-0.9447634241619121
2.04212823369349,10.271713652275864,-0.014684871801724292,0.7000103296818276,-0.9922221220081059
2.0394760801022405,10.14728462997293,-0.014783501434379823,0.6825343625730086,-1.0393354376970039
2.0368045314448198,10.02599480398866,-0.014900372536959906,0.6651303705855587,-1.0859998650269251
2.0341104307185516,9.907831310545255,-0.015034079977133647,0.6477973343411432,-1.1321094215307268
2.0313908743892757,9.792781459637617,-0.01518321257037381,0.6305343424103789,-1.1775553082953392
2.028643213631377,9.680832715093487,-0.015346351406281588,0.6133405969688289,-1.222225547116685
2.025865055903517,9.571972673530048,-0.015522067792160137,0.596215420402703,-1.2660045922115604
2.023054266932326,9.466189042025597,-0.015708920776629214,0.5791582629800738,-1.3087729134288335
2.020208973183575,9.363469614302435,-0.015905454209494373,0.5621687117217096,-1.3504065475954503
2.017327564908919,9.263802245191076,-0.016110193286681333,0.5452465006267334,-1.3907766142984268
2.0144086998662556,9.16717482311573,-0.016321640520690545,0.5283915224326657,-1.4297487920439778
2.0114513078233123,9.073575240306216,-0.016538271067570363,0.5116038421174725,-1.4671827503532486
2.00845459596747,8.982991360401126,-0.016758527330676523,0.4948837123835197,-1.5029315329584003
2.005418055360274,8.895410983060579,-0.016980812749278196,0.4782315914003489,-1.5368408868659191
2.0023414685928858,8.810821805153257,-0.017203484666145158,0.4616481631254368,-1.5687485316766954
1.9992249188192246,8.729211378020668,-0.01742484615231462,0.44513436057000433,-1.598483363226734
1.9960688003671125,8.650567060250602,-0.017643136648928748,0.4286913924307278,-1.6258645853871847
1.9928738311548684,8.574875965310735,-0.017856521264896077,0.4123207735677753,-1.6507007638109636
1.9896410671720173,8.502124903300956,-0.0180630785445614,0.39602435987422324,-1.6727887956444076
1.9863719193188387,8.43230031597879,-0.018260786490755285,0.3798043881498682,-1.69191278989695
1.9830681729411752,8.365388204095872,-0.0184475065943944,0.36366352166034194,-1.7078428545163251
1.9797320104454292,8.301374045955264,-0.018620965580560124,0.34760490212419426,-1.7203337885989374
1.9763660374354597,8.240242705961649,-0.018778734530214915,0.3316322089159546,-1.7291236820850873
1.9729733128802054,8.181978331793545,-0.018918204972609112,0.31574972628521,-1.733932431496282
1.9695573839012717,8.126564238686985,-0.019036561459987306,0.29996241934323536,-1.7344601898685528
1.9661223258677294,8.073982779198612,-0.01913075002381719,0.28427601941647124,-1.73038578364278
1.9626727886076516,8.024215196737323,-0.019197441754823696,0.26869711904230337,-1.721365151278467
1.9592140497027426,7.977241461158183,-0.01923299052194406,0.2532332762814814,-1.7070298912800046
1.9557520760402904,7.933040084864658,-0.019233383505302147,0.2378931269799237,-1.686986056345059
1.9522935950823423,7.891587918267188,-0.01919418269412134,0.22268650188085826,-1.6608134030686124
1.9488461777193806,7.8528599242559345,-0.019110454672120695,0.20762454268862265,-1.6280654141556594
1.945418335177922,7.816828932805848,-0.018976684677417397,0.19271980675679956,-1.588270568389371
1.9420196333706035,7.783465379309362,-0.018786668737233652,0.17798634320415435,-1.540935565175156
1.938660829519183,7.752737034266151,-0.018533374056327646,0.16343971283154773,-1.485551545750694
1.9353540381925265,7.724608738319006,-0.018208751795411107,0.14909690880339932,-1.4216048300342017
1.9321129376679615,7.6990421663388275,-0.017803476255309383,0.1349761131985935,-1.3485943457373215
1.928953033726549,7.675995658548132,-0.017306567538162624,0.12109619558691673,-1.2660587833517778
1.9258920082610091,7.65542417657446,-0.016704826523393383,0.10747582634278852,-1.1736175058053462
1.922950197079792,7.637279467609538,-0.015981964379019085,0.09413205104521649,-1.0710300943874096
1.9201512693461058,7.6215105462908035,-0.015117232661939026,0.08107818582961615,-0.9582793300945264
1.917523227206859,7.608064617450683,-0.014083235551913327,0.06832102350505474,-0.8356795732110838
1.9150999207239041,7.596888528811451,-0.012842392036474965,0.055857739153061234,-0.7040034770427535
1.9129234080666562,7.587930689786763,-0.011341081932946827,0.04367380556569585,-0.5646000210521871
1.9110477722391348,7.58114299369646,-0.009499316150621908,0.03174503988210338,-0.41944397830173497
1.9095457975962784,7.576481393063457,-0.007189290992228006,0.02005052270683376,-0.2710223655832402
1.9085231493869688,7.57390143693107,-0.004173466888989167,0.008615656541914254,-0.1219598008494816
