x,y,v_x,v_y,omega
2.375,32.48,0.0,3.128205128205128,-7.63265306122449
2.3726395127029245,31.770218048932797,-0.020525976496307285,3.0438118375966225,-7.066920024567968
2.36595559417758,31.079365389175095,-0.03759505415886299,2.9636025950790486,-6.56455357430966
2.3556784796976897,30.40651948191853,-0.05177115870974877,2.8872313810649985,-6.116376084962589
2.3424202910702006,29.750832518747973,-0.063517438051028,2.814394385635472,-5.714789257883755
2.326695899810131,29.1115225328657,-0.07321639899305575,2.744822882906062,-5.3534616264310895
2.308939678920423,28.487865972668896,-0.0811855217870111,2.678277640544372,-5.027086035214617
2.2895190520475768,27.879191429632563,-0.08768949449861019,2.6145444728150378,-4.731189540145948
2.268745523258317,27.28487428960825,-0.09294988627756069,2.5534306578311643,-4.461983065503541
2.246883707788687,26.704332132015296,-0.09715285693661112,2.4947620168901916,-4.216241545654219
2.2241587645501344,26.13702074169621,-0.10045534513775924,2.438380507623599,-3.9912076720427887
2.200762542155926,25.582430627930627,-0.10299006698579286,2.384142220772779,-3.7845140807519324
2.176858683114131,25.04008396730793,-0.1048695768559011,2.3319156976854396,-3.5941200617801212
2.152586879665001,24.509531903951654,-0.10618958357131894,2.281580505412639,-3.4182597877999097
2.1280664353440244,23.99035215343664,-0.10703167139369671,2.233026020804872,-3.2553997422396193
2.103399255750887,23.482146866679475,-0.10746554245966844,2.1861503857791633,-3.1042035393400167
2.078672368047208,22.98454071785367,-0.10755087235493231,2.140859604010461,-2.9635027180124807
2.0539600498162116,22.497179186518494,-0.10733885139286242,2.0970667554258426,-2.8322723892129575
2.0293256329273666,22.01972700904406,-0.10687346937970359,2.0546913095692187,-2.7096108463568895
2.00482303608346,21.551866778352796,-0.10619259013253103,2.0136585225287527,-2.594722426878255
1.9804980701248829,21.093297674193103,-0.10532885298552741,1.9738989049468307,-2.4869030527328073
1.9563895524211885,20.643734308775546,-0.10431043139442285,1.935347750858012,-2.3855279876066424
1.9325302604049843,20.20290567475716,-0.10316167309430947,1.8979447188670753,-2.2900414356473355
1.9089477491972886,19.770554184349237,-0.10190364175521908,1.8616334585931482,-2.199947675830514
1.885665054102082,19.34643478981971,-0.10055457646396795,1.8263612764461885,-2.1148034815134866
1.8627012953270738,18.930314176919616,-0.09913028244914646,1.7920788357285733,-2.034211619292602
1.8400721994725802,18.521970023827382,-0.09764446411166912,1.7587398868125688,-1.9578152572670282
1.8177905500058795,18.121190319110525,-0.09610900951181597,1.7263010237688041,-1.885293141994524
1.7958665770128273,17.727772732978202,-0.0945342339060287,1.6947214643383366,-1.8163554271869584
1.7743082949185522,17.341524036763477,-0.09292908865288507,1.6639628505723292,-1.7507400566166191
1.7531217955357898,16.962259566147775,-0.09130134076243943,1.633989067825085,-1.6882096196397665
1.732311502685297,16.58980272413742,-0.08965772750271543,1.6047660800910504,-1.6285486108639895
1.711880393699312,16.223984520234467,-0.08800408976671938,1.5762617799346283,-1.57156103632476
1.6918301923349084,15.864643142621624,-0.08634548731505025,1.548445851481389,-1.5170683175199553
1.6721615369638023,15.511623560511651,-0.08468629852065647,1.5212896451270723,-1.4649074521200216
1.652874127347842,15.164777154102111,-0.08303030683551937,1.4947660627819712,-1.4149293963999343
1.6340009900377659,14.823967545303617,-0.0810839306434026,1.4687957528571225,-1.358587401244207
1.615571406211508,14.489063649604496,-0.07917332001971018,1.4434120358308888,-1.3051337751059835
1.5975770256721376,14.159933238285358,-0.0772995542356844,1.4185915408572791,-1.2543829149903243
1.580009284747066,13.836449318714262,-0.07546341033015584,1.3943121075870462,-1.2061634125773746
1.56285947085372,13.5184898650045,-0.0736654061337236,1.3705527072804335,-1.1603167974795374
1.5461187778220085,13.20593756610744,-0.0719058376202897,1.347293370085299,-1.1166964065304794
1.5297783531910174,12.898679589987239,-0.07018481134484857,1.3245151179164587,-1.075166365016922
1.5138293385349897,12.596607362647234,-0.06850227262061108,1.3021999024314053,-1.0356006674981963
1.4982629037338215,12.299616360887896,-0.0668580299982402,1.2803305476498001,-0.997882347359883
1.4830702759827528,12.007605917774988,-0.06525177653279222,1.258890696810261,-0.9619027255503001
1.4682427642318252,11.72047903988545,-0.06368310825788329,1.2378647630987645,-0.9275607300806429
1.4537717796557241,11.438142235478388,-0.06215154022995323,1.2172378839191569,-0.8947622788553381
1.4396488526767404,11.16050535281072,-0.06065652045686112,1.19699587840838,-0.8634197192590934
1.42586564699613,10.88748142788208,-0.05919744198322882,1.177125207927616,-0.8334513186785831
1.41241397103063,10.618986540952509,-0.057773653368944855,1.1576129392860242,-0.8047808007944974
1.399285787100088,10.35493968122982,-0.0563844677662024,1.1384467104765088,-0.7773369230564429
1.3864732186680047,10.09526261917184,-0.05502917077365356,1.119614698723304,-0.7510530912596892
1.3739685558983772,9.83987978589283,-0.0537070272231074,1.101105590659399,-0.7258670075882905
1.361764259758791,9.588718159203157,-0.052417287034164824,1.0829085544681933,-0.7017203488815871
1.3498529648705566,9.341707155847892,-0.05115919025482867,1.0650132138384742,-0.6785584722273699
1.3382274812812776,9.098778529543036,-0.04993197139107709,1.0474096235950439,-0.6563301452909269
1.3268807953130415,8.859866274438492,-0.048734863115323226,1.0300882468792518,-0.6349872990598953
1.3158060696200613,8.624906533664465,-0.047567099432330236,1.0130399337644536,-0.6144848009246803
1.3049966425726467,8.393837512643422,-0.046427918371274364,0.9962559012011425,-0.5947802462270051
1.2944560961563183,8.16670677185018,-0.045229006988103226,0.9787940187400894,-0.5947455962193391
1.284186092930422,7.943576859752451,-0.04407536888925598,0.9614660864575396,-0.5973594403175676
1.2741762518370485,7.724417442133628,-0.042966727574861086,0.9442679797931022,-0.6024780279010187
1.2644162695422834,7.509199113013789,-0.04190268368396634,0.9271957516837636,-0.6099626263353811
1.2548959473289383,7.297893354843964,-0.04088272686686043,0.9102456237060221,-0.6196791634276378
1.2456052153732378,7.090472500660656,-0.03990624666096963,0.8934139778879512,-0.6314978864632428
1.2365341546257467,6.886909698051159,-0.038972542447647904,0.876697349151147,-0.6452930362455203
1.2276730164997791,6.6871788747888985,-0.03808083256076593,0.8600924183467722,-0.6609425346452861
1.2190122405549013,6.491254706005822,-0.037230262612084404,0.8435960058539037,-0.6783276842452386
1.210542470348826,6.299112582775724,-0.03641991309291964,0.8272050657121833,-0.6973328787294255
1.2022545676178893,6.110728581988418,-0.03564880630652972,0.8109166802643762,-0.7178453227236289
1.194139624934332,5.926079437399903,-0.03491591268092515,0.7947280552879243,-0.7397547598382742
1.1861889769776743,5.745142511748025,-0.03422015650740096,0.7786365155979584,-0.7629532077017993
1.1783942105475378,5.56789576982689,-0.033560421145961014,0.7626395011075559,-0.7873346987995538
1.1707471734362358,5.394317752416072,-0.03293555373492625,0.7467345633343299,-0.812795025951372
1.1632399822713084,5.224387550962863,-0.032344369438354864,0.730919362345755,-0.8392314912700111
1.1558650294308341,5.058084782917113,-0.03178565526142229,0.7151916641390123,-0.8665426574426099
1.1486149891278035,4.895389567618846,-0.031258173460583544,0.6995493384546184,-0.8946281001680515
1.1414828227540403,4.736282502638488,-0.03076066457213985,0.6839903570267394,-0.9233881605643427
1.1344617835690758,4.580744640468566,-0.030291850079726762,0.6685127922769211,-0.9527236963315269
1.1275454208150137,4.428757465463583,-0.029850434738203212,0.6531148164620689,-0.9825358304167615
1.120727583334752,4.280302870921872,-0.02943510856841983,0.6377947012919264,-1.0127256958785058
1.1140024227679335,4.135363136199146,-0.029044548534350515,0.6225508180361153,-1.0431941755856373
1.1073643963967124,3.993920903738193,-0.02867741991105128,0.607381638146093,-1.0738416353140612
1.1008082697118258,3.8559591558927195,-0.02833237734883135,0.5922857344232324,-1.10456764871721
1.0943291187685877,3.721461191415411,-0.02800806563584769,0.5772617827707605,-1.135270712546945
1.0879223324022922,3.590410601470694,-0.0277031201580266,0.5623085645746004,-1.1658479503869226
1.0815836143731699,3.462791245021478,-0.027416167051733487,0.5474249697663978,-1.196194803030685
1.0753089855125162,3.3385872234257405,-0.027145823040907516,0.5326100006313195,-1.2262047034908836
1.0690947859439757,3.2177828540632554,-0.02689069494640169,0.5178627764337699,-1.2557687344636583
1.0629376774572787,3.1003626427945647,-0.026649378850963818,0.5031825389461616,-1.284775265893191
1.0568346461160794,2.986311255033108,-0.026420458898596424,0.4885686589795344,-1.3131095700862923
1.0507830051870255,2.875613485186971,-0.026202505701872075,0.4740206440303629,-1.3406534116170024
1.0447803984839268,2.7682542241982837,-0.02599407432507243,0.45953814717560204,-1.3672846090393587
1.0388248042290065,2.6642184248757523,-0.025793701804669545,0.44512097736815237,-1.3928765651975468
1.0329145395428894,2.563491064678022,-0.02559990416156525,0.43076911130777146,-1.4172977626943866
1.027048265686385,2.466057105562477,-0.025411172851515937,0.41648270708826396,-1.440411220863611
1.02122499419048,2.371901450464488,-0.025225970591135495,0.4022621198507694,-1.4620739104069265
1.015444094026542,2.281008895915548,-0.025042726486588184,0.38810791970524017,-1.4821361217305327
1.0097052999868494,2.193364080244411,-0.02485983038030224,0.3740209122176887,-1.5004407829874533
1.0040087224666114,2.1089514267324816,-0.02467562631742041,0.36000216179909367,-1.5168227239596495
0.9983548588630604,2.0277550810127956,-0.02448840501780591,0.3460530183721,-1.5311078822814665
0.9927446068356418,1.9497588419108105,-0.02429639522061643,0.33217514773210344,-1.5431124492347092
0.987179279704498,1.874946084825062,-0.024097753745850964,0.31837056605700936,-1.552641953610256
0.9816606243034263,1.8032996766377636,-0.023890554089555437,0.3046416790499313,-1.559490284183134
0.9761908416496505,1.7348018810324817,-0.02367277333458059,0.29099132621338053,-1.5634386545495738
0.9707726108480723,1.6694342529828994,-0.023442277113925644,0.27742283073950375,-1.5642545189475885
0.9654091167149956,1.6071775210723622,-0.02319680230413228,0.26394005543907223,-1.561690454979622
0.960104081689888,1.5480114562227811,-0.022933937044630332,0.2505474649920727,-1.555483039962945
0.954861802709916,1.49191472537672,-0.022651097563822345,0.23725019453888127,-1.5453517635191913
0.9496871938606395,1.438864728724809,-0.022345501125538215,0.22405412417339532,-1.530998042242925
0.9445858358027455,1.3888374192583868,-0.022014134160495996,0.21096595814333144,-1.5121044361233529
0.9395640332334365,1.3418071038414254,-0.021653714268278054,0.1979933063519999,-1.4883342155163444
0.9346288820110271,1.2977462257669927,-0.021260644187456657,0.185144763860469,-1.4593314985445938
0.9297883481152192,1.2566251300876665,-0.020830954906526478,0.17242998117715141,-1.4247222812065012
0.9250513614350784,1.2184118151736492,-0.020360233616436893,0.15985971372733357,-1.3841168290303478
0.9204279286370887,1.183071677369675,-0.019843529844342928,0.14744583239418307,-1.337114106646216
0.9159292713353291,1.1505672608643494,-0.0192752293013926,0.13520126765211185,-1.283309210436117
0.9115679989002867,1.12085803270082,-0.01864887882941054,0.1231398468133576,-1.2223051595103234
0.9073583302038086,1.0939002141147007,-0.01795693592257267,0.11127596697899823,-1.1537309000555374
0.903316386523171,1.0696467148353896,-0.017190400430796896,0.0996240267541414,-1.0772679554786302
0.8994605904689219,1.0480472365828248,-0.01633826091049985,0.0881975232681652,-0.9926886719181656
0.8958122258521197,1.0290486332741047,-0.015386648800823657,0.07700772289460718,-0.8999090902539635
0.8923962449789693,1.0125956301758947,-0.014317532704832422,0.06606186926374993,-0.7990582792249615
0.8892424595694071,0.9986319921951043,-0.013106688247881733,0.055361069699643335,-0.6905618892027999
0.8863873323022289,0.9871021512270666,-0.011720505379755249,0.04489841697893332,-0.5752283435388357
0.8838767333134527,0.9779530805920906,-0.01011079017482002,0.03465871897738523,-0.4543095350845731
0.8817703670429382,0.9711357202388591,-0.00820543826443592,0.024622675398542515,-0.3294867229670946
0.8801496552183974,0.9666042265689789,-0.0058877080359180925,0.014781617383013352,-0.20271926893343087
0.8791357670456768,0.9643081416474537,-0.0029287108573041016,0.005184338456338405,-0.07591076809659597
