x,y,v_x,v_y,omega
2.375,32.48,0.0,2.051282051282051,-6.040816326530612
2.3738561595305723,32.01299398113408,-0.00994643886458769,2.0096398518998204,-5.731586014180958
2.370563166071079,31.555406519531463,-0.01868828687013962,1.9693815533403305,-5.445372664630874
2.3653822616753803,31.10692879503994,-0.026363055701151446,1.9304247465859694,-5.179884511914484
2.358545058454249,30.66727009661427,-0.03309088535216476,1.892694370158969,-4.933107004211007
2.3502572464962967,30.2361562376456,-0.0389770447169835,1.8561217947860222,-4.703263548283649
2.3407017741712486,29.813328165101616,-0.0441140189790896,1.8206440534225063,-4.488782655945878
2.330041586844733,29.398540732183527,-0.048583262121046425,1.7862031893434902,-4.28827030359073
2.318421993961459,28.991561609819076,-0.05245667599437541,1.752745700782174,-4.100486564493454
2.305972721794672,28.5921703167506,-0.0557978645863826,1.7202220650306628,-3.924325764422362
2.2928096991019853,28.20015735151198,-0.05866320230654502,1.6885863283486335,-3.758799558840328
2.2790366148716785,27.815323412421613,-0.06110274752220943,1.6577957506980432,-3.603022445333346
2.264746280842289,27.4374786940033,-0.06316102664639477,1.6278104964177214,-3.456199315670989
2.250021826195216,27.06644225010065,-0.06487770941511144,1.5985933636053238,-3.3176147238494513
2.2349377474990835,26.702041415463064,-0.06628819229038825,1.570109546286743,-3.1866236038850797
2.219560833429456,26.344111278822474,-0.0674241039672412,1.5423264245009918,-3.062643217242619
2.2039509808462276,25.99249420150383,-0.06831374458257267,1.5152133782697963,-2.945146147044491
2.188161916365159,25.6470393764613,-0.06898246829628595,1.4887416221000311,-2.8336541864848024
2.1722805282013553,25.30761273442194,-0.06911655921504879,1.4627943956335439,-2.7205525168082
2.156384153895702,24.974085743236543,-0.0691127825732419,1.4374403103264288,-2.61328288314175
2.1405027393619305,24.646324774007486,-0.06898647424216084,1.4126550742740873,-2.5114678757127074
2.124662883489639,24.324201632703698,-0.06875140290820093,1.3884157196718725,-2.4147592221320364
2.1088881794675123,24.00759326637528,-0.06841993641464043,1.364700509270896,-2.322835171857249
2.0931995200284765,23.696381489940247,-0.06800318914219292,1.3414888510337468,-2.2353981484233936
2.077615370707756,23.390452731757353,-0.06751115277711521,1.3187612201218566,-2.1521726385857787
2.0621520147011676,23.089697796386105,-0.06695281249756482,1.2964990874542386,-2.072903291482095
2.0468237724750686,22.79401164309932,-0.06633625033807912,1.2746848541699614,-1.997353204322177
2.0316431989012,22.503293178858037,-0.06566873726077849,1.2533017914064215,-1.9253023740387705
2.0166212603608686,22.217445064585753,-0.06495681526384048,1.2323339848742856,-1.856546296855392
2.0017674939764385,21.936373533691714,-0.06420637068772737,1.211766283769535,-1.790894699908429
1.9870901508780259,21.65998822189252,-0.06342269973325139,1.1915842536147712,-1.728170390950836
1.97259632519459,21.38820200747012,-0.06261056707923596,1.1717741326669693,-1.6682082138066352
1.9582920702669755,21.120930861183076,-0.06177425837827973,1.1523227915681988,-1.6108540986746949
1.9441825034123126,20.858093705118456,-0.06091762731444261,1.133217695950241,-1.555964197627079
1.930271900421341,20.599612279834737,-0.060044137824442054,1.1144468717342524,-1.5034040967371287
1.9165637808401044,20.34541101920258,-0.059156902012396616,1.0959988728932033,-1.453048097226952
1.903060984972714,20.095416932401015,-0.05825871422578096,1.0778627514682537,-1.404778558861549
1.8897657434405832,19.849559492572304,-0.0573520817057896,1.0600280296509592,-1.3584852995530412
1.876679740043986,19.607770531679865,-0.05643925217766435,1.042484673761551,-1.3140650457867895
1.8638041685925026,19.369984141150756,-0.05552223870480045,1.0252230699698295,-1.2714209290530323
1.8511397843006612,19.13613657791796,-0.05460284209382206,1.0082340016197144,-1.2304620239729123
1.8386869502827237,18.906166175508076,-0.05368267110563498,0.991508628031414,-1.1911029242548186
1.8264551609503135,18.68014491224092,-0.05268071439358334,0.973893661248227,-1.1759908746416412
1.814451191209387,18.458158619575673,-0.051701631179688734,0.9564219271452123,-1.1639275164437914
1.802669662022081,18.24017487707868,-0.05074644870992869,0.9390888771764747,-1.1547513663829219
1.7911049813024942,18.02616228701968,-0.04981599232995808,0.9218901668148165,-1.1483067046514295
1.7797513884485587,17.81609042863383,-0.048910902052090297,0.9048216452360373,-1.1444431725215807
1.768602995211978,17.609929814666526,-0.04803164783121976,0.8878793457840213,-1.143015389238857
1.7576538231919563,17.407651850026923,-0.04717854364722984,0.8710594771690534,-1.1438825864143414
1.7468978382169351,17.209228792386448,-0.04635176048339004,0.854358415356794,-1.1469082582365266
1.7363289818588146,17.014633714567765,-0.04555133828287342,0.837772696110016,-1.1519598259155157
1.7259412003060284,16.82384046857791,-0.044777196958747045,0.8212990081496047,-1.1589083148530717
1.7157284708052205,16.63682365114657,-0.04402914652654004,0.8049341869054962,-1.167628043101122
1.7056848258660557,16.453558570636734,-0.04330689642271782,0.7886752088322255,-1.1779963197297407
1.6958043754097343,16.274021215200253,-0.042610064067035026,0.7725191862676091,-1.189893151773828
1.6860813270290231,16.09818822205554,-0.04193818272175668,0.7564633628168523,-1.2032009584660734
1.6765100045159715,15.926036847768074,-0.04129070869608334,0.74050510924808,-1.2178042914926317
1.6670848648028505,15.757544939417311,-0.0406670279397527,0.7246419198889846,-1.2335895600274425
1.657800513452226,15.592690906535505,-0.04006646206567861,0.7088714095180226,-1.2504447593114154
1.6486517188233494,15.43145369370498,-0.039488273837595546,0.6931913107473943,-1.2682592015437968
1.6396334250342046,15.273812753700646,-0.038931672154967394,0.6775994718989841,-1.2869232478448969
1.6307407638315392,15.119748021063728,-0.03839581656386318,0.6620938553785505,-1.3063280400318604
1.6219690654750023,14.969239885991048,-0.03787982131906686,0.6466725365578031,-1.3263652309221372
1.613313868736085,14.822269168421357,-0.03738275901934336,0.6313337031786492,-1.346926711842523
1.6047709301078934,14.67881709219644,-0.03690366383449742,0.6160756552988975,-1.367904335974843
1.5963362323178716,14.53886525916959,-0.036441534339603905,0.6008968058041443,-1.3891896361122569
1.5880059922324365,14.402395623127713,-0.03599533596852648,0.5857956815165288,-1.4106735353325481
1.579776668240069,14.269390463385488,-0.03556400309554134,0.5707709249376086,-1.4322460490164244
1.571644967197773,14.139832357900627,-0.03514644075050949,0.5558212966698801,-1.4537959765497541
1.5636078510249654,14.01370415574809,-0.03474152596955586,0.5409456785695669,-1.4752105809489657
1.5556625430288151,13.890988948777974,-0.034348108779576246,0.5261430776923343,-1.4963752545390203
1.5478065340458924,13.771670042266429,-0.03396501281105732,0.5114126311036997,-1.5171731686944638
1.5400375884867155,13.655730924351221,-0.033591035529611436,0.4967536116372365,-1.5374849055277917
1.5323537503725027,13.543155234022858,-0.03322494807223921,0.482165434696357,-1.557188069278532
1.524753349457194,13.433926727418665,-0.03286549466957425,0.46764766620966014,-1.576156875025387
1.5172350075327248,13.328029242140001,-0.03251139163015941,0.4532000318656775,-1.5942617122189198
1.5097976450216941,13.225446659281847,-0.03216132585706275,0.43882242777045793,-1.61136868042309
1.5024404879691453,13.126162862828792,-0.03181395286075364,0.4245149326908758,-1.6273390945740813
1.4951630755542848,13.030161696031545,-0.03146789422498821,0.4102778220677976,-1.6420289570338862
1.487965268253864,12.937426914333038,-0.031121734474324366,0.39611158400616103,-1.6552883937617338
1.480847256801821,12.84794213436291,-0.03077401728257051,0.38201693747322885,-1.6669610520879257
1.4738095721049993,12.761690778462967,-0.030423240950661658,0.3679948529610743,-1.6768834579071832
1.4668530962926543,12.67865601414469,-0.03006785306972866,0.3540465758935158,-1.6848843306899004
1.4599790750985988,12.598820687812822,-0.029706244269884677,0.3401736530792452,-1.6907838556487644
1.4531891317998482,12.522167252017915,-0.02933674093664268,0.32637796252863427,-1.6943929138481655
1.4464852829654649,12.448677685427093,-0.02895759675364828,0.31266174695677323,-1.6955122732196097
1.4398699563052135,12.378333404629604,-0.02856698290071046,0.29902765128227105,-1.6939317466499986
1.4333460109514589,12.311115166827403,-0.028162976697155905,0.285478764389051,-1.6894293279657215
1.4269167605620545,12.247002962409695,-0.02774354842809835,0.27201866533013813,-1.6817703233413324
1.420585999700657,12.185975896387468,-0.027306546018839414,0.2586514739935659,-1.6707065052576129
1.4143580340396518,12.128012057689968,-0.02684967712033483,0.24538190598470613,-1.655975329802192
1.4082377150483978,12.07308837543058,-0.02637048802100385,0.23221533105345823,-1.6372992775064854
1.4022304799889365,12.021180461480267,-0.02586633858300883,0.21915783373186326,-1.6143854053682194
1.3963423982630676,11.972262439109802,-0.025334372076719174,0.2062162738373989,-1.5869252364483302
1.3905802254701936,11.926306758175418,-0.024771478296098385,0.193398342983315,-1.5545951678948968
1.384951466993638,11.883283998466897,-0.024174247586992315,0.18071261100383504,-1.517057654428894
1.379464453610856,11.843162664611043,-0.023538912263285763,0.16816855296012295,-1.4739635300691913
1.3741284326398557,11.805908978601071,-0.022861270093239478,0.1557765427787651,-1.4249559758830845
1.368953679677531,11.771486679965893,-0.02213658175306225,0.14354779317931357,-1.369676836581356
1.3639516383469124,11.739856849251982,-0.021359429817535722,0.13149421302859515,-1.3077762428027337
1.3591350990998514,11.710977778350713,-0.020523520156907095,0.11962814263461043,-1.2389268087772378
1.3545184337065526,11.684804921629048,-0.019621396306560793,0.10796191581465422,-1.1628440207081676
1.3501179106350878,11.661290974651234,-0.018644021706176104,0.09650718834026889,-1.0793147232635614
1.345952129602975,11.640386140956611,-0.01758016118175987,0.08527397422166538,-0.9882356381943685
1.3420426333950641,11.622038657217793,-0.016415458017466057,0.07426936263763198,-0.8896631666195667
1.3384147849923933,11.606195642384364,-0.01513104983184617,0.06349598374000451,-0.7838735291407484
1.335099044293417,11.592804295862724,-0.013701477985338549,0.05295050775250924,-0.671427387670867
1.3321328561107888,11.5818133565936,-0.012091462733167666,0.042622877196390976,-0.5532243232380882
1.3295635164115116,11.573174491418353,-0.01025062160837313,0.03249768954489132,-0.43052038599195114
1.3274527876037332,11.566842804979569,-0.008103541937525197,0.02256045340106346,-0.3048712055619299
1.325885415824518,11.562774602540589,-0.005525777881738281,0.012815219981371289,-0.17796381096286248
1.3249905078158628,11.560916419391116,-0.002256030889175983,0.003342894361870425,-0.05132926307717181
