x,y,v_x,v_y,omega
2.375,32.48,0.0,2.358974358974359,-4.571428571428571
2.3743890195199957,32.059334209165435,-0.006788672000049654,2.315089983631902,-4.358932180618466
2.372624348957341,31.646454448762217,-0.012818778696113548,2.272462909737165,-4.160610509706756
2.3698354567973814,31.24114000281876,-0.01816891197010476,2.2310309340790475,-3.9751998473628483
2.366138463097062,30.8431809590557,-0.02290879581122256,2.190736218843794,-3.8015723315225793
2.361637635258702,30.45237746097878,-0.027100402392771936,2.1515248708997707,-3.6387190754347345
2.356426697056107,30.068539030942446,-0.03079891096940018,2.113346573948391,-3.4857356699725917
2.3505899769742897,29.691483955402553,-0.03405353438412118,2.0761542653837517,-3.3418096868945684
2.344203417855822,29.32103872491306,-0.036908233598852154,2.0399038511661898,-3.206209873734101
2.3373354664885966,28.957037522521478,-0.03940233714809941,2.004553953184725,-3.078276784160228
2.330047858983517,28.599321755127683,-0.04157107957500531,1.9700656845241096,-2.9574146307177624
2.3223963154678358,28.24773962312735,-0.0434460705992311,1.9364024488128875,-2.843084181932757
2.314431155674938,27.902145724293945,-0.045055704877410806,1.9035297604471753,-2.734796554481151
2.306197845376179,27.5624006883846,-0.04642552066436073,1.871415082990027,-2.632107774731636
2.297737482220313,27.228370839404008,-0.04757851440080942,1.8400276834609928,-2.5346140034794953
2.289087228377203,26.899927882840977,-0.0485354171893103,1.8093385005726537,-2.4419473338681423
2.2802806963891675,26.57694861551653,-0.04931493823330153,1.7793200252545245,-2.353772085969161
2.2713482937866476,26.259314655959948,-0.0499339795724772,1.7499461920408867,-2.2697815327540227
2.262317531300897,25.94691219346757,-0.050407825824748745,1.7211922800966217,-2.1896950016374785
2.25321329888585,25.63963175420498,-0.050750312120220104,1.6930348228210395,-2.1132553037229367
2.2440581132278288,25.33736798289122,-0.05097397296890117,1.6654515251096542,-2.040226449592167
2.234872339962141,25.040019438758833,-0.051090174427635734,1.638421187472401,-1.9703916161653092
2.2256743934185965,24.747488404618633,-0.05110923161174401,1.6119236363075993,-1.9035513339837324
2.2164809163743784,24.459680707976418,-0.051040513324011556,1.585939659717023,-1.8395218683782477
2.2073069419945854,24.17650555325298,-0.05089253534035752,1.5604509483211761,-1.7781337714939993
2.198166039881713,23.897875364250318,-0.05067304369155465,1.5354400405972835,-1.7192305851464869
2.1890704479297005,23.62370563608801,-0.05038908910858704,1.5108902723172355,-1.6626676770595918
2.1800311914813086,23.353914795905553,-0.050047093651319596,1.4867857297101117,-1.608311195251918
2.171059523258648,23.088427134789416,-0.049638108822689306,1.4630771715802688,-1.5543009418184763
2.162164668178862,22.827169481131335,-0.04919361428604237,1.4397856468428463,-1.5025727660010282
2.1533526493685917,22.57006802708677,-0.048717705828074796,1.4168971758745303,-1.453004582182927
2.144628786713515,22.317051427391135,-0.04821410145055361,1.3943983762991745,-1.4054820696382255
2.135997761721021,22.068050694787516,-0.047686176243824666,1.3722764304077069,-1.3598980991603482
2.1274636764111525,21.822999101125923,-0.04713699386582678,1.3505190547211456,-1.3161522077639707
2.1190301068150488,21.581832083763345,-0.04656933497977125,1.3291144715297,-1.2741501169515028
2.1107001516000885,21.344487156922625,-0.04598572296422823,1.308051382256071,-1.2338032905030794
2.1024764762875883,21.110903827694163,-0.04538844717466602,1.2873189425046314,-1.1950285281633652
2.0943613534814265,20.881023516388417,-0.044779584004908286,1.266906738670335,-1.1577475919663123
2.086356699483686,20.65478948096879,-0.04416101596998566,1.2468047659921573,-1.121886862265976
2.0784641076356665,20.432146745314384,-0.04353444900800913,1.227003407945722,-1.0873770208325395
2.0706848786889624,20.213042031080185,-0.04290142817759257,1.2074934168786657,-1.0541527586321024
2.0630200484811994,19.99742369293908,-0.042263351908661755,1.1882658958003263,-1.0221525061402976
2.055470413164108,19.785241657005034,-0.04162148494791278,1.1693122812446088,-0.9913181842466786
2.0480365522075035,19.576447362251187,-0.04097697012546822,1.1506243271314727,-0.9615949739919039
2.040718849381153,19.370993704749093,-0.040330839056201516,1.132194089558456,-0.9329311035455411
2.0335175118971143,19.168834984567514,-0.03968402187756529,1.1140139124590869,-0.9052776509810002
2.0264325878777476,18.9699268551799,-0.03903735611539672,1.0960764140699717,-0.8785883615375962
2.0194639822989675,18.774226275239847,-0.03839159475993537,1.0783744741528434,-0.8528194781797339
2.0126114715442296,18.581691462593113,-0.037747413626045244,1.060901221921966,-0.8279295843711737
2.005874716692101,18.392281850403343,-0.03710541806426959,1.0436500246310312,-0.8038794580795892
1.9992532756488681,18.20595804527661,-0.03646614908276407,1.026614476777109,-0.7806319361143224
1.9927466142273356,18.022681787277257,-0.03583008893426294,1.009788389882351,-0.7581517879793972
1.986354116263726,17.842415911734314,-0.035197666216957184,0.9931657828170124,-0.7364055984953667
1.9800790927750822,17.665353514860925,-0.03452481699019603,0.974194182442855,-0.7655811236118634
1.9739216987921453,17.49169633819323,-0.0338906717091008,0.9553300027538114,-0.7961255655372176
1.9678750666810043,17.321425289151286,-0.03329412952579931,0.9365705421566546,-0.8279288366834997
1.9619325304610897,17.15452175149664,-0.0327340506954737,0.9179132095616199,-0.8608825132651664
1.9560876324284218,16.990967565697606,-0.032209260778616244,0.8993555215387755,-0.8948795974137688
1.95033412905909,16.830745009771228,-0.03171855443617862,0.8808950998654065,-0.9298142809213984
1.944665996264105,16.67383678053154,-0.031260698841433024,0.8625296694644621,-0.9655817095954194
1.939077434062714,16.520225975173396,-0.03083443672957897,0.8442570567371371,-1.0020777471866982
1.9335628707377441,16.36989607312043,-0.030438489103419095,0.8260751882958584,-1.0391987378251302
1.9281169665334674,16.22283091806414,-0.030071557610767356,0.8079820901073617,-1.076841265859362
1.9227346169539028,16.079014700119146,-0.029732326606618842,0.7899758870592293,-1.1149019119517127
1.9174109557173642,15.938431938016763,-0.029419464910477033,0.7720548029672635,-1.1532770042238434
1.9121413574214294,15.801067461255617,-0.02913162726657552,0.7542171610454683,-1.1918623631830563
1.9069214399713559,15.66690639212365,-0.02886745551201909,0.736461384865263,-1.2305530390825024
1.9017470668243175,15.535934127500543,-0.028625579455074265,0.718785999835943,-1.2692430402802553
1.8966143491016971,15.40813632034331,-0.02840461746292985,0.7011896352444285,-1.307825051061339
1.8915196476220664,15.283498860750392,-0.02820317675518965,0.6836710268991024,-1.346190137272532
1.886459574908449,15.162007856490757,-0.02801985339611411,0.6662290204301586,-1.3842274379912498
1.881430997225035,15.043649612874368,-0.027853231975154286,0.6488625753074911,-1.4218238413062847
1.8764310367007293,14.928410611828472,-0.027701884961573733,0.6315707696469194,-1.4588636421290309
1.8714570735998484,14.816277490030451,-0.027564371714880968,0.614352805886626,-1.495228179778681
1.8665067488039586,14.707237015932108,-0.027439237128339223,0.5972080174282862,-1.5307954528938714
1.8615779665733956,14.60127606549191,-0.027325009877916848,0.5801358763517078,-1.5654397090171284
1.8566688976624577,14.498381596410724,-0.02722020024361703,0.5631360023281126,-1.5990310059790553
1.8517779828687635,14.398540620642379,-0.02712329746409526,0.546208172875734,-1.6314347419798219
1.8469039371049085,14.301740174922543,-0.027032766578739344,0.5293523351224441,-1.6625111510317134
1.8420457540894768,14.20796728902777,-0.026947044703835393,0.5125686192639207,-1.6921147601970026
1.837202711764847,14.117208951440077,-0.026864536680937644,0.4958573539326667,-1.720093804843487
1.8323743785612285,14.02945207205105,-0.026783610025935357,0.4792190837231726,-1.7462895979655058
1.827560620640222,13.944683441492309,-0.026702589096361466,0.46265458915175106,-1.7705358495100985
1.8227616102671733,13.862889686625717,-0.026619748381955757,0.446164909365924,-1.7926579316483895
1.8179778354799836,13.784057221666629,-0.026533304809040596,0.42975136795726365,-1.8124720861020216
1.8132101112432508,13.70817219434597,-0.026441408932434074,0.4134156022722728,-1.8297845700607862
1.808459592301141,13.635220426442388,-0.026342134868784086,0.3971595966564238,-1.844390738035357
1.8037277879708191,13.565187347933975,-0.026233468801461886,0.3809857201037328,-1.8560740583566468
1.7990165791514492,13.498057923931455,-0.026113295858202844,0.36489676881314337,-1.8646050652155668
1.794328237862818,13.433816573463382,-0.02597938512658716,0.34889601416543653,-1.8697402504978191
1.78966544967406,13.372447079092897,-0.025829372526279294,0.33298725661774703,-1.8712209047278825
1.785031339439039,13.313932486262015,-0.025660741196178533,0.3171748859476225,-1.8687719239385197
1.7804295008238806,13.258254991194551,-0.02547079897224666,0.30146394813528843,-1.8621006102918576
1.775864030198874,13.205395816160781,-0.025256652416716763,0.28586021890659397,-1.8508955103204316
1.7713395655788995,13.155335070943938,-0.025015176694109867,0.27037028350277326,-1.8348253579147884
1.7668613314452923,13.108051599494004,-0.024742980345971125,0.25500162149647887,-1.8135382227784158
1.7624351904857036,13.063522811073351,-0.024436363649460096,0.23976269428854505,-1.7866610134425933
1.7580677035758514,13.021724495790128,-0.024091268682229862,0.22466303108061592,-1.7537995533594797
1.7537661997438696,12.982630625424509,-0.023703218339788983,0.2097133063151535,-1.7145395478249446
1.7495388584778895,12.94621314209256,-0.02326724017110371,0.19492539737318018,-1.6684489004597607
1.7453948076790629,12.912441739866225,-0.02277776870474703,0.18031240514166066,-1.6150820363425877
1.7413442420166638,12.881283648396394,-0.02222851643302036,0.165888611189801,-1.5539871636694838
1.7373985687170859,12.852703433421134,-0.021612298006734715,0.1516693329797731,-1.484717776649656
1.7335705914079647,12.826662837440807,-0.0209207832057226,0.1376706223572049,-1.406850180648321
1.7298747483258392,12.803120695429541,-0.020144139929006304,0.12390873332352466,-1.3200093870977785
1.7263274302080913,12.78203297541075,-0.019270505823747893,0.1103992668852805,-1.2239062798350269
1.7229474174183088,12.76335301081616,-0.018285191840502448,0.09715589527682957,-1.1183892109418594
1.7197564981831506,12.747032006041632,-0.01716946632792084,0.08418860221795017,-1.0035124868842753
1.7167803647718805,12.733019896386686,-0.015898682686191455,0.07150150505924371,-0.8796212647308488
1.7140499401351628,12.721266602881723,-0.014439368832895238,0.05909064499588358,-0.7474451076802634
1.7116033831514836,12.71172359420735,-0.012744597652425535,0.046942784719391374,-0.6081785719712232
1.7094892173077987,12.704345374782218,-0.010746133944074972,0.03503743111539646,-0.4635069649498983
1.7077715608576334,12.69908991726421,-0.00833893772443025,0.023356541306893012,-0.31551690663772175
1.706540411362004,12.69591561103508,-0.0053405011158956794,0.01191352790566254,-0.16643260244422517
1.7059414708911718,12.694765439854883,-0.0013143930044617145,0.000866151874288127,-0.01819087507246736
