x,y,v_x,v_y,omega
2.375,32.48,0.0,3.5897435897435894,-4.204081632653061
2.3738437332625066,31.771544888887227,-0.011562667374934117,3.494807521384115,-3.894506529170443
2.370570450624201,31.081628060358295,-0.021170159008122275,3.404360763905204,-3.6193592220394195
2.365539339121781,30.409384952981988,-0.02914095601607638,3.3180703098578443,-3.3737226150452324
2.3590514980867487,29.754014235479083,-0.03573745433424502,3.2356368651712013,-3.153504983939192
2.3513600745632854,29.114771510763312,-0.04117678090039208,3.156790381986518,-2.955283115218025
2.34267846347113,28.49096383812371,-0.04563933002115764,3.081286344409493,-2.7761785379122794
2.33318697615744,27.881944938580673,-0.04927554311574084,3.0089026510208647,-2.6137591914653733
2.323038289373864,27.287110975853423,-0.052211324720023655,2.939436976251676,-2.465960800082537
2.3123619176552563,26.70589682619321,-0.05455239246605426,2.8727045203504185,-2.3310236265850683
2.3012678995600977,26.137772766368048,-0.0563877884855296,2.8085360779012225,-2.207441310539846
2.2898498479818064,25.58224152158984,-0.057792727297385764,2.746776369880856,-2.09391926169865
2.2781874836684777,25.03883562504626,-0.05883091583589803,2.6872825955549233,-1.9893406539310756
2.266348746944726,24.507115048577106,-0.059556451401621385,2.62992316913662,-1.8927384985438622
2.254391563754254,23.98666507038522,-0.060015380503097446,2.5745766127822596,-1.803272605971236
2.242365327302213,23.47709435083852,-0.06024698401731323,2.5211305826847368,-1.7202104978111148
2.230312144847653,22.978033191658703,-0.06028484052828425,2.4694810091134194,-1.642911526348601
2.2182678898802246,22.48913195729726,-0.06015770914600343,2.4195313345010403,-1.5708136101911971
2.20626309248067,22.01005964021826,-0.059890264849537814,2.3711918362889475,-1.5034221128964418
2.1943236947052256,21.540502554253813,-0.059503712904910966,2.324379023355544,-1.4403004842940572
2.1824716930368617,21.080163142260574,-0.059016303778724154,2.279015096576848,-1.3810623574387104
2.1707256860692388,20.628758886054428,-0.05844376589750808,2.235027465484599,-1.3253648521934978
2.1591013424436793,20.186021308090083,-0.05779967035808435,2.1923483141588345,-1.2729028826962994
2.147611801498131,19.75169505562754,-0.057095739097402225,2.1509142104665977,-1.2234043029689263
2.136268016994005,19.32553705922347,-0.056342105943852645,2.110665753574089,-1.1766257546668595
2.125079052570687,18.9073157583315,-0.055547538289333516,2.071547255345637,-1.1323491049615402
2.114052336165821,18.49681038761466,-0.05471962575932168,2.0335064518227526,-1.0903783819832584
2.103193879474694,18.0938103182855,-0.053864941151947614,1.996494241468848,-1.0505371310562555
2.0925084675579453,17.69811444941012,-0.05298917801554256,1.9604644472849724,-1.0126661278544729
2.0819998229066825,17.309530644655503,-0.052097268497082905,1.9253736002611694,-0.9766213951681423
2.0716707476080227,16.927875210435715,-0.05119348448951494,1.8911807419366988,-0.9422724786502494
2.061523246698195,16.55297241183121,-0.05028152460876468,1.8578472441083822,-0.9095009440669067
2.051558635325208,16.184654023024734,-0.0493645891211051,1.8253366439563774,-0.8781990644931251
2.0417776319528693,15.822758909323476,-0.04844544460228114,1.7936144930562097,-0.8482686708044457
2.032180439509803,15.46713263812591,-0.04752647982837944,1.7626482189194361,-0.8196201428993894
2.0227668161105257,15.1176271164483,-0.04660975416439701,1.7324069978566825,-0.792171522495971
2.0135361367419518,14.774100252853717,-0.04569703952134017,1.70286163808914,-0.7658477311975194
2.004487447110858,14.436415641829743,-0.044789856789602706,1.6739844721506079,-0.7405798799160344
1.9956195106799228,14.104442268842273,-0.043889507519745484,1.6457492577240826,-0.7163046577544581
1.986930849777241,13.778054234455205,-0.04299710150707081,1.6181310861466107,-0.6929637901471882
1.978419781542551,13.457130496051015,-0.0421135808398298,1.5911062978952946,-0.6705035574938433
1.970084449369622,13.141554625817754,-0.04123974088946247,1.5646524044373193,-0.6488743667381439
1.9619228504154318,12.831214583785137,-0.040376248652437725,1.5387480158888596,-0.628030369377616
1.953932859670692,12.526002504797976,-0.03952365879496201,1.5133727739827338,-0.6079291202701769
1.9461122510209605,12.225814498410344,-0.038682427702351536,1.488507289893576,-0.5885312723550176
1.938467168398077,11.930551449886124,-0.03776839852648467,1.4641231953486307,-0.567427306055079
1.9310027981356797,11.640117790960325,-0.03687530409748969,1.4402133939093757,-0.54728380901497
1.9237149749194855,11.354420348696358,-0.03600292806444935,1.4167610287302912,-0.528045737462268
1.9165995811578012,11.073369244952001,-0.03515100955239517,1.3937500087132806,-0.5096617999005713
1.9096525551269208,10.79687774759715,-0.03431925075640912,1.3711649648352338,-0.4920841607155726
1.902869897697771,10.524862130170234,-0.03350732353508872,1.3489912094339354,-0.475268170312187
1.8962476778311226,10.257241539404848,-0.03271487513139435,1.3272146982199373,-0.4591721191345056
1.889782037004772,9.993937870102581,-0.03194153313211177,1.305821994802735,-0.44375701321137795
1.8834691927152936,9.734875646868485,-0.03118690976267248,1.284800237538243,-0.42898636912659227
1.8773054411788714,9.479981912262524,-0.03045060560155044,1.2641371085213795,-0.41482602653845785
1.8712871593399547,9.229186120954111,-0.029732212787616234,1.2438208045627481,-0.40124397657296135
1.865410806282749,8.982420039497626,-0.029031317784440906,1.2238400100021174,-0.38821020459093725
1.859672924128565,8.739617651375035,-0.028347503757398647,1.204183871223812,-0.37569654598574326
1.8540701384915905,8.500715066977616,-0.0276803526123475,1.1848419727503623,-0.36367655380627856
1.8485991585565036,8.265650438222483,-0.027029446738522263,1.1658043148009578,-0.35212537712299463
1.8432567768333585,8.034363877521336,-0.026394370492927685,1.1470612922104988,-0.3410196491637126
1.8380398686381794,7.80679738083894,-0.025774711458864258,1.1286036746134513,-0.3303373843432171
1.832945391341577,7.5828947545971594,-0.02517006150716057,1.1104225878043603,-0.3200578833971741
1.8279703834223462,7.3626015461973395,-0.02458001768514554,1.0925094961938426,-0.31016164590816314
1.8231119633583015,7.145864977949433,-0.024004182955302066,1.0748561862852364,-0.3006302895806131
1.818367328382487,6.932633884210624,-0.02344216680284169,1.0574547511028713,-0.2914464756831382
1.8137337531292952,6.722858651549515,-0.022893585729076665,1.040297575508229,-0.28259384013201616
1.8092085881918478,6.516491161764183,-0.02235806364539735,1.023377322345092,-0.2740569297390717
1.804789258609223,6.31348473759375,-0.021835232180851115,1.0066869193592143,-0.2658211431916638
1.8004732622996649,6.11379409097362,-0.021324730914730885,0.9902195468421052,-0.25787267637238975
1.7962625043549774,5.917549574498416,-0.020782848532145765,0.9722256179099389,-0.28489877503610317
1.7921562940927378,5.7248928230571074,-0.020279254090248323,0.9543418965031599,-0.31353755801937633
1.788147054018752,5.535802090623211,-0.01981314664961043,0.9365654278358025,-0.3436825110424389
1.7842273723800903,5.35025621075301,-0.01938366973700559,0.918893370866202,-0.3752294875238313
1.7803900136904431,5.168234574248515,-0.0189899171594671,0.9013229941787431,-0.40807647818272363
1.7766279281440098,4.989717107606278,-0.018630938304865095,0.8838516722436446,-0.44212338552365554
1.7729342600170668,4.814684252177461,-0.018305742964564563,0.8664768820445132,-0.4772718022748228
1.7693023551495717,4.643116943966422,-0.018013305710388942,0.8491962000658685,-0.5134247928557221
1.7657257675930378,4.474996593996302,-0.01775256985494804,0.8320072996353455,-0.5504866769477783
1.7621982655054063,4.310305069170983,-0.017522451021369463,0.8149079486178491,-0.588362814232339
1.7587138363687118,4.149024673563037,-0.017321840345573516,0.7978960074615957,-0.6269593893438359
1.7552666916010118,3.9911381300569992,-0.017149607331427626,0.7809694275987714,-0.666183196061639
1.7518512706302305,3.8366285622764735,-0.017004602376382624,0.7641262502065035,-0.7059414197317131
1.748462244494342,3.685479476722122,-0.01688565898250356,0.7473646053370213,-0.7461414168680858
1.745094519029578,3.5376747450454857,-0.01679159566513605,0.7306827114293274,-0.7866904908337246
1.7417432377061877,3.3931985863807057,-0.016721217568767884,0.7140788752184685,-0.8274956624399458
1.7384037841696185,3.252035549652593,-0.016673317796925435,0.6975514920626471,-0.8684634342320914
1.7350717845439103,3.1141704957750242,-0.016646678460154975,0.6810990467130248,-0.9094995471459523
1.73174310955357,2.979588579648098,-0.01664007144324651,0.6647201145562242,-0.950508728123193
1.7284138765202628,2.8482752318559434,-0.0166522588898265,0.6484133633653293,-0.9913944271636612
1.7250804512913565,2.7202161399592377,-0.016681993399236157,0.6321775556017349,-1.0320585421666306
1.7217394501587149,2.595397229267302,-0.016728017927180275,0.6160115513176223,-1.0724011297703329
1.7183877418282039,2.4738046429638096,-0.01678906537792956,0.5999143117173062,-1.1123201002381253
1.7150224495032276,2.355424721447541,-0.01686385787183309,0.5838849034453678,-1.1517108942588328
1.7116409531492955,2.240243980734949,-0.016951105667486255,0.5679225036805639,-1.1904661393267788
1.7082408920112435,2.1282490897541706,-0.017049505713035443,0.5520264061272201,-1.2284752831425336
1.7048201674603694,2.019426846340405,-0.017157739795706357,0.5361960280104291,-1.2656242012275722
1.7013769462555355,1.913764151719544,-0.01727447225263078,0.5204309181981881,-1.301794775674546
1.6979096643103408,1.8112479832404276,-0.01739834719931695,0.5047307665929622,-1.3368644416604456
1.6944170310679545,1.7118653650853908,-0.017527985224546364,0.48909541495741743,-1.3707056980347907
1.6908980345963047,1.6156033366531837,-0.017661979491952525,0.47352486936464483,-1.403185577963698
1.6873519475292205,1.522448918267468,-0.017798891178890077,0.45801931449251804,-1.4341650752713087
1.683778333994106,1.4323890738166831,-0.01793724417225362,0.44257913001532184,-1.463498521785807
1.6801770576840371,1.3454106698767667,-0.018075518928436073,0.4272049093838591,-1.491032910688891
1.6765482912521574,1.2615004308055617,-0.018212145390360514,0.41189748132818466,-1.5166071606168554
1.672892527229307,1.1806448892262402,-0.01834549483814449,0.3966579344650316,-1.5400513151162
1.6692105906923889,1.1028303312352747,-0.01847387053103508,0.38148764544463765,-1.5611856720879953
1.6655036539416632,1.0280427355779942,-0.0185954969762205,0.3663883111281815,-1.5798198381679964
1.6617732534806207,0.956267705930621,-0.01870850763420538,0.3513619853455327,-1.5957517037377558
1.6580213096332468,0.8874903953120672,-0.01881093083953344,0.3364111208400108,-1.6087663356712625
1.6542501491814787,0.8216954215224384,-0.01890067367814869,0.32153861705627623,-1.6186347873217533
1.650462531462045,0.7588667723708866,-0.018975503516189724,0.3067478744592333,-1.6251128291263737
1.6466616784288468,0.6989876993180104,-0.01903302681579146,0.29204285606952324,-1.6279396092574387
1.6428513092677002,0.6420405980271866,-0.019070664795675624,0.2774281568387044,-1.6268362630102988
1.6390356802492727,0.5880068742109721,-0.019085625388597458,0.26290908132344626,-1.6215045036019147
1.6352196306305187,0.5368667930997333,-0.01907487079894157,0.2484917297889468,-1.6116252479796327
1.6314086355759105,0.488599310893008,-0.019035079747139944,0.23418309227829628,-1.5968573623603661
1.6276088672849776,0.4431818867476949,-0.01896260316219154,0.21999114917484955,-1.5768366583031825
1.623827265810625,0.4005902743173806,-0.018853411581331875,0.2059249751282961,-1.5511753381204896
1.62007162148019,0.36079829274791564,-0.01870303172301919,0.1919948405663405,-1.5194621884330035
1.616350671465407,0.3237775786048829,-0.018506468424812312,0.178212300863973,-1.48126396706847
1.6126742140169221,0.289497322832041,-0.018258106060034973,0.1645902568644549,-1.4361286413489283
1.6090532453983195,0.25792400106021063,-0.017951580125990938,0.15114296085383389,-1.3835914417840005
1.6055001269830447,0.22902111216783538,-0.01757960402675675,0.13788592806994096,-1.3231851266677415
1.6020287939152191,0.20274894994098958,-0.0171337266514989,0.1248356941985414,-1.2544564414922348
1.5986550231788828,0.17906444714183323,-0.01660398071186766,0.11200933379301936,-1.1769915115190508
1.5953967895078767,0.15792115115886673,-0.01597835599819262,0.09942362603662996,-1.0904537573221824
1.5922747549526175,0.13926941514810665,-0.015241989554398715,0.08709373407096155,-0.9946385965487219
1.589312966335533,0.12305691344855774,-0.014375896616447207,0.07503128292456071,-0.8895489486093986
1.586539881104003,0.10922960031424367,-0.013354955698851726,0.0632418484185931,-0.7754927441769768
1.5839899183487485,0.097733191455319,-0.01214467185369393,0.05172224017063709,-0.6531952433806781
1.5817058658191963,0.0885150879975356,-0.010695853441826823,0.04045879440719338,-0.5239010398906043
1.5797427551209258,0.0815262586738541,-0.008935253540877607,0.029429498829655183,-0.38941201777323786
1.578174615234441,0.0767217105826461,-0.006746145323972818,0.0186159820824571,-0.2519787954893695
1.5771087789287095,0.07405584111950958,-0.003912217733340996,0.00804271254888783,-0.11396252781668284
