x,y,v_x,v_y,omega
2.375,32.48,0.0,2.1025641025641026,-5.673469387755102
2.374085725250218,32.042706928091384,-0.008707378569349673,2.062131820375039,-5.400210001869559
2.371447775559213,31.613774174172622,-0.01641595182117701,2.0229420264703384,-5.145975958802261
2.367284636871265,31.19294795341804,-0.02323298806404198,1.984926742620919,-4.908992946659031
2.3617736013837596,30.779988178438906,-0.029253064197913504,1.948023495275618,-4.6876874739514465
2.3550732540286474,30.37466736874591,-0.034559767755536555,1.9121746922766945,-4.48066033254798
2.3473256288857725,29.97676968156986,-0.0392271383670815,1.8773270903523678,-4.286664086879903
2.3386580854634813,29.586090046634567,-0.04332089422616885,1.8434313376028042,-4.104583895453918
2.3291849461613046,29.20243339046393,-0.04689948008027513,1.8104415783080057,-3.933421105283119
2.3190089292985343,28.825613938210186,-0.050014966231822076,1.7783151098229157,-3.7722791653696772
2.308222406479468,28.455454582938028,-0.05271382252119022,1.7470120832452591,-3.6203514887478443
2.2969085084896594,28.091786313885578,-0.05503758690555864,1.7164952410637768,-3.4769109589387437
2.2851421001628123,27.73444769652204,-0.05702344477870158,1.686729686208043,-3.3413008298083895
2.2729906415594914,27.383284398291337,-0.05870473239578091,1.6576826778938567,-3.2129268106497486
2.2605149502280706,27.038148754816056,-0.060111375522513874,1.629323450442159,-3.0912501630303697
2.2477698771746777,26.698899372071764,-0.06127027260503849,1.6016230518844254,-2.975781664248599
2.234804907373065,26.365400760657042,-0.062205630267460586,1.5745541996843662,-2.8660763154292415
2.2216646941343114,26.03752299880069,-0.06293925772067052,1.548091151328513,-2.7617286913797074
2.2083895353797707,25.715141421183205,-0.06349082565590677,1.522209587885636,-2.6623688451159584
2.1950157987782557,25.398136331018442,-0.06387809435852077,1.4968865089216428,-2.5676586930811762
2.1815990738937305,25.086400234607773,-0.06390023787505537,1.4720286949894827,-2.471968953060722
2.1681887095368024,24.779829743422948,-0.0638175179052091,1.4476902686755067,-2.3808624399168985
2.1548055639071357,24.478317855531664,-0.06364101190114221,1.4238515207652893,-2.294063132193018
2.1414682807509786,24.181761604433124,-0.0633807324432128,1.4004937277922496,-2.2113148295449374
2.1281935018610296,23.89006185873547,-0.06304573317534853,1.3775990883758458,-2.1323794983026305
2.114996058514968,23.603123134669282,-0.06264420345380811,1.355150664635517,-2.0570357743754584
2.101889144086103,23.320853420422353,-0.062183553011571295,1.3331323281923584,-1.9850776066803715
2.088884469803298,23.043164011377954,-0.06167048777705146,1.311528710325717,-1.9163130262735908
2.075992405413013,22.769969355424266,-0.06111107784470474,1.2903251558999134,-1.8505630281046177
2.0632221062996488,22.50118690757936,-0.06051081847305301,1.2695076807182015,-1.787660553824664
2.050581628447596,22.23673699324419,-0.059874684879831434,1.2490629319977278,-1.7274495654017175
2.038078032476448,21.97654267945683,-0.05920718151205696,1.2289781516914013,-1.6697842004485028
2.025717477846857,21.720529653576094,-0.05851238638880537,1.2092411424108502,-1.6145280011804366
2.013505308216338,21.46862610887135,-0.05779399104470689,1.189840235729547,-1.5615532098077902
2.001446128819818,21.220762636539696,-0.05705533654120223,1.1707642626671926,-1.5107401239462106
1.9895438766572715,20.976872123711168,-0.05629944595923869,1.1520025261759275,-1.4619765063166947
1.9778018841888199,20.736889657038738,-0.05552905374030158,1.1335447754662245,-1.4151570436121736
1.9662229371649207,20.50075243150209,-0.05474663220159395,1.1153811820256843,-1.3701828499434514
1.9548093271546734,20.26839966408364,-0.053954415515047545,1.0975023171976506,-1.3269610107513048
1.9435628992777505,20.039772512002017,-0.05315442140802563,1.0798991311987798,-1.2854041634918119
1.9324850955942792,19.81481399521225,-0.052348470815511916,1.0625629334656355,-1.2454301117750801
1.9215769945613272,19.593468922904194,-0.05153820568879144,1.0454853742301693,-1.206961469969289
1.9108393469239149,19.375683823750585,-0.05072510514370818,1.0286584272327457,-1.1699253355773187
1.9002726083720471,19.161406879674775,-0.04991050011217423,1.0120743734892685,-1.1342529869565758
1.8898769692627122,18.950587862924614,-0.04909558664339775,0.9957257860360895,-1.0998796041877243
1.8796594832233042,18.743336426487026,-0.048213804208106496,0.9780974181313776,-1.096550790149588
1.8696245011769703,18.53977356273589,-0.0473574533760256,0.9605965223556818,-1.0956963670690045
1.8597666410193177,18.339872894508034,-0.04652692907780962,0.9432193655286306,-1.0971805964399115
1.8500804524025087,18.143608812027196,-0.04572248632037094,0.9259623723841095,-1.1008718469949283
1.8405604449270085,17.95095644047836,-0.044944251541534315,0.9088221185571709,-1.106642290979697
1.8312011140402062,17.761891608997587,-0.0441922330946805,0.891795324116887,-1.1143676120938326
1.8219969648180836,17.576390820965372,-0.04346633092553297,0.8748788476184539,-1.1239267238832917
1.812942533793588,17.39443122549707,-0.04276634549823594,0.8580696806511089,-1.1352014974204498
1.8040324089838342,17.21599059002824,-0.04209198602322786,0.8413649428615494,-1.1480764971516
1.7952612482577104,17.041047273897043,-0.041442878035094353,0.8247618774355678,-1.1624387238272667
1.7866237961757474,16.869580202828832,-0.04081857036455295,0.8082578470235778,-1.178177363458938
1.77811489942525,16.701568844230998,-0.0402185415449457,0.7918503300986321,-1.195183541266727
1.7697295209655737,16.536993183208104,-0.03964220569006582,0.775536917738452,-1.2133500795962018
1.7614627529910538,16.375833699208844,-0.03908891787679145,0.7593153108259364,-1.2325712587892268
1.753309828812395,16.21807134321723,-0.03855797906281811,0.7431833176656303,-1.2527425799931091
1.745266133751291,16.06368751540058,-0.038048640566744285,0.727138852016738,-1.2737605288845832
1.7373272151376233,15.91266404312644,-0.037560108134849175,0.7111799315465125,-1.2955223392700648
1.7294887914937758,15.764983159259373,-0.037091545616081814,0.6953046767112742,-1.3179257555009773
1.7217467609863635,15.620627480646714,-0.03664207826403435,0.6795113100759567,-1.3408687926125913
1.7140972092220326,15.479579986699605,-0.03621079568197437,0.6637981560869971,-1.3642494930564357
1.7065364164608696,15.341823997972117,-0.03579675442433796,0.6481636413176354,-1.3879656788496935
1.699060864318446,15.207343154636785,-0.0353989802654118,0.6326062952093237,-1.4119146979097497
1.6916672420255383,15.076121394749311,-0.03501647014323288,0.6171247513380443,-1.4359931632779848
1.6843524523131808,14.94814293218862,-0.03464819378398159,0.6017177492399636,-1.4600966838637426
1.6771136169898853,14.823392234150528,-0.03429309500930879,0.5863841368370963,-1.4841195852570541
1.6699480822776684,14.701853998064017,-0.03395009272608891,0.5711228735106213,-1.5079546190671862
1.6628534239739547,14.58351312778829,-0.03361808159499525,0.5559330338772577,-1.5314926591437166
1.6558274525075238,14.468354708936232,-0.03329593237101366,0.5408138123328211,-1.5546223829282908
1.6488682179584893,14.356363983155418,-0.03298249190550467,0.5257645284368252,-1.5772299360697368
1.6419740151148687,14.247526321181144,-0.032676582795645503,0.5107846332229217,-1.5991985783148484
1.6351433886417128,14.141827194456855,-0.032377002662979736,0.49587371653220025,-1.6204083085650862
1.6283751384430776,14.03925214509557,-0.03208252303831078,0.4810315154800281,-1.6407354668704885
1.6216683253024062,13.939786753931024,-0.03179188782522468,0.4662579241823093,-1.6600523110232623
1.6150222768933093,13.843416606379076,-0.031503811309029926,0.45155300488386435,-1.6782265653250241
1.6084365942603274,13.75012725579801,-0.031216975671750684,0.43691700065009803,-1.6951209390479915
1.6019111588782722,13.659904184000418,-0.030930027966870895,0.4223503498031721,-1.7105926121121595
1.59544614040929,13.572732758529028,-0.030641576499627832,0.40785370230530466,-1.7244926855865812
1.5890420052891243,13.488598186263985,-0.030350186549567382,0.3934279383141405,-1.7366655948339094
1.5826995262884629,13.407485462879457,-0.030054375361492972,0.3790741891575623,-1.746948483510125
1.5764197932120698,13.32937931761328,-0.02975260631844111,0.364793860996507,-1.755170537285162
1.5702042249181272,13.25426415275512,-0.02944328219530057,0.3505886614621789,-1.7611522771756083
1.5640545828634242,13.182123977197246,-0.029124737373298366,0.33646062956518824,-1.7647048139322006
1.5579729864076104,13.11294233332968,-0.02879522887254713,0.32241216917354804,-1.7656290672179888
1.551961930142809,13.046702216501124,-0.028452926030323136,0.3084460863365187,-1.7637149566488497
1.546024303555162,12.983385986214316,-0.028095898613933964,0.29456563068069314,-1.7587405765672302
1.540163413374703,12.922975268187134,-0.027722103104721636,0.2807745410067372,-1.7504713732709496
1.53438300903287,12.865450846401671,-0.027329366817499527,0.26707709504530075,-1.738659353144272
1.5286873117281776,12.81079254430135,-0.026915369417665733,0.2534781630530079,-1.723042363887874
1.5230810477079546,12.758979094409096,-0.026477621251125214,0.239983264492276,-1.7033435104206844
1.517569486519521,12.709987995868815,-0.026013437686338122,0.22659862636753672,-1.6792707942557512
1.5121584851860757,12.663795359818383,-0.025519908346473955,0.21333124077941742,-1.6505171033028387
1.5068545395490354,12.620375743171792,-0.024993859625338413,0.2001889177595529,-1.6167607323012894
1.5016648444332845,12.579701972444777,-0.02443180814371862,0.1871803272596258,-1.5776666880147752
1.4965973649025242,12.541744960875143,-0.02382990167304515,0.174315021022617,-1.5328891351175362
1.4916609217839834,12.506473524501278,-0.023183842313058874,0.1616034206332461,-1.4820754770954765
1.4868652960186801,12.473854206377837,-0.02248878402316245,0.1490567519709442,-1.424872750827596
1.482221358488,12.443851123099506,-0.02173919245950598,0.13668689829887676,-1.3609372509297637
1.477741235167354,12.416425854665114,-0.020928648689504052,0.12450613440962803,-1.2899485882678212
1.4734385223511017,12.391537407713312,-0.020049568608134775,0.11252669370276465,-1.2116296992520974
1.4693285741573023,12.369142293096871,-0.019092795142336243,0.1007601121681013,-1.125774575269436
1.4654288958448447,12.349194770232394,-0.018046998309640083,0.08921629606500052,-1.0322854774062051
1.461759693544741,12.331647318652053,-0.01689778550087304,0.07790229041444549,-0.9312207365331782
1.4583446567128973,12.316451392658465,-0.015626374802400197,0.06682081428639107,-0.8228521934765131
1.4552120891633913,12.303558480385338,-0.014207601859560987,0.055968826410042596,-0.7077268566676395
1.4523965703268567,12.292921393848314,-0.012606863250292978,0.04533675965686518,-0.5867194515034498
1.4499414581751995,12.284495515076387,-0.010775157241677852,0.03490970483768248,-0.46105160288148883
1.4479028727174001,12.278239334196055,-0.008639942356412305,0.02467297021308174,-0.33224353698733416
1.4463568725946248,12.274112777025426,-0.006083868336687156,0.01462757426908281,-0.20196405192696482
1.445416446786524,12.27206884715461,-0.0028725679309401374,0.004838424500577993,-0.07176689138420153
