x,y,v_x,v_y,omega
2.375,32.48,0.0,2.051282051282051,-7.755102040816326
2.3738064140653177,32.05337818377155,-0.011367485092213225,2.0117828651793555,-7.387638776324206
2.3703605817601017,31.634919641973394,-0.021449965433650915,1.9735365805173741,-7.045409532142245
2.3649179312804067,31.224369111724684,-0.03038480103963466,1.9364684694703318,-6.7260647803844975
2.3577067814794956,30.821486306614776,-0.038292816111901024,1.9005106268145129,-6.427524698872647
2.34893157074877,30.426044574609488,-0.045280619418819654,1.8656011065691835,-6.147942359576597
2.3387756386845404,30.037829722957515,-0.05144254309765223,1.8316831948781818,-5.8856727888674225
2.327403633021647,29.656638984111186,-0.056862272739429454,1.7987047941344465,-5.639246821302074
2.3149636006778054,29.282280101386664,-0.0616142257733478,1.766617898480063,-5.4073488929365485
2.301588811039831,28.91457051684324,-0.06576472315973793,1.7353781447906287,-5.188798092495709
2.287399351135466,28.55333664687282,-0.06937299021516727,1.7049444263562539,-4.982531922301026
2.2725035255559054,28.198413233419874,-0.07249201530445813,1.6752785589098738,-4.787592325238597
2.256999088539092,27.849642760723306,-0.07516928961757298,1.646344990581247,-4.603113616248518
2.240974331202504,27.506874929079043,-0.07744744692135988,1.618110548887936,-4.428312022017653
2.2245090433064982,27.169966178440276,-0.07936481875488917,1.5905442191003436,-4.26247658463061
2.20767536596688,26.8387792557579,-0.08095591781290344,1.5636169493032372,-4.1049612267903655
2.1905385492883656,26.513182820862472,-0.08225186007770806,1.5373014782722598,-3.9551778100701735
2.1731576268580133,26.193051086436213,-0.08328073449707804,1.5115721829301854,-3.812590045191275
2.155586017340524,25.8782634882477,-0.08406792757424572,1.486404942674716,-3.6767081358373193
2.137903188185163,25.568718544252405,-0.08433996914347845,1.461642142994748,-3.540027551696642
2.1201796767331205,25.264318800558392,-0.08445537801883427,1.4374030350434692,-3.4098848914334456
2.1024467182262354,24.964956431161163,-0.08442994109435378,1.4136671496920712,-3.2858858764300605
2.0847323884163766,24.670527795426413,-0.08427796185668429,1.3904150954007894,-3.1676646814588962
2.067061899751226,24.38093321964935,-0.084012406382848,1.3676284834283672,-3.0548815354826613
2.049457868538161,24.096076793636705,-0.08364503374158117,1.3452898595492455,-2.94722055457503
2.031940556168705,23.815866181016794,-0.08318651263418764,1.3233826415927294,-2.844387781499366
2.014528087125698,23.54021244211826,-0.08264652587063936,1.3018910622028437,-2.7461094096213956
1.997236646181773,23.269029868376485,-0.08203386407150288,1.2808001162902594,-2.652130171538801
1.9800806569241647,23.00223582733142,-0.08135650981048197,1.260095512710366,-2.562211875152075
1.963072943501631,22.739750617372472,-0.08062171326126721,1.2397636297558028,-2.476132071931331
1.946224877279575,22.481497331467736,-0.07983606028212319,1.219791474098813,-2.3936828438986737
1.9295465099052538,22.227401729187093,-0.0790055337590325,1.200166642859699,-2.3146696973835925
1.9130466941228415,21.977392116392924,-0.07813556893060652,1.180877288513343,-2.2389105529518556
1.896733193535147,21.731399232029446,-0.07723110333315113,1.161912086376927,-2.1662348220837964
1.8806127823824748,21.489356141492692,-0.07629662193039492,1.1432602044493243,-2.096482562208763
1.864691336297355,21.25119813610887,-0.07533619792788793,1.1249112753966124,-2.0295037026084146
1.8489739148947835,21.016862638289798,-0.07435352971565141,1.1068553704992892,-1.965157334499193
1.8334648369696547,20.786289111970856,-0.07335197433319293,1.0890829753953983,-1.9033110593078997
1.8181677489948764,20.559418977969962,-0.07233457780755262,1.0715849674702422,-1.8438403897760771
1.8030856875440178,20.336195533936003,-0.07130410267681613,1.0543525947579488,-1.7866281990792756
1.78822113620028,20.116563878581943,-0.07026305297783027,1.0373774562331188,-1.7315642136352962
1.773576077458162,19.90047083992232,-0.06921369694710376,1.020651483382291,-1.6785445457088972
1.7591520400746719,19.68786490725688,-0.06815808765756379,1.00416692295524,-1.627471262305937
1.7449501422826212,19.478696166662026,-0.06709808179053649,0.9879163208052808,-1.5782519871933136
1.7309820506123954,19.273092787036287,-0.06593136268780499,0.9702111042017769,-1.5633712917989628
1.717256306878522,19.07119347290587,-0.06479000620622756,0.9526395065640951,-1.5512647777557955
1.7037675296412984,18.87297058500771,-0.06367453891018934,0.9351975210374321,-1.5417816740204973
1.690510243147823,18.67839730688786,-0.06258533245624112,0.9178813181992326,-1.534775981351005
1.6774789085665986,18.487447608489315,-0.061522615936372274,0.9006872379773947,-1.530106123934403
1.664667952728005,18.300096211370057,-0.060486487288327916,0.8836117822060198,-1.5276346155830434
1.6520717945595644,18.11631855542092,-0.05947692383967922,0.8666516077857501,-1.52722773904871
1.639684869391461,17.936090766959353,-0.05849379204701915,0.849803520419651,-1.528755237077378
1.6275016512954181,17.759389628080864,-0.05753685648672339,0.8330644688993121,-1.5320900138899458
1.615516673608652,17.586192547154898,-0.0566057881491439,0.8164315399194172,-1.5371078458278087
1.6037245477841875,17.416477530356097,-0.05570017208385091,0.7999019534024929,-1.5436870999468075
1.592119980699228,17.25022315412535,-0.05481951443957308,0.7834730583189259,-1.5517084593792911
1.5806977905445019,17.08740853845784,-0.05396324893877194,0.7671423289906838,-1.5610546543121224
1.5694529214094848,16.928013320917415,-0.053130742823295676,0.7509073618705103,-1.5716101974486782
1.5583804566710913,16.77201763127788,-0.05232130230426085,0.7347658727917302,-1.5832611228354294
1.5474756312867948,16.619402066692587,-0.05153417754618249,0.7187156946872387,-1.5958947269386885
1.536733843087145,16.47014766729355,-0.05076856721238785,0.7027547757797913,-1.609399310854661
1.5261506631572765,16.324235892120484,-0.05002362259588352,0.6868811782494034,-1.6236639225261034
1.5157218453922159,16.181648595278602,-0.04929845135707515,0.6710930773875591,-1.63857809782171
1.5054433353065835,16.042368002221444,-0.048592120887042074,0.6553887612520527,-1.654031599309868
1.49531127817564,15.906376686051704,-0.04790366131242106,0.6397666308407136,-1.6699141515267006
1.4853220265815257,15.773657543728692,-0.04723206815533219,0.6242252008070295,-1.686115171499462
1.475472147436004,15.644193772065638,-0.04657630465916082,0.6087631007458649,-1.7025234932405842
1.4657584285490133,15.517968843393593,-0.04593530378836799,0.5933790770831208,-1.719027084875336
1.4561778848109146,15.394966480760882,-0.04530796990781085,0.5780719956093691,-1.7355127570077191
1.4467277640554443,15.275170632527946,-0.04469318014428691,0.5628408447043051,-1.7518658608657944
1.4374055526701297,15.158565446206826,-0.04408978543013935,0.5476847393063496,-1.7679699747004254
1.4282089810212621,15.045135241382209,-0.043496611225741576,0.5326029256899927,-1.7837065768424325
1.4191360287615389,14.934864481536891,-0.04291245791447843,0.5175947871225652,-1.7989547037551985
1.4101849300901752,14.827737744588397,-0.04233610086041418,0.5026598504821259,-1.81359059135689
1.401354179037743,14.723739691925218,-0.04176629011513093,0.48779779392909883,-1.827487297834342
1.392642534851256,14.622855035710359,-0.04120174975617212,0.4730084557362248,-1.8405143061371816
1.3840490275591772,14.525068504196657,-0.04064117683505581,0.45829184439425946,-1.8525371043369099
1.3755729638011738,14.430364804772179,-0.0400832399078344,0.4436481501245768,-1.8634167420764947
1.367213933013719,14.338728584424956,-0.03952657711554409,0.4290777579442037,-1.8730093614423053
1.3589718140701652,14.250144387284251,-0.03896979377544355,0.41458126244345367,-1.881165700790331
1.350846782482915,14.164596608860371,-0.03841145943646368,0.4001594844506337,-1.8877305703914937
1.3428393182860214,14.082069446567068,-0.03785010434347476,0.38581348977130236,-1.892542299279634
1.3349502147292946,14.002546846070103,-0.03728421524439978,0.37154461019978685,-1.8954321534631269
1.3271805879301999,13.926012442963504,-0.036712230461265025,0.35735446700591245,-1.8962237267964377
1.3195318876481037,13.852449499232709,-0.036132534130126785,0.343244997096893,-1.89473230743718
1.3120059093675482,13.781840833923514,-0.03554344949421074,0.3292184820383035,-1.8907642251233723
1.3046048079043429,13.714168747400873,-0.03494323110774601,0.31527758008208295,-1.884116187749243
1.2973311127819465,13.649414938557474,-0.03433005577222054,0.301425361283624,-1.8745746202448248
1.2901877456681516,13.587560414326301,-0.03370201197820594,0.2876653456799191,-1.8619150250522198
1.2831780402167807,13.52858539087567,-0.033057087558659416,0.27400154432611096,-1.8459013921930996
1.2763057647307994,13.472469185935843,-0.032393155164971967,0.2604385027198654,-1.8262856989297833
1.2695751481590807,13.41919010184742,-0.03170795504187186,0.24698134574129732,-1.8028075555496539
1.262990910069591,13.368725299166915,-0.030999074381838587,0.23363582264445676,-1.7751940764904417
1.2565582954228198,13.321050661062632,-0.030263922254078708,0.22040834977727705,-1.7431600870679542
1.2502831152245053,13.276140649351024,-0.029499698682250185,0.20730604747612844,-1.706408818360054
1.244171794501677,13.23396815395261,-0.028703355820875884,0.19433676584209036,-1.664633300051131
1.2382314295742152,13.194504338911962,-0.02787154825018854,0.1815090916878898,-1.6175187378042009
1.2324698573659103,13.15771849009143,-0.027000568019382293,0.1688323256505021,-1.5647462631592581
1.2268957406348302,13.123577872417052,-0.02608625799090534,0.15631641410547764,-1.5059985749466902
1.2215186746821205,13.092047608360964,-0.02512389393966405,0.1439718150001316,-1.4409681541771382
1.216349323586015,13.063090594411012,-0.024108021261341164,0.13180927023750766,-1.3693689244234042
1.2113995976895038,13.03666747871545,-0.0230322253720984,0.11983945067259719,-1.2909524247747917
1.2066828894979484,13.012736730672156,-0.02188880502366682,0.10807243545402634,-1.2055297047523599
1.2022143930940143,12.991254840950642,-0.020668303585229274,0.09651699046515069,-1.1130001147943074
1.1980115437409902,12.972176695700249,-0.019358833110239393,0.08517963096718181,-1.013387711415562
1.1940946311200256,12.955456166025137,-0.017945096613232948,0.07406350879577903,-0.9068847143368647
1.1904876643680713,12.941046932987387,-0.016406967691093125,0.06316728203992117,-0.7938987617511595
1.1872196058419597,12.928903512478644,-0.014717399224254895,0.05248434185287953,-0.6750960356485226
1.1843261604835937,12.918982327795977,-0.012839223236372965,0.04200313131539982,-0.5514257137839672
1.1818524638507586,12.911242461548245,-0.010719792314437687,0.031709880567765004,-0.42410443934745956
1.1798574494416187,12.905645310186749,-0.008280344915464609,0.02159632287504386,-0.2945369436275057
1.17842222895782,12.902151340352763,-0.005388421596904845,0.011679580305784452,-0.16415599906776598
1.1776729709989808,12.900707293518956,-0.0017473684872766691,0.002073246682840207,-0.03420395207962504
