x,y,v_x,v_y,omega
2.375,32.48,0.0,2.5128205128205128,-4.6938775510204085
2.3743209468491755,32.03204351408852,-0.007545035009160937,2.4644737750847896,-4.464160095371699
2.372362953980703,31.592656917154567,-0.014210441307196384,2.41759952418134,-4.25073120304473
2.369275725499055,31.161582036142914,-0.02009209737778426,2.3721213759481525,-4.052055996857749
2.3651927318404393,30.73857394172749,-0.025274498829059546,2.327968562000969,-3.8667733817732843
2.3602331232653917,30.32339998836823,-0.029832263115911015,2.2850753642130615,-3.69367335926168
2.3545033924906136,29.915838949482307,-0.03383141215940283,2.2433806234083176,-3.531677692354897
2.3480988231423234,29.515680235448237,-0.037330469488265856,2.202827310303551,-3.37982336741649
2.3411047547278296,29.122723184112875,-0.0403814017838871,2.1633621489782664,-3.2372484004313886
2.333597689925866,28.736776415061755,-0.04303042934904449,2.124935284923071,-3.103179616750587
2.3256462659689006,28.357657240217115,-0.04531872572834764,2.0874999911284893,-2.9769220983037132
2.3173121085609063,27.985191124403105,-0.0472830232493654,2.051012406804926,-2.85785004479773
2.3086505840080465,27.61921119040965,-0.04895613844907478,2.0154313042334477,-2.7453988380125605
2.2997114629318807,27.25955776383018,-0.050367429063881905,1.9807178799829093,-2.6390581330319023
2.290539507001242,26.906077953572197,-0.05154319238765508,1.9468355673280038,-2.53836582869759
2.2811749884930355,26.5586252644653,-0.05250701325908545,1.9137498671930944,-2.442902792987876
2.271654151120033,26.21705923883642,-0.053280068663164516,1.8814281953500138,-2.3522882383674215
2.2620096194019452,25.88124512430108,-0.05388139487114679,1.8498397439315146,-2.2661756582088257
2.252270762869231,25.551053565343324,-0.05432812215900998,1.8189553555991407,-2.1842492487535132
2.2424640205485424,25.226360316535192,-0.054635681404196564,1.7887474089356266,-2.1062207522520167
2.2326131904606816,24.907045975486653,-0.054817986238699414,1.7591897138259494,-2.0318266662922473
2.222739688247058,24.592995733824402,-0.05488759391267948,1.7302574157546202,-1.9608257722055273
2.2128627785127133,24.284099144678827,-0.05485584758003371,1.7019269080851074,-1.8929969420902046
2.2029997820197273,23.98024990531573,-0.05473300234203384,1.674175751504812,-1.8281371896201997
2.193166261472988,23.681345653687565,-0.05452833706618556,1.6469825999192806,-1.7660599345811765
2.1833761883017218,23.387287777799962,-0.05425025372565955,1.6203271321652204,-1.7065934551399713
2.1736420925468893,23.097981236896374,-0.053906365772477954,1.5941899889857194,-1.649579505318467
2.163975197710069,22.81333439355793,-0.053503576858860036,1.5685527147747962,-1.5948720781062802
2.154385542198221,22.533258855899376,-0.05304815105055919,1.54339770365357,-1.5423362971861625
2.1448820888060296,22.25766932911661,-0.05254577552934537,1.5187081494882921,-1.4918474224273646
2.135472823509403,21.98648347570746,-0.0520016166553977,1.4944679995022652,-1.443289956179935
2.1261677310363676,21.71962462627397,-0.05138829971165893,1.4706303275365342,-1.394696191051097
2.1169749656014174,21.457018673388397,-0.05075353845445461,1.4472135934142545,-1.3481610770553503
2.1078981037993496,21.19859111889233,-0.05010048156851986,1.4242036787642698,-1.303574234174707
2.0989401832542334,20.94426995169559,-0.04943196893277541,1.4015870678661644,-1.260832317909827
2.090103755560462,20.69398554224574,-0.04875056099801621,1.3793508149099183,-1.2198384988568138
2.08139093419814,20.447670542698585,-0.04805856525000736,1.3574825133918456,-1.1805019859690504
2.072803437919768,20.205259792419895,-0.04735806006523783,1.3359702674824683,-1.142737589405884
2.064342630053018,19.966690228476978,-0.04665091623198118,1.3148026652166047,-1.1064653192945257
2.0560095541180408,19.73190080080427,-0.04593881637887715,1.2939687533690978,-1.0716100171079654
2.047804966116562,19.50083239175082,-0.045223272526442586,1.2734580138914324,-1.0381010166959415
2.039729363813387,19.273427739739027,-0.04450564195328229,1.2532603417951487,-1.005871832303178
2.0317830132982806,19.04963136678348,-0.04378714154790108,1.2333660243775741,-0.974859871173681
2.023965973087098,18.829389509637032,-0.04306886079857106,1.213765721694097,-0.9450061685757433
2.016278115995062,18.612650054347547,-0.0423517735573841,1.194450448189068,-0.9162551432928345
2.008719148991883,18.399362474024123,-0.04163674870015751,1.17541155540456,-0.8885543718137032
2.0012886312276756,18.18947776962537,-0.04092455979103523,1.1566407156926797,-0.8618543796233602
1.993985990400051,17.982948413595356,-0.0402158938492405,1.138129906863024,-0.8361084481474287
1.986810537616141,17.779728296184484,-0.03951135930531663,1.11987139770222,-0.8112724360375984
1.9797614808883952,17.57977267430362,-0.038811493225190584,1.1018577343073732,-0.7873046136073635
1.972837937389614,17.383038122769783,-0.03811676787237843,1.0840817271796939,-0.7641655093363799
1.9660389445806643,17.189482487811034,-0.03742759667150715,1.0665364390286451,-0.7418177674599973
1.9593634703135328,16.999064842706794,-0.03674433962995372,1.0492151732406643,-0.720226015748995
1.952810422002653,16.81174544544784,-0.03606730826871111,1.0321114629699135,-0.6993567426643248
1.9463786549487037,16.627485698307503,-0.03539677010850437,1.0152190608116336,-0.6791781831436653
1.9400669798912014,16.44624810922252,-0.034732952752630476,0.9985319290215284,-0.6596602123416502
1.9338787898660437,16.268221073500605,-0.03402471419356693,0.9795462456664179,-0.6901871476863036
1.9278143473592964,16.093601807641257,-0.033357980325847525,0.9606678194374684,-0.7220769290585842
1.9218662914028402,15.922371248514587,-0.03273153030144503,0.941893948636645,-0.7552204500958738
1.916027483715319,15.754510809453897,-0.0321441106710113,0.9232220409265659,-0.7895102877462169
1.9102910142189806,15.590002360829779,-0.03159443928830574,0.904649610452544,-0.8248404660550288
1.9046502058888364,15.428828211107554,-0.031081208824407798,0.8861742753499694,-0.8611062217440637
1.899098619002304,15.27097108831877,-0.030603089914838497,0.8677937556365013,-0.8982037705723025
1.8936300548535696,15.116414121877249,-0.03015873395998942,0.8495058714914997,-0.936030073449405
1.8882385589934763,14.965140824669472,-0.02974677559660383,0.8313085419282522,-0.974482601245303
1.8829184240527912,14.81713507534782,-0.02936583485545071,0.8131997838678869,-1.0134590972039759
1.8776641922042028,14.672381100753242,-0.029014519017754276,0.7951777116274511,-1.0528573358249462
1.8724706573163723,14.530863458391302,-0.028691424180363714,0.7772405368385371,-1.0925748770219768
1.8673328668518052,14.392567018882293,-0.028395136537045357,0.7593865688171121,-1.1325088143041837
1.8622461235592151,14.25747694830186,-0.028124233380623948,0.7416142154099228,-1.1725555156495588
1.8572059870104423,14.125578690323639,-0.027877283827962385,0.7239219843480861,-1.2126103556538916
1.852208275031903,13.996857948069323,-0.02765284926691884,0.7063084851443269,-1.2525674374384348
1.8472490650809523,13.871300665564412,-0.02744948352142184,0.6887724315768917,-1.2923193026864266
1.8423246956185384,13.748893008689542,-0.027265732727621082,0.6713126448105676,-1.3317566280508462
1.837431767531093,13.629621345507367,-0.027100134910662734,0.6539280572136057,-1.3707679060326146
1.832567145656817,13.513472225833645,-0.026951219247957417,0.6366177169388414,-1.4092391082690852
1.8277279604744283,13.400432359907821,-0.026817505000806423,0.6193807933480926,-1.4470533289964713
1.8229116100160874,13.290488596003087,-0.02669750009186973,0.6022165833711972,-1.4840904062566107
1.8181157620707171,13.183627896798225,-0.026589699301134313,0.5851245189050484,-1.5202265182084687
1.813338356749322,13.079837314313117,-0.02649258204770023,0.5681041753739347,-1.5553337516792343
1.8085776094903405,12.979103963186304,-0.026404609718762056,0.5511552815906638,-1.5892796398512392
1.8038320145906042,12.881414992046068,-0.026324222500528786,0.5342777310786254,-1.621926665733624
1.799100349356302,12.786757552695533,-0.026249835658384846,0.5174715950384113,-1.653131727818862
1.7943816789785778,12.695118766796853,-0.026179835205216807,0.5007371371691551,-1.6827455640850917
1.7896753622502461,12.606485689699014,-0.026112572887357077,0.48407483058459777,-1.7106121302926023
1.784981058253769,12.520845271007651,-0.026046360406833717,0.46748537709720944,-1.7365679283618551
1.780298734166385,12.438184311442658,-0.025979462786322637,0.45096972918048156,-1.760441280547859
1.7756286743464003,12.35848941547006,-0.025910090769062682,0.4345291149594843,-1.782051545194927
1.7709714908855205,12.281746939127704,-0.025836392129602422,0.418165066622244,-1.801208270143868
1.766328135836173,12.20794293238978,-0.025756441752035963,0.40187945268800673,-1.8177102804812844
1.7616999153506292,12.137063075332918,-0.025668230309562095,0.3856745146104839,-1.8313446984267607
1.7570885060011223,12.06909260727723,-0.0255696513516246,0.36955290823047104,-1.8418858949760628
1.7524959735880974,12.004016247981056,-0.025458486570875603,0.35351775061592017,-1.849094375783227
1.7479247947885899,11.941818109871125,-0.025332388979207178,0.3375726728277593,-1.852715608139202
1.7433778820505013,11.882481600196762,-0.025188863666224255,0.3217218791095943,-1.8524788024601198
1.7388586122040555,11.825989311916537,-0.02502524573872895,0.30597021289291565,-1.848095671397085
1.734370859343282,11.772322902074446,-0.02483867493653105,0.290323229796982,-1.8392592039046427
1.7299190326344174,11.721462956424531,-0.024626066273074693,0.2747872774243081,-1.8256425123438487
1.7255081198447093,11.673388839155653,-0.02438407583479108,0.2593695811187985,-1.8068978408002128
1.721143737569916,11.628078526810238,-0.024109060551805006,0.24407833383026173,-1.7826558663491026
1.7168321893967087,11.585508425969788,-0.02379703026160825,0.22892278661917492,-1.7525254878121088
1.7125805336069888,11.54565317512731,-0.02344358962416816,0.21391333385282402,-1.7160943868033613
1.7083966625787683,11.508485432576226,-0.02304386624494796,0.19906158338145355,-1.67293077489263
1.704289396866227,11.473975654397456,-0.02259241944995449,0.18438039638263615,-1.6225869237054944
1.7002685982173622,11.44209187011672,-0.022083121092988496,0.16988387340334565,-1.5646053309893668
1.6963453077827708,11.412799468867409,-0.021508994846913695,0.15558725158898531,-1.498528726813096
1.6925319189217078,11.386061016600426,-0.020861992498233218,0.1415066624885993,-1.4239155880437457
1.6888423990237267,11.361836135747023,-0.020132673034890573,0.12765868032697456,-1.3403634028855995
1.6852925827474379,11.340081493226105,-0.019309730034982143,0.11405956990546207,-1.247542545322561
1.6819005717636042,11.320750960224121,-0.01837928089650373,0.10072413011659365,-1.1452440666759274
1.6786872961361978,11.30379602443075,-0.01732378163023463,0.08766404536531704,-1.0334444554957531
1.6756773239972782,11.289166542853316,-0.016120353246651585,0.07488574993949959,-0.9123883404675122
1.6729000561249308,11.276811899333946,-0.01473817866831846,0.0623880669423791,-0.7826842462030874
1.670391525316024,11.266682533584653,-0.013134385875088403,0.050160441383107573,-0.6453962771843647
1.6681971808315526,11.258731567003078,-0.01124721950793042,0.03818363174550436,-0.502094821384281
1.6663764374452272,11.2529157442485,-0.008983262562350477,0.02643662108312713,-0.3548073559197231
1.6650111223637751,11.249193788887542,-0.006186905009338561,0.014918438483088782,-0.20580275473667867
1.6642267301236517,11.247516134230086,-0.0025285643253658415,0.0037221688219959293,-0.05717834582897108
