x,y,v_x,v_y,omega
2.375,32.48,0.0,2.41025641025641,-7.510204081632653
2.373726491520303,32.00285798434625,-0.0127350847969699,2.3611637462810426,-7.120390396969685
2.3700612634323113,31.535366133501686,-0.02391719608294752,2.3137547621646077,-6.760242208503595
2.364296905779858,31.07719808123151,-0.03372638044158461,2.267925760537147,-6.426745467100307
2.356692319973616,30.62804723557273,-0.042319477620836564,2.223582696050658,-6.11725843760238
2.347477017666398,30.187624973823876,-0.04983354545134295,2.180639921437888,-5.829457719891684
2.336854792955193,29.755659067691877,-0.05638870166070727,2.139019139882095,-5.561293309219677
2.32500687310423,29.33189230132187,-0.06209049684892113,2.0986485238180013,-5.310950967935769
2.3120946326781535,28.91608125204648,-0.06703190741184588,2.0594619689358487,-5.076820553162686
2.2982619401297337,28.50799520927715,-0.0712950180723517,2.0213984587574645,-4.857469228107665
2.283637193405915,28.10741521137915,-0.07495244916583485,1.9844015202225609,-4.6516187020318345
2.2683350912189164,27.714133183892166,-0.07806857270415164,1.9484187546472858,-4.458125812218583
2.252458178684843,27.327951165279927,-0.08070055263658103,1.9134014314751018,-4.275965892732219
2.236098199620283,26.948680608668518,-0.08289923800901682,1.879304134638969,-4.104218478220311
2.219337282575893,26.576141749879888,-0.08470993243488976,1.8460844532473268,-3.942054973042743
2.2022489834227836,26.21016303357417,-0.08617305909620043,1.8137027098098857,-3.7887279814933024
2.1848992037991493,25.850580590551193,-0.087324737140142,1.7821217204198647,-3.6435620474887878
2.167347001821287,25.49723776028187,-0.08819728263848302,1.7513065822733456,-3.505945594621226
2.1496453090483065,25.14998465358608,-0.08881964509131983,1.7212244846845655,-3.3753238920291198
2.131841565671588,24.808677751078893,-0.08921778867586583,1.6918445403873017,-3.2511928997825033
2.1139782842058485,24.47317953359744,-0.08941502598152934,1.6631376344272497,-3.133093870664836
2.0960935505306657,24.143358141317513,-0.08943231077029977,1.6350762883720178,-3.020608604364602
2.0782214699230126,23.819087058689064,-0.08928849530622951,1.607634537912474,-2.913355265940576
2.060392564695375,23.500244822676194,-0.08900055697014758,1.5807878222161973,-2.8109846936133804
2.0426341291799095,23.186714752091362,-0.08858379818450611,1.554512883632151,-2.713177131952294
2.024970547052094,22.878384696073695,-0.08805202309364744,1.5287876765445123,-2.619639335761984
2.007423575347035,22.575146799985227,-0.08741769395694378,1.5035912843401333,-2.5301019977438592
1.9900125989713178,22.2768972871918,-0.08669206980022909,1.4789038435941606,-2.4443174595652284
1.97277258332727,21.983545478270514,-0.08570808664024729,1.4546142456186937,-2.3566325774196377
1.9557339410474814,21.695003884679913,-0.08467833615763967,1.4308016902872949,-2.272955930141729
1.9389051590550404,21.411178836040886,-0.08360948376677242,1.4074487961029998,-2.1930564657470506
1.9222934592598766,21.131980055646864,-0.08250751418486388,1.3845390078372257,-2.1167190000291214
1.9059049278949256,20.85732050026735,-0.08137779946464686,1.3620565459579097,-2.043742950597526
1.8897446319577025,20.587116209686457,-0.08022515990758311,1.3399863598510453,-1.9739411858114384
1.8738167241016255,20.32128616525192,-0.07905391865318757,1.3183140844943273,-1.9071389769145708
1.8581245371718718,20.05975215677472,-0.07786795064434991,1.2970260002776266,-1.8431730429981754
1.8426706694489066,19.80243865717729,-0.07667072658530098,1.276108995696669,-1.7818906795751814
1.827457061546745,19.54927270434021,-0.07546535243631512,1.2555505326741658,-1.7231489625631584
1.8124850658105256,19.300183789644066,-0.07425460492587943,1.2353386142872618,-1.6668140203655795
1.7977555089673736,19.055103752745147,-0.0730409635056409,1.215461754701937,-1.6127603675260656
1.7832687487043208,18.81396668216152,-0.071826639124887,1.1959089511343226,-1.560870294122838
1.7690247247759612,18.576708821280484,-0.07061360015870952,1.1766696576760434,-1.5110333056824192
1.7550230051814342,18.34326847942928,-0.06940359578656106,1.1577337608359903,-1.4631456089329842
1.7412628278942814,18.113585947679226,-0.06819817708496487,1.139091556664559,-1.4171096391975164
1.7277431385788746,17.887603419078914,-0.06699871606910406,1.1207337293385755,-1.3728336256527067
1.7144626246827244,17.66526491303545,-0.0658064228923976,1.102651331096054,-1.3302311910579787
1.7014197462544312,17.446516203583872,-0.06462236139053566,1.084835763419714,-1.2892209828958483
1.688612763801735,17.2313047513042,-0.06344746313642655,1.067278759376993,-1.249726333165028
1.6760397634726147,17.01957963866328,-0.062282540154777015,1.0499723670322052,-1.211674944335595
1.663698679814206,16.811291508574698,-0.061128296429308324,1.0329089338536457,-1.1749985992149388
1.6515873163391093,16.606392505984843,-0.059985338321658394,1.0160810920448795,-1.139632892687393
1.6397033641060812,16.404836222306827,-0.05885418400862435,0.9994817447352974,-1.1055169834823286
1.6280444185018812,16.206577642536267,-0.05773527203337434,0.9831040529702922,-1.072593364297555
1.6166180012469868,16.0117727856618,-0.05652890051557074,0.9649445157743768,-1.0802594044619136
1.6054285154066372,15.820587789202172,-0.055365957887924144,0.9469054488219247,-1.090015866292611
1.5944673552681683,15.632998895306656,-0.0542456434967646,0.9289834901332376,-1.1017325004727974
1.5837260826653834,15.448983004193344,-0.05316708253108331,0.9111754209998649,-1.115282391938047
1.5731964410841202,15.268517646049968,-0.052129333281549825,0.8934781604339059,-1.1305416655495268
1.5628703683776703,15.09158095399405,-0.051131393782948786,0.875888760125283,-1.147389200499984
1.552740008211029,14.918151637992587,-0.05017220788346464,0.8584043998893719,-1.1657063522335143
1.5427977203446361,14.748208959644582,-0.049250670780464516,0.8410223835906724,-1.185376680691542
1.533036089860702,14.581732707732368,-0.04836563405887452,0.8237401355314792,-1.206285683720385
1.5234479354283261,14.41870317444944,-0.04751591026488641,0.8065551972977911,-1.2283205344903507
1.5140263166973833,14.259101132213857,-0.04670027704454316,0.7894652250580274,-1.2513698217825588
1.504764540905558,14.102907810976703,-0.04591748087370831,0.7724679873135294,-1.275323291997608
1.495656168777887,13.950104875935011,-0.04516624040300072,0.7555613631033719,-1.3000715917297114
1.486695019793742,13.800674405557704,-0.044445249438449005,0.7387433406697186,-1.3255060097308804
1.4778751768923106,13.654598869831343,-0.043753179575865,0.7220120165938968,-1.3515182170619129
1.4691909906843013,13.511861108630196,-0.043088682504228454,0.7053655954175791,-1.378000004190111
1.4606370832348092,13.372444310111636,-0.04245039199069151,0.688802389768012,-1.404843013747495
1.4522083514800275,13.236331989033715,-0.041836925557126,0.672320821011186,-1.4319384676074969
1.4438999703387725,13.103507964886369,-0.04124688585542263,0.6559194204622717,-1.4591768868723833
1.4357073955786324,12.973956339721276,-0.040678861745981267,0.6395968311886372,-1.4864478032876924
1.4276263664959365,12.847661475557672,-0.040131429080975695,0.6233518104473993,-1.513639460513578
1.4196529084687386,12.724607971232246,-0.03960315119100296,0.6071832328068562,-1.5406385035860675
1.4117833354425784,12.604780638550618,-0.03909257907060166,0.5910900940093986,-1.567329654794048
1.4040142524100374,12.488164477585403,-0.03859825125480738,0.5750715156427411,-1.5935953740808115
1.3963425579470203,12.374744650951463,-0.0381186933753644,0.5591267506966721,-1.6193155019533094
1.3887654468713455,12.264506456872383,-0.03765241738138311,0.5432551900941455,-1.644366882749703
1.3812804130927003,12.15743530083311,-0.03719792040506787,0.5274563702985644,-1.6686229659793108
1.373885252727336,12.053516665591886,-0.036753683248577904,0.5117299821136949,-1.6919533833131442
1.3665780675561732,11.952736079299623,-0.03631816846304987,0.49607588080892717,-1.7142234986746143
1.3593572689113465,11.855079081446661,-0.035889817985217246,0.48049409772068463,-1.7352939287684512
1.3522215820837447,11.76053118632452,-0.03546705029080077,0.4649848535007339,-1.7550200313055235
1.3451700513529865,11.669077843654051,-0.03504825701678056,0.4495485732039446,-1.7732513581521252
1.3382020457516461,11.580704395990505,-0.03463179899662225,0.43418590343152685,-1.7898310706828622
1.331317265687655,11.495396032470296,-0.03421600164328904,0.4188977317705493,-1.8045953147865228
1.3245157505629137,11.413137738413653,-0.03379914960412428,0.40368520879589054,-1.8173725533204828
1.3177978875426,11.33391424024152,-0.0333794805990135,0.3885497729254509,-1.8279828544100216
1.3111644216488947,11.257709945104832,-0.03295517833803938,0.3734931784414279,-1.836237134954678
1.3046164673754632,11.184508874560034,-0.03252436439627598,0.3585175270065506,-1.8419363601887275
1.2981555220458165,11.114294591558433,-0.03208508890019007,0.34362530300946514,-1.8448707023630198
1.2917834811707485,11.047050119951436,-0.03163531985048943,0.3288194130605277,-1.8448186648732088
1.2855026560989566,10.982757855653691,-0.031172930867428617,0.31410322991693473,-1.8415461828787691
1.279315794302975,10.921399468559216,-0.030695687092388593,0.2994806410278152,-1.8348057182325122
1.2732261027029728,10.86295579428332,-0.0302012289076323,0.284956101731147,-1.824335376205377
1.2672372745087357,10.80740671482328,-0.029687053034739445,0.2705346928692342,-1.8098580852150121
1.2613535201626374,10.754731027319789,-0.029150490426243472,0.2562221821656867,-1.7910809001854504
1.2555796031049151,10.704906300298344,-0.028588680150979706,0.24202508804876444,-1.7676945175619367
1.2499208812743137,10.65790871713293,-0.027998538155035224,0.22795074360536416,-1.73937312854524
1.2443833555288313,10.613712907086985,-0.027376719299788625,0.21400735685409342,-1.70577479113709
1.2389737265641692,10.57229176526921,-0.026719570346833418,0.20020406132364693,-1.6665425769594175
1.2336994624858302,10.533616264363694,-0.026023070436555683,0.18655094773149994,-1.6213068531930876
1.2285688800547399,10.497655263288568,-0.025282753874348203,0.17305906301975585,-1.5696892029115688
1.2235912439315788,10.4643753213155,-0.024493607357262383,0.1597403567109191,-1.511308679285664
1.2187768902333647,10.433740531031106,-0.0236499296248795,0.14660754613304616,-1.44579134003942
1.2141373837591438,10.405712390270597,-0.022745135117328053,0.13367386147203833,-1.372784319784948
1.2096857229059712,10.380249742155247,-0.021771473414398827,0.12095261968148327,-1.2919760484779323
1.2054366134289427,10.357308823585338,-0.02071962135588617,0.1084565660176153,-1.2031245397928538
1.2014068430445184,10.336843474889065,-0.019578082488357088,0.0961969209451012,-1.1060957673106413
1.19761580524189,10.318805573323115,-0.018332295537927805,0.08418209471440743,-1.0009136227006625
1.1940862452516092,10.303145752529428,-0.016963304364879625,0.07241611322246883,-0.8878210741000134
1.1908453385408013,10.289814442308398,-0.015445762743198518,0.06089698898782195,-0.7673477774552755
1.1879262728673905,10.278763178996638,-0.013744893990909746,0.0496156441297613,-0.6403713052666116
1.1853706198391507,10.26994595052117,-0.011811636291487494,0.038556640624928855,-0.5081472952836463
1.1832320599817188,10.263319977215971,-0.009573962282832135,0.027703092427038507,-0.37227188717725834
1.181582903822159,10.258844581362325,-0.006917599312766077,0.01705086610941319,-0.23453693360329367
1.1805286365224097,10.256474437959405,-0.003625073684726865,0.006650567919792568,-0.0966566541720956
