x,y,v_x,v_y,omega
2.375,32.48,0.0,3.1794871794871797,-5.428571428571429
2.3737057174987823,31.85179198677288,-0.012942825012176744,3.1025929527839735,-5.070613439214318
2.3700194622078974,31.238635422214745,-0.023919727896673154,3.028972692797389,-4.748051194348035
2.3643057477958904,30.639898127561125,-0.03321741622339595,2.9584002537387963,-4.4563482414850215
2.3568762915914316,30.054990945363567,-0.04107714582119358,2.8906715682368014,-4.1916567548819925
2.3479983085934,29.483363616401604,-0.04770268415912113,2.8256017213828324,-3.9506981666739507
2.337901367228321,28.9245011915527,-0.053266729491667275,2.763022527106205,-3.730667002762725
2.3267830825754494,28.377920888700594,-0.05791611703705162,2.7027805014148436,-3.5291529179822763
2.31481386437975,27.843169323291455,-0.06177606491994285,2.6447351526765597,-3.3440771145472654
2.302140892427641,27.319820055241447,-0.06495365460114286,2.5887575278235193,-3.17364020777326
2.28889145725252,26.807471405742167,-0.06754069715007063,2.53472896716929,-3.0162792611650326
2.2751757771433203,26.305744505942275,-0.06961610394192522,2.4825400308296186,-2.870632210022048
2.261089381214113,25.814281546108727,-0.0712478553501512,2.4320895675058685,-2.7355082715132832
2.246715131504182,25.332744199127468,-0.07249464174916001,2.3832839023067183,-2.609863230245372
2.2321249437093234,24.860812196413335,-0.07340723619942416,2.3360361248346195,-2.492778713705572
2.2173812554386685,24.398182037700188,-0.07402964650712053,2.2902654622968615,-2.3834447476619105
2.2025382822718846,23.944565818953567,-0.07440008516072004,2.245896725169325,-2.281145019476292
2.1876430949185424,23.49969016492377,-0.074551788372704,2.2028598151286447,-2.185244386127783
2.1727365451148093,23.063295254739735,-0.07451370966462594,2.1610892867117264,-2.0951782501484266
2.1578540632681977,22.63513393051239,-0.07431110880148803,2.1205239555617377,-2.0104434956282105
2.1430263470722806,22.21497088023093,-0.0739660531576838,2.0811065472528405,-1.9305907317453288
2.1282799571975075,21.802581887344683,-0.07349784559004721,2.0427833816096257,-1.8552176358329275
2.1136378335929376,21.397753140364188,-0.07292339045565299,2.0055040881953294,-1.7839632240495118
2.0991197438046156,21.00028059661774,-0.07225750742756422,1.9692213492691582,-1.7165029070199882
2.0847426729478196,20.609969394987466,-0.07151320114039629,1.933890667033573,-1.6525442117181794
2.0705211634969536,20.226633313041354,-0.07070189336826593,1.8994701524275204,-1.5918230704369396
2.056467611825708,19.85009426448987,-0.06983362334418779,1.8659203330873508,-1.534100593780308
2.042592527398531,19.480181833340513,-0.06891722092758563,1.8332039784061838,-1.4791602578802308
2.0289047596478085,19.11673284151141,-0.06796045657964007,1.8012859398848322,-1.4268054470187992
2.0154116968412317,18.759590947003815,-0.06697017148612527,1.7701330051911375,-1.3768573019497055
2.0021194406274985,18.40860627003108,-0.06595239065120855,1.7397137645362075,-1.3291528317998487
1.9890329594268934,18.063635044763373,-0.06491242135484011,1.7099984881408496,-1.2835432537677296
1.976156223390828,17.724539294578513,-0.0638549390058131,1.6809590137077495,-1.2398925301409216
1.9634923232782364,17.39118652891392,-0.06278406212010498,1.652568642938183,-1.1980760766101475
1.95104357527625,17.063449459996185,-0.06170341789975701,1.6248020462391743,-1.1579796196085792
1.9388116135189586,16.741205737886226,-0.060616199673157796,1.597635174860411,-1.1194981835713003
1.9267974718239942,16.424337702421994,-0.05952521727648731,1.5710451797819207,-1.0825351916892556
1.9150016559660705,16.112732150769286,-0.05843294130274829,1.5450103367451558,-1.0470016660048194
1.9034242076343229,15.806280119406459,-0.05734154201472989,1.5195099768831308,-1.0128155146285462
1.8920647610720835,15.504876679472066,-0.05625292360766278,1.494524422460804,-0.9799008955034643
1.8809350005206749,15.20842313002943,-0.055044681906424704,1.4700110719655421,-0.9446403265798601
1.8700449296777872,14.916824282686932,-0.05385602652245045,1.445977401459444,-0.9109928614181083
1.8593905755359685,14.629985916577716,-0.052687514895736275,1.4224062596326947,-0.8788655825410971
1.8489678674597552,14.347817162487754,-0.05153956586639683,1.399281281266933,-0.8481719395928479
1.8387726631255699,14.070230350172551,-0.05041247747545728,1.3765868418850944,-0.8188312437454076
1.8288007711140064,13.797140864431999,-0.04930644264017731,1.3543080155204237,-0.790768207606503
1.819047970553795,13.528467009344482,-0.048221562961937504,1.3324305353547288,-0.7639125260608288
1.8095100281683991,13.264129880109127,-0.047157860892020585,1.3109407569988085,-0.7381984939827306
1.8001827130339687,13.004053241988395,-0.046115290452284234,1.289825624208504,-0.7135646572020743
1.7910618093204267,12.748163415882718,-0.04509374668313417,1.2690726368482437,-0.6899534934961983
1.7821431272551291,12.496389170104841,-0.04409307396984359,1.2486698209305274,-0.6673111207258491
1.7734225125201766,12.248661617954316,-0.04311307337968175,1.2286057005747262,-0.6455870295377816
1.7648958542695952,12.004914120722638,-0.04215350912612961,1.208869271742045,-0.6247338383263342
1.7565590919307477,11.765082195786867,-0.04121411426234808,1.189449977615661,-0.6047070683851531
1.7484082209351381,11.529103429474695,-0.04029459569374535,1.170337685506056,-0.5854649373921352
1.7404392975068914,11.296917394406936,-0.03939463858872437,1.1515226651715276,-0.566968169558883
1.7326484426222915,11.068465571044495,-0.03851391025727354,1.1329955684528965,-0.5491798209433689
1.7250318452406825,10.843691273186241,-0.037652063558816465,1.1147474101296373,-0.5320651185735997
1.7175857648954502,10.622539577182067,-0.036808739893506935,1.096769549912101,-0.5155913121629981
1.7103065337236183,10.404957254641726,-0.03598357182481158,1.0790536754912945,-0.4997275373168994
1.703190558003572,10.19089270843521,-0.035176185375651176,1.0615917865738456,-0.4844446892356274
1.6962343192624596,9.980295911794283,-0.03438620203547362,1.044376179835423,-0.46971530601453176
1.68943437500778,9.77311835033764,-0.03361324051132228,1.0273994347310147,-0.45551346072639803
1.682787359131431,9.56931296685402,-0.03285691825216813,1.0106544001051663,-0.4418146615479002
1.6762899820289712,9.368834108688546,-0.0321168527724296,0.9941341815495728,-0.4285957592602344
1.6699453283300736,9.171813743360126,-0.031329684216546506,0.9760694717346193,-0.4510672380573804
1.6637538077354312,8.978394998622637,-0.030585521729877666,0.958117975640286,-0.4752863182537993
1.6577069130272943,8.788555539135267,-0.029883425351490838,0.9402766192334118,-0.5011403759607962
1.6517963303937468,8.602273632224897,-0.029222400983984185,0.9225424498702972,-0.5285194487079428
1.6460139496648856,8.419528124062928,-0.028601406304628853,0.9049126317493986,-0.5573159879378522
1.6403518734195168,8.240298416710452,-0.028019356149058452,0.8873844417753746,-0.5874246175967578
1.6348024250641404,8.064564445950733,-0.027475127404704952,0.8699552658218016,-0.6187418978154464
1.6293581559788943,7.892306659830297,-0.02696756344775751,0.8526225953825447,-0.6511660926882701
1.6240118518187001,7.723505997831598,-0.026495478154184335,0.835384024604445,-0.6845969411638636
1.6187565380520534,7.558143870601484,-0.026057659512281645,0.8182372476967097,-0.7189354300597316
1.6135854848146982,7.396202140160295,-0.025652872861273025,0.8011800567151833,-0.7540835682038678
1.6084922111508055,7.237663100516517,-0.025279863777652085,0.7842103397225895,-0.7899441606897666
1.6034704887102187,7.082509458611369,-0.024937360628216637,0.767326079328887,-0.826420582206252
1.5985143449667911,6.930724315516567,-0.024624076806058916,0.7505253516191417,-0.8634165483700528
1.5936180660198724,6.782291147806671,-0.024338712663128183,0.7338063254798055,-0.9008358839464791
1.5887761990385254,6.637193789024881,-0.024079957150343688,0.717167262338089,-0.9385822867913064
1.583983554406133,6.495416411157745,-0.0238464891735799,0.7006065163332639,-0.9765590862843374
1.5792352076216605,6.356943506030088,-0.02363697867114392,0.6841225349433068,-1.0146689949513055
1.5745265010129876,6.22175986652622,-0.02345008741558638,0.6677138600953859,-1.0528138518849197
1.569853045317449,6.089850567537244,-0.023284469539799034,0.6513791297943707,-1.090894356476952
1.565210721185037,5.961200946526812,-0.02313877178431958,0.6351170803099357,-1.1288097908603045
1.5605956806606505,5.835796583598814,-0.023011633459547286,0.6189265489700353,-1.1664577293318672
1.5560043487033828,5.713623280940141,-0.022901686113129895,0.6028064776166983,-1.2037337328825894
1.5514334248031634,5.594667041499534,-0.022807552889064574,0.586755916789375,-1.240531026799489
1.5468798847581557,5.478914046749431,-0.022727847561011167,0.5707740307116536,-1.2767401591243852
1.5423409826802663,5.366350633361339,-0.022661173217884915,0.5548601031692478,-1.312248637555325
1.5378142533009864,5.256963268606317,-0.022606120574911338,0.539013544380976,-1.346940542158752
1.5332975146557042,5.150738524270192,-0.022561265877912413,0.5232338989802602,-1.3806961110239995
1.5287888712316566,5.047663048847891,-0.02252516836256389,0.5075208552427669,-1.4133912957383021
1.5242867176730384,4.9477235377519655,-0.022496367223619272,0.4918742557164903,-1.4448972832935572
1.5197897431465242,4.850906701236898,-0.022473378041521306,0.4762941094341799,-1.4750799807613926
1.5152969364818438,4.7571992297019925,-0.02245468860528162,0.46078060591487263,-1.503799458800191
1.5108075922152313,4.666587755991333,-0.02243875406084217,0.4453341311917103,-1.5309093498014077
1.5063213176788328,4.579058814258417,-0.022423991303143247,0.4299552861374647,-1.5562561962653003
1.5018380412967616,4.494598794904935,-0.022408772517569765,0.4146449073973752,-1.5796787448515943
1.4973580222688023,4.413193895037104,-0.02239141776202223,0.39940409128091875,-1.6010071815280589
1.4928818618461843,4.334830063808063,-0.022370186464157768,0.3842342210094763,-1.6200623034117272
1.488410516430886,4.259492941930677,-0.0223432676888246,0.3691369977643768,-1.636654623368593
1.4839453127612425,4.18716779455151,-0.022308769007610883,0.3541144760272982,-1.6505834043603105
1.479487965483016,4.117839436573913,-0.022264703774655666,0.33916910374866055,-1.661635622120983
1.4750405974476686,4.051492149407736,-0.022208976578818793,0.3243037679130963,-1.6695848573320289
1.4706057631298313,3.9881095880080224,-0.022139366599552592,0.30952184608405336,-1.6741901224989162
1.4661864756160132,3.9276746769510353,-0.022053508538629533,0.29482726448582397,-1.6751946348867273
1.461786237689508,3.870169494192915,-0.021948870726419493,0.280224563095398,-1.6723245561074538
1.4574090776268236,3.815575141080444,-0.021822729900426895,0.2657189680292961,-1.6652877326701376
1.4530595904357337,3.7638715971613337,-0.021672142010469984,0.2513164711618244,-1.6537724920353851
1.4487429854151617,3.715037558414192,-0.021493908195253455,0.23702391630959938,-1.6374465784010008
1.4444651411196219,3.669050257750751,-0.02128453476014311,0.22284909032482028,-1.6159563558423615
1.4402326690934262,3.625885267133203,-0.021040185501814395,0.208800815850662,-1.588926469668172
1.4360529881465414,3.585516281547843,-0.02075662396703401,0.1948890400029239,-1.555960248672478
1.431934411547158,3.547914886606069,-0.02042914202679976,0.18112490941482373,-1.5166412636388604
1.427886250423759,3.5130503140340714,-0.02005246920719078,0.16752081630515145,-1.4705366477185182
1.4239189380957646,3.480889193233807,-0.019620654072753218,0.15409039169748964,-1.4172030538159759
1.4200441823051606,3.4513953130961568,-0.019126903833286944,0.1408484096790268,-1.3561964980761674
1.4162751559234343,3.4245294171481184,-0.018563359983973682,0.12781054980136622,-1.2870878392640788
1.4126267425066517,3.400249067825815,-0.017920774183854467,0.1149929434216542,-1.2094862717908696
1.4091158624290696,3.378508632808906,-0.017188026591965836,0.10241140674744349,-1.1230738976969334
1.405761920396147,3.359259467300756,-0.016351393737261525,0.09008024833406203,-1.0276549518261655
1.4025874392759217,3.342450386776626,-0.015393417464990445,0.07801055690723459,-0.9232229754074157
1.3996189836681623,3.328028532926762,-0.014291138612603522,0.06620798159141508,-0.8100468606112278
1.3968885385727021,3.3159407033067296,-0.013013312341998184,0.05467031460891449,-0.6887698966685414
1.3944356142343999,3.3061350877899365,-0.011515931041024902,0.04338584055902012,-0.5605017259337626
1.3923105605427892,3.298563038534258,-0.00973460587507883,0.032334651997755016,-0.4268604258527874
1.3905801386199732,3.293179826727762,-0.007569613353082793,0.021497466067195055,-0.2898981364248795
1.3893384905997854,3.2899417312303925,-0.004846866848794857,0.010883488906505097,-0.15183934244094324
1.3887390745497292,3.2887893541739146,-0.0011472936517666998,0.0006402816582765404,-0.014629813257180407
