x,y,v_x,v_y,omega
2.375,32.48,0.0,2.564102564102564,-2.612244897959184
2.374335109222733,31.897031539982777,-0.005781658932755486,2.5051883925689284,-2.450935768743885
2.372436520519426,31.327350722601594,-0.010727808052520126,2.44855784552829,-2.3044179514149317
2.369483183620813,30.770448564113856,-0.014953382370203668,2.3940696195824755,-2.1709257341207016
2.365629580618166,30.225847221341798,-0.018556208957163377,2.341594230609349,-2.0489428090126562
2.361009339416447,29.693097420595052,-0.021619801492564966,2.291012732405813,-1.937162237410227
2.355738261900581,29.171776161135895,-0.02421565516714041,2.242215610717321,-1.8344535665693518
2.3499168705404454,28.661484656248756,-0.026405139268821,2.195101823083858,-1.7398356946757907
2.3436325571412175,28.161846481093086,-0.028241064202727036,2.1495779608784966,-1.652454380596605
2.336961401617346,27.67250590142627,-0.02976898383093879,2.105557514485118,-1.5715635254629394
2.3299697160819903,27.19312636125769,-0.031028281693894627,2.0629602261112296,-1.4965095316109878
2.3227153594823404,26.723389110740655,-0.03205308004219028,2.0217115175151883,-1.4267181834403644
2.315248859928702,26.262991958281425,-0.0328730030329253,1.9817419821302957,-1.361683603723774
2.307614375342478,25.811648133061276,-0.03351381945597917,1.942986932827492,-1.3009589248005042
2.299850517761447,25.369085246018997,-0.033997985596462076,1.9053859979749308,-1.2441483821552057
2.2919910623383095,24.935044338897615,-0.03434510503951879,1.868882759602329,-1.1909005920936773
2.284065558553552,24.509279012275297,-0.03457231917576438,1.8334244284178223,-1.1409028186049137
2.2760998582816128,24.091554624619388,-0.034694639710663236,1.7989615511987809,-1.0938760693640177
2.2681165729778634,23.68164755535883,-0.03472523249585377,1.7654477467191176,-1.0495708889736757
2.260135470296127,23.279344525791473,-0.034675660388809426,1.732839466910052,-1.0077637403512636
2.2521738188249776,22.884441972350892,-0.03455609153423036,1.7010957803993425,-0.9682538837269383
2.244246688284019,22.49674546737053,-0.034375478387147544,1.6701781759516343,-0.9308606778737327
2.2363672113990107,22.116069183016066,-0.034141711917270154,1.6400503836524203,-0.8954212406117035
2.2285468127369166,21.74223539452175,-0.03386175470963789,1.6106782119503098,-0.8617884158428678
2.2207954089962576,21.375074019273402,-0.03354175607870059,1.5820293989049077,-0.8298290028016083
2.213121584588138,21.01442218863781,-0.03318715181799138,1.554073476187226,-0.7994222101810214
2.2055327457874494,20.660123849752857,-0.03280275079669196,1.5267816445514848,-0.7704583035872357
2.1980352562645047,20.312029394770168,-0.03239281027239243,1.5001266596457934,-0.7428374195962835
2.190634556410228,19.96999531528772,-0.031961101503929425,1.4740827271581072,-0.7164685237152815
2.1833484780681482,19.633885099378862,-0.03139610147067387,1.4486148024841243,-0.688191810568094
2.176192811950117,19.30356762888134,-0.03082708216438334,1.4237110279291267,-0.6613505293338215
2.169168256312589,18.978915684688083,-0.030256010335860173,1.3993493563600308,-0.6358533898335476
2.162275086972367,18.659806990626286,-0.029684592622591592,1.375508852872975,-0.6116160051563302
2.155513213560005,18.34612396571547,-0.029114306615338398,1.3521696246124022,-0.588560287781739
2.148882229062784,18.037753491961137,-0.028546428143104107,1.3293127558600644,-0.5666139054931427
2.1423814534714127,17.734586696524758,-0.027982055260123675,1.3069202479345456,-0.5457097904876285
2.136009972240909,17.436518747211224,-0.027422129352952903,1.2849749634874748,-0.5257856958883819
2.129766670186414,17.143448660305506,-0.026867453729613903,1.2634605748231156,-0.5067837945596342
2.123650261356977,16.85527911987188,-0.02631871000461982,1.2423615159040773,-0.48865031572793965
2.1176593153629244,16.571916307703034,-0.025776472552357033,1.2216629377380388,-0.47133521543938556
2.1117922805738445,16.293269743173216,-0.0252412212657311,1.201350666869096,-0.4547918773411819
2.106047504553257,16.019252132310122,-0.024713352826330227,1.1814111667230245,-0.4389768406771556
2.10042325205165,15.749779225455416,-0.024193190665906385,1.1618315015787573,-0.4238495527378421
2.0949177208408183,15.484769682933571,-0.023680993776111,1.1425993029590238,-0.4093721433138378
2.0895290556386477,15.224144948194343,-0.023176964503633175,1.12370273825164,-0.39550921897159
2.084255360343895,14.967829127935598,-0.02268125545073709,1.1051304813896237,-0.3822276752087826
2.0790947087746345,14.715748878750958,-0.022193975586309162,1.0868716854333436,-0.3694965247561547
2.0740451540813565,14.467833299881303,-0.02171519565958898,1.0689159569114695,-0.3572867404776006
2.069104736985791,14.224013831680665,-0.021244952997500944,1.0512533317897346,-0.3455711114838842
2.064271492979058,13.984224159435872,-0.020783255756695602,1.0338742529475984,-0.3343241112199637
2.05954345859736,13.748400122205812,-0.020330086692854132,1.016769549052924,-0.3235217764141089
2.0549186768799133,13.51647962637033,-0.019885406502337215,0.9999304147338711,-0.31314159589072993
2.050395202101901,13.288402563601057,-0.019449156784726186,0.9833483919554541,-0.3031624083498848
2.0459745977678807,13.064219091645068,-0.01899088090240617,0.9660731033140083,-0.3124390896962075
2.041656613526707,12.843994416810393,-0.018556808151280593,0.9489240691614188,-0.32400700541096833
2.0374356256121633,12.627699932539837,-0.018147434583878963,0.9318975331912385,-0.33774005903016396
2.033305913224964,12.415307878599357,-0.017763107913506777,0.9149898923781611,-0.353516145755444
2.0292616911900976,12.206791306648675,-0.017404040215767316,0.8981976898016757,-0.37121686168001466
2.025297139809338,12.002124047400876,-0.01707031961692315,0.8815176080052722,-0.3907272244065881
2.021406432133185,11.80128067925105,-0.016761921045275935,0.8649464628627807,-0.4119354038840321
2.017583758859705,11.604236498260267,-0.01647871611542385,0.8484811979266244,-0.4347324623370396
2.0138233510523484,11.410967489386586,-0.01622048220941267,0.8321188792358287,-0.45901210220287203
2.0101195008547275,11.22145029885954,-0.015986910813379007,0.8158566905645758,-0.4846704210212773
2.0064665803674155,11.035662207598694,-0.01577761516324629,0.7996919290949644,-0.5116056722481863
2.002859058840084,10.853581105580222,-0.01559213724833359,0.7836220015004568,-0.539718030980836
1.999291518321532,10.675185467058302,-0.015429954217334427,0.7676444204292963,-0.56890936359153
1.9957586679004358,10.500454326550233,-0.015290484226980499,0.7517568013800006,-0.5990830002692509
1.9922553566608074,10.329367255495683,-0.015173091769788406,0.7359568599639028,-0.6301435094625938
1.988776585468222,10.161904339501277,-0.01507709251356214,0.7202424095526689,-0.661996473203744
1.9853175176957603,9.998046156081863,-0.015001757681757549,0.7046113593118017,-0.69454826227111
1.981873488992315,9.837773752809198,-0.014946318000375023,0.6890617126243954,-0.7277058101173027
1.9784400161903963,9.681068625777414,-0.01490996723370083,0.6735915659128751,-0.7613763844488615
1.9750128054458085,9.527912698292361,-0.014891865327933703,0.6581991078702024,-0.7954673552938145
1.971587759697571,9.378288299688936,-0.014891141178477944,0.6428826191161124,-0.8298859583320526
1.9681609855332025,9.232178144176263,-0.014906895033423033,0.6276404722984326,-0.8645390521906947
1.9647287995419798,9.089565309605526,-0.014938200542426339,0.6124711326645154,-0.899332868321135
1.9612877342370652,8.950433216048769,-0.014984106456831273,0.5973731591333706,-0.9341727519751416
1.9578345436264448,8.814765604069319,-0.015043637983346844,0.5823452059053289,-0.9689628926829892
1.9543662085125166,8.682546512555096,-0.015115797789940906,0.5673860246531215,-1.003606042505795
1.950879941600922,8.553760255975163,-0.015199566658709213,0.5524944673462742,-1.0380032201855607
1.9473731925008932,8.428391400906811,-0.01529390377632118,0.537669489769836,-1.0720533991484205
1.943843652702079,8.306424741665257,-0.015397746648150573,0.5229101558089048,-1.1056531771278197
1.9402892606165514,8.187845274850261,-0.015510010617307342,0.5082156425823738,-1.13869642496344
1.9367082067796528,8.072638172603135,-0.015629587964419444,0.49358524652307456,-1.1710739118976201
1.933098939309565,7.960788754343493,-0.015755346558084544,0.47901839051730083,-1.20267290443323
1.929460169733163,7.852282456726989,-0.015886128019322876,0.46451463223491274,-1.2333767355357101
1.9257908792950007,7.747104801532725,-0.016020745356002217,0.4500736738021789,-1.2630643406589388
1.9220903258773419,7.645241361151207,-0.016157980014944652,0.43569537299363575,-1.29160975675338
1.9183580516722603,7.546677721300039,-0.01629657829011215,0.4213797561469409,-1.3188815800823606
1.9145938917622036,7.451399440543955,-0.01643524701472747,0.40712703303640857,-1.3447423783397143
1.910797983783391,7.359392006137405,-0.016572648453207925,0.3929376139770589,-1.3690480522475388
1.9069707788673338,7.270640785640772,-0.016707394295115807,0.3788121294719209,-1.391647141544602
1.9031130540800665,7.185130973683965,-0.016838038637643795,0.3647514527611841,-1.4123800700966544
1.8992259266068567,7.102847533162947,-0.016963069825049918,0.35075672568245614,-1.431078324833512
1.8953108699628498,7.023775130054254,-0.01708090099240151,0.33682938830619147,-1.447563563439132
1.8913697325480543,6.947898060919254,-0.017189859136253677,0.3229712128677341,-1.4616466463301103
1.8874047589092582,6.875200172043414,-0.017288172505451893,0.3091843425743473,-1.4731265896610752
1.8834186141231248,6.805664769016943,-0.01737395606962091,0.29547133591671226,-1.481789438194918
1.8794144117755507,6.739274515414198,-0.01744519477885071,0.2818352171506234,-1.4874070603156724
1.875395746084682,6.676011319075446,-0.017499724272181768,0.26827953362114615,-1.4897358728940533
1.8713667288021578,6.615856204345246,-0.017535208619332054,0.2548084205545084,-1.4885155120980924
1.8673320316341115,6.558789168493938,-0.017549114581071175,0.24142667380469565,-1.4834674789831588
1.863296935057793,6.504789020469815,-0.017538681734741372,0.2281398307528874,-1.4742938078718173
1.859267384583183,6.453833200145198,-0.01750088760969387,0.21495425902640622,-1.4606758342005397
1.8552500557404628,6.405897576401575,-0.01743240667483016,0.20187725178771618,-1.4422731811640321
1.8512524293941979,6.360956222860974,-0.01732956155356056,0.18891712682619274,-1.4187231477246045
1.8472828794436016,6.318981170988554,-0.017188264103798256,0.17608332423833495,-1.3896407739817742
1.8433507756482275,6.279942141934825,-0.017003942812498875,0.16338649362018892,-1.3546199973325235
1.8394666053583895,6.243806261260804,-0.016771451012180773,0.15083855571912438,-1.3132365137008992
1.8356421195619468,6.210537765192544,-0.01648494721775431,0.13845271443964519,-1.265053248480733
1.831890511274632,6.180097714128962,-0.01613773354150372,0.1262433817654117,-1.2096297539647969
1.8282266385562116,6.152443739902896,-0.015722029227370215,0.11422595933080877,-1.1465374164726125
1.8246673114259535,6.127529869083467,-0.01522864147052646,0.10241639562074835,-1.0753830901784467
1.8212316734911018,6.105306486482068,-0.014646471006444726,0.09083040960880391,-0.9958446164511022
1.8179417281446901,6.085720530556898,-0.013961749397136429,0.07948225061006096,-0.9077223817271061
1.8148230904769318,6.068716040587251,-0.013156839018150998,0.06838287956077346,-0.8110109047170205
1.8119060972578782,6.054235188141067,-0.012208319408403005,0.057537576492987436,-0.7059918202588193
1.8092274921376328,6.042219883218316,-0.011083899028512633,0.04694333587875958,-0.59334155644644
1.8068330529696692,6.032613868753675,-0.00973731112769418,0.036587224683344625,-0.47422949536521136
1.8047818447854151,6.025364764491606,-0.008099281778860839,0.02644846455204974,-0.3503541589559157
1.8031536929114367,6.020424516326461,-0.006058560603560685,0.016510215144855622,-0.22383639820398063
1.8020652942183695,6.017743986446767,-0.0034057758578950647,0.006798740330751691,-0.09688805859251651
