x,y,v_x,v_y,omega
2.375,32.48,0.0,2.1025641025641026,-3.1020408163265305
2.374488987764661,32.04266047374541,-0.004866783193702422,2.062574242717739,-2.9530352042214187
2.3730149141436008,31.613595497876027,-0.009172013197347718,2.0237588608001476,-2.8143359034230473
2.3706893837849385,31.192564537301088,-0.01297589498038843,1.986059811342129,-2.684994464377034
2.3676120933400844,30.779338850061585,-0.016331633065842694,1.949422924272153,-2.5641671511990816
2.363872206955991,30.373700690729535,-0.01928633249695064,1.913797640795006,-2.4511016658122364
2.3595495560425914,29.975442585740577,-0.021881771440191104,1.879136692433164,-2.345125765574032
2.3547156881497147,29.584366672262803,-0.024155065634824755,1.8453958168789617,-2.2456374742016885
2.349434785912372,29.200284093422283,-0.02613924138748557,1.8125335054116944,-2.152096638301824
2.3437644738147116,28.823014443714314,-0.027863730971184723,1.780510777521377,-2.0640176242390993
2.3377565278548533,28.452385259269334,-0.029354801979846946,1.7492909790974607,-1.9809629845438774
2.331457500965133,28.088231548346215,-0.030635930303203825,1.7188396011227425,-1.902537951191477
2.324909275175306,27.730395358018086,-0.0317281248380068,1.6891241162879855,-1.8283856361523978
2.318149549936038,27.378725373517874,-0.032650210774068,1.6601138313330996,-1.7581828386065304
2.3112122746950168,27.03307654713738,-0.033419077235658824,1.631779753243027,-1.691636373916694
2.3041280326964575,26.693309753938994,-0.03404989417918896,1.6040944676939763,-1.628479852487262
2.2969243820226595,26.3592914718524,-0.034556302714125624,1.5770320283687933,-1.5684708474854776
2.2896261590857194,26.030893483999215,-0.034950582399589904,1.5505678559473048,-1.51138839947123
2.2822557490857083,25.70799260132257,-0.03524379855289742,1.524678645735017,-1.4570308135831251
2.274833327359653,25.390470403802574,-0.035445932171439896,1.4993422830268264,-1.4052137113212562
2.2673891831674373,25.078215280194275,-0.035450679182993966,1.4745160370522266,-1.3528613823792932
2.2599501973991525,24.77111981375065,-0.035396804324480884,1.4502026909823051,-1.3030133094813576
2.2525280196569524,24.469078293187565,-0.03529060274409019,1.4263832191422925,-1.2555191067006428
2.245133042022695,24.171988906649034,-0.03513775567740768,1.4030395097961048,-1.2102391328226805
2.237774521488761,23.87975355560931,-0.03494339226482293,1.3801543096298532,-1.167043601902561
2.230460690103933,23.592277680006582,-0.034712144733537384,1.3577111723008994,-1.125811777327308
2.223198854147437,23.30947009379139,-0.03444819770928706,1.3356944107008983,-1.0864312406255754
2.215995483493519,23.031242830143057,-0.03415533232802552,1.31408905261655,-1.0487972272810449
2.2088562921968404,22.757510995670508,-0.033836965735579476,1.292880799503009,-1.012812022691573
2.2017863112129565,22.48819263297087,-0.03349618649188658,1.272055988112591,-0.9783844121909779
2.1947899540662044,22.22320859097071,-0.03313578633432343,1.2516015547460493,-0.9454291797294193
2.187871076187544,21.962482402521236,-0.03275828870053424,1.2315050019156089,-0.9138666504044969
2.1810330285657713,21.705940168761103,-0.032365974363972205,1.2117543672285311,-0.8836222725594267
2.174278706285671,21.45351044979877,-0.03196090449412573,1.1923381943174711,-0.8546262356264056
2.1676105924649693,21.205124161301182,-0.031544941417315495,1.173245505659566,-0.8268131203006029
2.1610307980473067,20.9607144766072,-0.031119767322328032,1.1544657771402584,-0.8001215779900991
2.1545410978600845,20.72021673401327,-0.030686901127406557,1.1359889142304924,-0.7744940368055107
2.148142963303129,20.483568348905052,-0.030247713700743157,1.1178052296573022,-0.749876431635193
2.141837591996008,20.25070873043294,-0.029803441605171902,1.0999054224580673,-0.7262179561022631
2.135625934677983,20.021579202451456,-0.029355199518873682,1.0822805583179687,-0.703470834422135
2.1295087196244404,19.796122928462722,-0.028903991467245812,1.0649220510985584,-0.6815901113771733
2.1234864748168096,19.57428484032271,-0.028450720986382044,1.0478216454729345,-0.6605334588013845
2.1175595480790506,19.356011570486118,-0.027996200325607963,1.0309714005898842,-0.6402609971253348
2.1117281253724354,19.141251387581143,-0.027541158785012232,1.014363674695608,-0.6207351306719411
2.1059922474212684,18.929954135120134,-0.027086250273722235,0.997991110647299,-0.6019203955193698
2.100355011577791,18.7222138634573,-0.026601710140348393,0.9804876670940316,-0.6108422433604248
2.0948172182351277,18.518136680253704,-0.02613917883739969,0.9631045538925895,-0.6219026311982728
2.0893742056449716,18.31769767532839,-0.025699036306940582,0.9458383501579957,-0.6349819568580324
2.0840212457139398,18.12087264250507,-0.025281534464792126,0.9286857719688772,-0.6499639941457885
2.078753569795182,17.92763805146351,-0.024886807618617134,0.9116436665221607,-0.6667356360112849
2.073566392376429,17.73797102077115,-0.024514882083790625,0.8947090067384555,-0.6851866463212238
2.068454932826959,17.55184929200232,-0.024165685054019337,0.877878886297987,-0.7052094192623286
2.0634144353544888,17.369251204856628,-0.02383905277903072,0.8611505150895491,-0.7266987454237375
2.058440187312471,17.19015567319119,-0.02353473809732923,0.8445212150574861,-0.7495515836323413
2.0535275359886134,17.014542161884563,-0.023252417367980862,0.827988416434207,-0.7736668376324478
2.048671903996607,16.84239066445241,-0.022991696841603897,0.8115496543481996,-0.798945136712699
2.043868803384984,16.67368168133685,-0.02275211850718423,0.7952025657999958,-0.8252886193884577
2.039113848569693,16.508396198792738,-0.0225331654479694,0.7789448870010403,-0.8526007192468371
2.034402768190324,16.346515668294966,-0.022334266736499287,0.7627744510729921,-0.8807859520540259
2.029731415983935,16.188021986391,-0.02215480189577757,0.746689186107653,-0.9097497032103407
2.02509578076506,16.03289747492269,-0.021994104950650784,0.7306871135905093,-0.9393980146172605
2.0204919955957266,15.881124861540336,-0.02185146809061672,0.714766347193839,-0.9696373699921965
2.015916346225149,15.732687260430389,-0.021726144962505373,0.698925091948504,-1.0003744776305286
2.0113652788751684,15.587568153176065,-0.021617353608739155,0.683161643806973,-1.0315160495700086
2.006835407444514,15.445751369666876,-0.02152427906415831,0.6674743896138549,-1.0629685760594405
2.0023235202025025,15.307221068969469,-0.021446075621665964,0.6518618075043247,-1.0946380941709724
1.997826586040939,15.171961720067202,-0.02138186877417687,0.6363224677553586,-1.1264299493227135
1.9933417603517114,15.039958082370315,-0.021330756837515195,0.6208550341197459,-1.158248548394963
1.9888663905968955,14.9111951858915,-0.021291812255967348,0.605458265678492,-1.1899971030283656
1.9843980216381611,14.785658310973634,-0.021264082589122275,0.5901310192535779,-1.2215773615849972
1.9799344008928879,14.663332967446838,-0.021246591175385597,0.5748722524301964,-1.2528893281329905
1.9754734833857424,14.544204873080869,-0.021238337464095012,0.5596810272456961,-1.2838309666811831
1.9710134367665455,14.428259931185845,-0.021238297004446596,0.5445565146116509,-1.3142978887419168
1.9665526463681602,14.315484207199301,-0.021245421075414588,0.5294979995459184,-1.3441830221373547
1.9620897203819139,14.205863904080118,-0.021258635936454138,0.5145048873034376,-1.3733762587878175
1.9576234952328213,14.099385336309915,-0.021276841673953068,0.4995767105080361,-1.4017640790306727
1.9531530412426834,13.996034902279266,-0.021298910613072212,0.484713137402907,-1.4292291498173915
1.9486776686761473,13.895799054809697,-0.021323685258700206,0.469913981354902,-1.4556498939282179
1.9441969342731056,13.798664269531834,-0.02134997572265075,0.4551792117676096,-1.4809000271345338
1.9397106483806097,13.704617010805272,-0.021376556586833483,0.4405089665805869,-1.5048480600378569
1.9352188828088934,13.613643694825797,-0.021402163143797108,0.4259035665572771,-1.527356761135662
1.9307219795494008,13.5257306495201,-0.021425486946607928,0.41136353159221567,-1.5482825775288873
1.9262205605081326,13.440864070776513,-0.02144517058928055,0.39688959929909107,-1.567475009624815
1.9217155384254596,13.359029974501748,-0.021459801626652838,0.3824827461748622,-1.5847759362465483
1.9172081291741851,13.28021414392795,-0.021467905528342976,0.3681442116708436,-1.6000188868007252
1.9126998656515086,13.204402071520992,-0.02146793754476569,0.3538755255382726,-1.6130282576705117
1.9081926135082459,13.13157889476009,-0.021458273343451253,0.3396785388512735,-1.623618470923229
1.9036885889909176,13.06172932497092,-0.021437198250150637,0.3255554591408188,-1.6315930749398044
1.8991903792101499,12.994837568301303,-0.021402894900020782,0.3115088900936032,-1.6367437889563834
1.894700965193564,12.930887237833048,-0.021353429067463185,0.29754187627075046,-1.638849497142797
1.8902237481349289,12.869861255731362,-0.021286733395729222,0.2836579532691011,-1.6376752032805704
1.885762579316532,12.81174174425368,-0.02120058868423967,0.2698612036612055,-1.6329709651363473
1.8813217942626712,12.756509904387201,-0.02109260230491151,0.2561563188767044,-1.6244708393898468
1.8769062517850412,12.704145880882884,-0.020960183196327014,0.24254866687868373,-1.6118918850961632
1.8725213787152262,12.654628612538705,-0.02080051270667166,0.2290443649706522,-1.5949332984718618
1.8681732213004227,12.607935666812192,-0.020610510291456986,0.21565035623423043,-1.5732757876245178
1.8638685044895549,12.56404305829524,-0.020386792669189704,0.2023744867843561,-1.546581347431206
1.8596147006957393,12.522925051387304,-0.02012562441476923,0.18922557900550885,-1.5144936687772876
1.8554201101479983,12.484553948840475,-0.019822856992285084,0.17621349286905122,-1.4766395220135486
1.851293955737641,12.448899869987375,-0.019473851677783358,0.16334916287473716,-1.432631604163054
1.8472464964803401,12.415930525775863,-0.019073379344132918,0.15064459152060108,-1.3820735488782279
1.843289165608505,12.385611002731828,-0.01861548610191423,0.138112770803542,-1.324568085448059
1.8394347422912167,12.357903575295197,-0.018093307396071706,0.12576749049772565,-1.2597297139218546
1.8356975707098182,12.332767576326155,-0.01749880290296193,0.11362297587409159,-1.1872037378766847
1.8320938477414854,12.310159369457544,-0.01682236822401579,0.10169328001744123,-1.1066940182246996
1.82864201245425,12.290032483987037,-0.016052253559179632,0.08999134351121232,-1.0180022209298611
1.8253632895139442,12.272337990339928,-0.01517367920563664,0.07852764360410533,-0.9210812258043068
1.8222824683522956,12.25702520344434,-0.014167474714826307,0.06730842206817407,-0.8161038855255318
1.8194290470674237,12.244042783362797,-0.013007966093476996,0.0563336739465114,-0.7035439300022326
1.8168389479652063,12.23334021922646,-0.011659644403832036,0.04559550830431054,-0.5842563681961992
1.8145571580254019,12.224869468474164,-0.010071688356210045,0.03507830838420167,-0.45952890647425426
1.8126419964144702,12.218586069013249,-0.00816794603361487,0.02476359124356612,-0.33105699610760775
1.8111728333062653,12.214448062568657,-0.005824083568334941,0.014645993943010674,-0.20078558064322605
1.8102682707148317,12.2124078382577,-0.002790798254842847,0.004784713780400355,-0.07058171244483197
