x,y,v_x,v_y,omega
2.375,32.48,0.0,2.2051282051282053,-3.591836734693878
2.3743747632198318,32.02144952450465,-0.00595463600160014,2.162019180541752,-3.412351843989707
2.372573482650324,31.571811892142705,-0.011200417041332095,2.1202439848101085,-3.245877302876406
2.369736730364982,31.130814288246306,-0.015816271390496378,2.07973319515559,-3.091162686078852
2.3659895061377285,30.69819794691738,-0.019871578392871243,2.0404224365485018,-2.9471015843166892
2.361443108225244,30.27371714313044,-0.02342744934507759,2.0022518852318436,-2.812712544376002
2.3561967551903167,29.857138282432217,-0.02653781765422757,1.9651658357036157,-2.687122851292168
2.3503389955104717,29.44823907596498,-0.02925036977286999,1.9291123211272174,-2.5695546805307914
2.3439489357065884,29.046807790451528,-0.03160734264506603,1.8940427790009076,-2.4593132347775786
2.3370973128049424,28.652642564340553,-0.03364620879917975,1.8599117553893492,-2.3557765491574796
2.329847432895179,28.265550782594445,-0.035400266531901016,1.826676642192607,-2.2583867042651518
2.322255994196382,27.88534850366313,-0.036899149647120585,1.7942974428675205,-2.1666422312422045
2.3143738102602356,27.511859933070774,-0.038169268792366824,1.762736562774,-2.0800915295337217
2.3062464466188253,27.144916938781503,-0.03923419445915807,1.7319586209333522,-1.9983271476352014
2.297914782240912,26.78435860413235,-0.04011499009240014,1.7019302804871284,-1.9209808014518044
2.2894155055273107,26.430030814647786,-0.04083050241808748,1.6726200955563564,-1.847719024890936
2.2807815531991227,26.08178587549763,-0.04139761499322566,1.643998372540348,-1.7782393638278382
2.2720424992681423,25.739482156742447,-0.04183147006373276,1.6160370441756675,-1.7122670382797618
2.2632249002911355,25.402983763838414,-0.04214566305061686,1.5887095549103885,-1.6495520090207552
2.2543526022696603,25.072160231156573,-0.042352413344384394,1.5619907563452151,-1.5898663943846254
2.2454470138407254,24.746886236516197,-0.042462714550232025,1.53585681165838,-1.5330021909744462
2.236527349791161,24.42704133494461,-0.04248646687419329,1.5102851080710098,-1.478769258694522
2.2276108484037276,24.11250971006168,-0.04243259395850436,1.4852541765283644,-1.4269935361649517
2.2187261462547765,23.803182732652424,-0.042183616983886896,1.4607170368931068,-1.3741773633143308
2.2098985864950893,23.498955807686997,-0.041888380727420294,1.4366822484919215,-1.32386767978119
2.2011373056883103,23.199725386941193,-0.04155238886094985,1.4131312824204798,-1.2759150780290611
2.1924503426040105,22.905391720402406,-0.04118059289428818,1.3900464941393882,-1.230180746764949
2.1838447482741508,22.615858676158794,-0.04077744834247274,1.3674110700855036,-1.1865356001747096
2.175326684889338,22.331033571092266,-0.04034696484622204,1.3452089781671268,-1.1448594883114611
2.1669015147315487,22.050827011594706,-0.03989275094224488,1.3234249218096292,-1.1050404801892353
2.158573880202747,21.775152743593313,-0.03941805409395845,1.3020442972512638,-1.0669742121048922
2.150347775888441,21.503927511231005,-0.03892579651848251,1.2810531538183316,-1.0305632945600844
2.142226613489508,21.237070923601905,-0.03841860728087769,1.2604381569349925,-0.9957167718984182
2.134213280362654,20.974505328990872,-0.03789885107011436,1.2401865536462502,-0.9623496294251517
2.1263101923279795,20.716155696110413,-0.03736865402202538,1.220286140453368,-0.9303823433499259
2.1185193413299572,20.461949501868467,-0.036829926911518,1.2007252332794778,-0.8997404693975417
2.1108423384743795,20.21181662523715,-0.03628438599874803,1.18149263939971,-0.8703542663765981
2.103280452907499,19.965689246825754,-0.035733571781067126,1.1625776311850233,-0.8421583513885637
2.095834646953746,19.72350175379149,-0.03517886587371947,1.1439699215222443,-0.81509138370717
2.0885056078842252,19.48519064974925,-0.03462150621695397,1.1256596407848232,-0.7890957746655941
2.0812937766490234,19.25069446936668,-0.03406260078497232,1.107637315239613,-0.7641174211616728
2.0741993738715827,19.019953697354126,-0.033503139952557215,1.0898938467847292,-0.7401054606336328
2.0672224233724767,18.792910691579884,-0.032944007657977045,1.0724204939223503,-0.717012045574229
2.060362773462406,18.569509610060813,-0.032385991485548965,1.0552088538782933,-0.6947921358429935
2.0536201162197543,18.349696341595916,-0.03182979177780592,1.0382508457874122,-0.6734033072072969
2.0469940049461743,18.133418439826844,-0.031276029875334406,1.0215386948704201,-0.6528055746955759
2.0404838699742216,17.920625060524415,-0.030725255571835877,1.0050649175336834,-0.6329612294825033
2.0340890329836006,17.711266901913838,-0.030177953862649674,0.988822307328949,-0.6138346881479577
2.0278128254276067,17.50544561301293,-0.029595451432531023,0.9713804441082227,-0.6237458646165402
2.021656195738164,17.303274660971017,-0.029039117038349046,0.9540571943862196,-0.6357426665735967
2.015613634673117,17.10472948925994,-0.028509083581149744,0.9368492028621055,-0.6497064659884882
2.009679617074484,16.909786231826118,-0.02800536973915924,0.9197532488886185,-0.6655219275433005
2.003848624850398,16.71842168540858,-0.027527889537850334,0.9027662408022175,-0.6830767523539162
1.9981151680259381,16.530613283000903,-0.027076461171294544,0.8858852106994738,-0.7022614300925231
1.9924738040145178,16.346339068365214,-0.026650815127947113,0.8691073096404099,-0.7229689985213188
1.986919155250771,16.16557767151045,-0.026250601669641292,0.8524298032621083,-0.7450948094766288
1.981445925316067,15.988308285050138,-0.02587539770849083,0.835850067788479,-0.768536300365579
1.9760489136788042,15.814510641357764,-0.025524713122583833,0.8193655864245969,-0.7931927702539572
1.9707230291634175,15.644164990439897,-0.025197996547767026,0.8029739461265285,-0.818965159633982
1.9654633022545607,15.477252078448902,-0.02489464067943826,0.7866728347401003,-0.845755832964352
1.9602648963361384,15.313753126758208,-0.02461398711506035,0.7704600385046295,-0.8734683630720668
1.9551231179587263,15.153649811523593,-0.024355330765054972,0.7543334399202886,-0.9020073164959341
1.950033426223431,14.996924243654007,-0.02411792385680652,0.7382910159805324,-0.9312780388351822
1.94499144136533,14.84355894911479,-0.023900979553677804,0.7223308367739215,-0.9611864391428786
1.939992952615334,14.69353684948494,-0.02370367520818818,0.7064510644627628,-0.9916387723725628
1.9350339254155648,14.54684124268817,-0.0235251552658053,0.6906499526493094,-1.0225414188471882
1.9301105080601766,14.403455783814888,-0.023364533833129482,0.6749258461438611,-1.0538006596716432
1.9252190378309324,14.263364465948712,-0.023220896921578714,0.6592771811530429,-1.085322446953217
1.9203560466947929,14.126551600907,-0.02309330437498617,0.6437024859108734,-1.117012167627744
1.9155182666293085,13.993001799799455,-0.022980791486771842,0.6282003817800432,-1.1487743996121411
1.9107026346406981,13.862699953302652,-0.02288237030951614,0.6127695848561848,-1.1805126589158925
1.9059062975392336,13.735631211540792,-0.02279703065681289,0.5974089081139217,-1.2121291362439994
1.9011266165368796,13.611780963454105,-0.022723740794177487,0.5821172641402477,-1.2435244215112708
1.8963611717331792,13.491134815525996,-0.022661447812494104,0.5668936685084214,-1.274597214561895
1.8916077665571014,13.373678569727918,-0.022609077673961545,0.551737243854207,-1.3052440202484894
1.8868644322350825,13.259398200526984,-0.02256553491669329,0.5366472247261039,-1.3353588258709728
1.8821294323588307,13.148279830785047,-0.02252970199999116,0.5216229632923578,-1.364832758807748
1.8774012676307144,13.040309706359327,-0.0225004382677839,0.5066639360002226,-1.3935537219905554
1.87267868086981,12.935474169193082,-0.022476578502735333,0.4917697512973665,-1.4214060046815828
1.867960662368032,12.83375962865998,-0.022456931038003863,0.47694015854169475,-1.4482698658100226
1.8632464556933557,12.735152530897434,-0.022440275387487607,0.46217505824445043,-1.4740210869202184
1.8585355640460755,12.639639325831457,-0.02242535934851266,0.4474745138124635,-1.4985304915826938
1.8538277572845465,12.547206431558344,-0.022410895523192417,0.4328387649790759,-1.521663427934611
1.8491230797490363,12.45784019570587,-0.02239555719595335,0.41826824313971733,-1.5432792108653233
1.844421859026507,12.371526853348271,-0.022377973494801563,0.4037635888374067,-1.5632305202716705
1.8397247158155339,12.28825248099442,-0.022356723752559482,0.38932567167547577,-1.581362751814312
1.8350325750695364,12.208002946106735,-0.02233033097122588,0.3749556129691316,-1.597513316765159
1.8303466786184317,12.130763851539243,-0.022297254277392847,0.36065481148318984,-1.6115108879250613
1.8256685994942397,12.056520474206437,-0.022255880238720906,0.34642497263876637,-1.6231745893222482
1.8210002582157219,11.985257697210937,-0.02220451289001976,0.33226814160409607,-1.6323131286355619
1.81634394132168,11.916959934568023,-0.02214136229133097,0.3181867407093612,-1.638723873250766
1.8117023224832702,11.851611047571847,-0.022064531407811346,0.3041836116351646,-1.6421918738795835
1.8070784865742,11.789194251755344,-0.021972001059522954,0.29026206280770733,-1.6424888442162644
1.8024759571363407,11.729692013311336,-0.021861612634374427,0.2764259223733324,-1.6393721118430729
1.7978987277505079,11.673085933777742,-0.021731048183083117,0.262679596994216,-1.6325835654800798
1.7933512979131128,11.619356621764489,-0.021577807411153626,0.24902813646532504,-1.6218486380754196
1.7888387141369093,11.568483550542947,-0.02139918093364184,0.2354773037398269,-1.6068753861103784
1.7843666171503292,11.520444900476303,-0.02119221893855036,0.22203364927581634,-1.5873537556515724
1.7799412962840822,11.475217385609753,-0.020953694073325,0.20870458754847895,-1.5629551691087764
1.7755697524360556,11.432776064366134,-0.02068005686026242,0.1954984719145606,-1.5333326289858327
1.7712597714445546,11.393094135358435,-0.020367381154034483,0.18242466149208295,-1.4981216239950357
1.767020010353364,11.35614272105811,-0.020011295904921702,0.16949356993959708,-1.4569422494314772
1.7628601000454143,11.321890644765258,-0.019606897504124338,0.15671668046852533,-1.4094031316380469
1.7587907692574989,11.29030421045232,-0.019148633809354772,0.14410650346420684,-1.355107992610138
1.754823997392966,11.261347001170531,-0.01863014585286329,0.13167644207663037,-1.2936660224167666
1.7509732073461803,11.234979720495001,-0.01804404506890504,0.11944051673793676,-1.2247076532321177
1.7472535155742936,11.21116011356441,-0.01738159085382743,0.10741288260103406,-1.1479078295199592
1.743682066204082,11.189843019771612,-0.016632212671997874,0.09560705828275196,-1.063019348621441
1.7402784910605638,11.170980626650096,-0.01578278869483976,0.08403478096978775,-0.9699190380837419
1.7370655612403125,11.154523008752626,-0.01481654292660144,0.07270443710134507,-0.8686688339559225
1.7340701331261985,11.14041903315061,-0.013711343874485717,0.061619140060721854,-0.7595910475695444
1.7313245515187066,11.128617666878391,-0.012437052387339921,0.05077482443661979,-0.6433503807588581
1.7288687766011424,11.119069580786416,-0.010951280160892125,0.040159328820278124,-0.5210226148673933
1.7267537200123286,11.111728626132201,-0.00919211592304769,0.029754525029392853,-0.3941118859309466
1.7250468824029737,11.106552105143596,-0.007063480356521896,0.01954567486209272,-0.2644628036024477
1.723843699014353,11.103497116981213,-0.004395409058913526,0.009549450493936896,-0.13401675298560728
1.7233023854302343,11.102501739432235,-0.0007599584088843958,-6.966431317490841e-05,-0.004445424063100639
