x,y,v_x,v_y,omega
2.375,32.48,0.0,3.846153846153846,-2.36734693877551
2.3742908082523893,31.721493141990063,-0.007091917476108579,3.738914733945508,-2.181561949303085
2.372291392195921,30.983896766584582,-0.012902243088575075,3.637049020109286,-2.01787730782697
2.369235719994162,30.266177509029216,-0.01765447892901231,3.5401435554443736,-1.8729317000269876
2.3653172626109464,29.567380427929386,-0.02153009490314361,3.4478272555539347,-1.7439621545727606
2.3606965385177134,28.88662112934744,-0.024677146029187403,3.3597657302655257,-1.6286840607335131
2.355507126730001,28.223078881576498,-0.02721697184793606,3.2756567474438816,-1.5251977221572162
2.34986048571357,27.575990569205953,-0.029249438316374922,3.1952263762615716,-1.431915061684768
2.3438498354720507,26.944645362695347,-0.03085706409881558,3.118225688844485,-1.3475017474817383
2.337553300340458,26.32838000135917,-0.03210828721711033,3.0444279245172465,-1.2708312070820698
2.331036465108626,25.726574604899934,-0.03306006510121483,2.973626040075148,-1.2009478685894126
2.324354463134231,25.138648942465153,-0.03375995464273287,2.905630584272658,-1.1370376103981374
2.3175536892382365,24.56405909941718,-0.03424778431721227,2.840267846207065,-1.0784038771372269
2.3106732103493983,24.00229449116516,-0.03455700457116882,2.777378236313137,-1.0244482756127915
2.3037459315761657,23.452875180947476,-0.03471578316115836,2.716814865863719,-0.9746547326173484
2.296799563527385,22.915349464698647,-0.03474789732664835,2.658442296624576,-0.9285764997031216
2.289857427457302,22.389291691340222,-0.03467346337417989,2.6021354369596676,-0.8858254450731893
2.282939127562911,21.87430029119774,-0.034509535569728425,2.547778564465162,-0.8460631917748754
2.2760611140525566,21.369995988920365,-0.03427059953381969,2.495264458308558,-0.808993753290325
2.269237156085978,20.876020180389276,-0.03396898013196793,2.4444936270023585,-0.7743573889857677
2.262478740093247,20.392033455743295,-0.033615179795338686,2.3953736194574313,-0.7419254575920152
2.2557954061110803,19.917714252905213,-0.03321816002633017,2.347818408923394,-0.7114960906012933
2.2491950324744634,19.452757627923063,-0.03278557633983789,2.3017478408981114,-0.6828905419321581
2.242684077349397,18.99687413010045,-0.032323974910825566,2.257087137328003,-0.6559500975187993
2.2362677840956864,18.54978877132094,-0.031838957626280334,2.2137664504671033,-0.6305334502098091
2.2299503562344882,18.111240080209306,-0.03133532098570126,2.1717204606492553,-0.6065144627285391
2.223735106806869,17.680979232846227,-0.0308171732904884,2.1308880129815644,-0.5837802553863581
2.2176245861022172,17.258769252687035,-0.030288033756032857,2.0912117886103365,-0.5622295664733724
2.2116206910736285,16.844384273149885,-0.029750916529853958,2.052638006761182,-0.5417713423391536
2.2057247592133695,16.43760885705101,-0.02920840207273342,2.0151161542275524,-0.5223235215561935
2.1999376492128606,16.038237367689366,-0.028662697932355607,1.978598739388907,-0.5038119835739768
2.194259810360551,15.646073386931374,-0.02811569059074204,1.9430410681910144,-0.4861696371914982
2.1886913423232577,15.260929176129768,-0.02756898978218968,1.908401039825056,-0.46933562821391855
2.1832320467005246,14.88262517613665,-0.02702396644514492,1.874638960106126,-0.4532546489839625
2.1778814715280443,14.510989543047902,-0.026481785279657232,1.8417173707813421,-0.43787633522527636
2.1726389497276855,14.145857716649967,-0.02594343272392834,1.8096008931979908,-0.4231547379109203
2.167503632352019,13.787072018836458,-0.025409741032737663,1.7782560849370896,-0.4090478597618112
2.1624745173455304,13.434481279525652,-0.024881409032147986,1.7476513081709713,-0.39551724755675594
2.1575504744388336,13.087940487844762,-0.0243590200348206,1.7177566086379485,-0.38252763275386
2.1527302667028296,12.747310466556431,-0.023843057325218166,1.688543604245352,-0.3700466140280322
2.148012569214179,12.412457567890257,-0.02333391756128828,1.659985382416385,-0.3580443762580278
2.1433959852193762,12.083253389109803,-0.022831922386740543,1.632056405388171,-0.34649344127910137
2.1388790601303027,11.759574506296019,-0.022337328503993097,1.6047324227496529,-0.3353684463785522
2.1344602936378205,11.441302224963053,-0.0218503364208307,1.5779903905800015,-0.324645947071453
2.130138150190477,11.128322346243845,-0.021371098052605248,1.551808396612061,-0.3143042411692876
2.1259110680516713,10.820524947492427,-0.020899723335450412,1.5261655909021339,-0.3043232115588126
2.1217774671197587,10.517804176248422,-0.020436285983676014,1.5010421215379248,-0.2946841854535433
2.117735755670832,10.220058056598479,-0.01998082850559406,1.476419074961513,-0.28536980817525376
2.113788578316155,9.927188556532936,-0.019490945041173817,1.45227592569392,-0.2751927297958559
2.109938132618587,9.639101151072857,-0.019013511934508183,1.4285981289068514,-0.2654754858257297
2.106181953345944,9.35570441247933,-0.018548280791918115,1.4053692570284249,-0.25619190512413964
2.102517626045112,9.076910124560094,-0.018094992216400756,1.3825736221639298,-0.24731758809133195
2.098942788964037,8.80263313891206,-0.017653378594353102,1.3601962343163903,-0.23882976771164738
2.095455134456417,8.532791239239899,-0.017223166481843584,1.3382227624052339,-0.23070718294813344
2.092052409943864,8.26730501321276,-0.016804078643687315,1.3166394978661646,-0.22292996326440023
2.0887324185003515,8.006097731362704,-0.016395835791437805,1.2954333206343795,-0.2154795231830584
2.085493019115182,7.749095232566223,-0.015998158060256947,1.2745916673304456,-0.20833846590778637
2.082332126683224,7.496225815684813,-0.015610766259322412,1.2541025014836624,-0.20149049513993697
2.0792477117647064,7.24742013697227,-0.015233382925854801,1.2339542856417667,-0.194920334312373
2.0762378001512314,7.002611112885241,-0.014865733208892477,1.2141359552285327,-0.18861365254443638
2.07330047226979,6.761733827960153,-0.01450754560552164,1.1946368940223298,-0.1825569966939176
2.0704338624523073,6.5247254474440055,-0.014158552569307847,1.175446911139139,-0.1767377289457458
2.0676361580945657,6.291525134388792,-0.013818491008108733,1.1565562194130157,-0.17114396943384858
2.0649055987251326,6.062073970939931,-0.013487102686221485,1.1379554150756022,-0.1657645434430968
2.0622404750021217,5.836314883567955,-0.013164134543885802,1.1196354586441475,-0.16058893278319855
2.0596391276531847,5.614192572010076,-0.01284933894548362,1.1015876569346321,-0.15560723096649387
2.0570999463720048,5.395653441704301,-0.012542473866316411,1.0838036461231186,-0.15081010185739116
2.0546213686827164,5.180645539513549,-0.01224330302656985,1.0662753757843957,-0.1461887414931829
2.0522018787820624,4.969118492550866,-0.011951595979968782,1.0489950938424222,-0.14173484280460955
2.0498400063676994,4.761023449929418,-0.011667128163660815,1.0319553323720432,-0.13744056299019664
2.047534325459831,4.556313027272612,-0.01138968091502573,1.0151488941960047,-0.1332984933213986
2.0452834532222908,4.354941253830464,-0.011119041460374094,0.9985688402254573,-0.1293016311762466
2.0430882790748126,4.157028991435638,-0.010832700014406206,0.9805537837227959,-0.15817223465287603
2.040947255365935,3.9627087238733836,-0.010577537074367104,0.9626488918997389,-0.18863122109303868
2.038854192733119,3.771958713176627,-0.010353089253797867,0.9448512150678201,-0.22057498555033192
2.036803001512644,3.5847578001951597,-0.010158822950949758,0.9271579147468454,-0.25390221031544025
2.0347877051221617,3.401085382759046,-0.00999414095387259,0.9095662596142842,-0.28851364511317407
2.032802452177864,3.2209213946161412,-0.009858388489106558,0.8920736218147629,-0.32431189175811165
2.0308415274537297,3.044246285072692,-0.009750858752236285,0.8746774736197385,-0.3612011924022687
2.028899361783,2.871040999267745,-0.00967079795505974,0.8573753844297267,-0.39908722050997264
2.0269705409954137,2.7012869590133946,-0.00961740992080427,0.8401650181137937,-0.43787687369049866
2.025049813977767,2.534966044133675,-0.009589860255660134,0.8230441306834074,-0.4774780675077992
2.023132099940014,2.372060574235313,-0.009587280121872082,0.80601056830023,-0.5177995293685265
2.0212124949643564,2.2125532908432852,-0.009608769634705472,0.7890622656200358,-0.5587505915641181
2.0192862779106098,2.056427339833512,-0.009653400902758884,0.7721972444777062,-0.60024098250952
2.0173489157475037,1.9036662540936184,-0.00972022072830368,0.7554136129212202,-0.6421806151795829
2.015396068376517,1.7542539363409198,-0.009808252981565107,0.7387095646057777,-0.6844793716936345
2.013423593012351,1.6081746420240712,-0.009916500660091119,0.7220833785627089,-0.7270468829384058
2.0114275481821866,1.4654129622316283,-0.010043947641554038,0.7055334193617059,-0.7697923020484978
2.0094041974044847,1.3259538065265346,-0.010189560135465032,0.689058137689224,-0.8126240704808787
2.0073500126073065,1.1897823856205392,-0.010352287836317623,0.6726560713707266,-0.8554496753243672
2.005261677345917,1.0568841937964777,-0.010531064777577204,0.6563258468698766,-0.8981753963753778
2.0031360898798933,0.9272449909790978,-0.01072480988265794,0.6400661813039226,-0.9407060413859586
2.0009703661710745,0.8008507843465544,-0.01093242720553161,0.6238758850215084,-0.9829446677477763
1.9987618428655367,0.677687809364695,-0.011152805849844943,0.6077538647971015,-1.024792288714504
1.9965080803254196,0.5577425101144478,-0.011384819551326962,0.5916991277053546,-1.0661475620832634
1.9942068657799086,0.4410015187689922,-0.011627325903783133,0.575710785749182,-1.1069064590515354
1.9918562166691274,0.32745163406133315,-0.011879165204027898,0.5597880613273795,-1.1469619107374658
1.9894543842601624,0.21707979856444837,-0.012139158885621561,0.5439302936415024,-1.1862034295971249
1.9869998576210843,0.10987307458452023,-0.01240610750516024,0.528136946157747,-1.2245167026906976
1.9844913680467666,0.005818618442937407,-0.012678788238015265,0.5124076152581026,-1.2617831534401005
1.981927894039694,-0.09509634710651937,-0.01295595183271198,0.49674204023644625,-1.2978794681835062
1.9793086669599786,-0.19288456261216425,-0.01323631896444085,0.4811401148199836,-1.3326770834696704
1.9766331774716999,-0.28755876413666215,-0.013518575918348229,0.4656019004249761,-1.3660416296514108
1.9739011829276574,-0.37913171831801407,-0.013801369522075599,0.45012764138855615,-1.3978323259414536
1.971112715852021,-0.46761626070248496,-0.014083301234288038,0.4347177824561447,-1.4279013216993965
1.9682680937004526,-0.5530253378328069,-0.014362920281395816,0.4193729888470494,-1.4560929783484713
1.9653679301005118,-0.635372053644474,-0.014638715718013126,0.4040941692696343,-1.4822430860105111
1.9624131478019582,-0.7146697208026609,-0.014909107267523852,0.38888250231220217,-1.506178008750908
1.959404993597512,-0.790931917703503,-0.015172434776936602,0.37373946669620794,-1.527713752323347
1.9563450555103832,-0.8641725519674921,-0.015426946094351253,0.35866687594371127,-1.5466549486173897
1.9532352825862556,-0.9344059313697599,-0.01567078314692689,0.3436669180789951,-1.562793751819349
1.9500780076754665,-1.0016468432827637,-0.015901965960962626,0.328742201051034,-1.5759086428625078
1.9468759736471992,-1.06591064385006,-0.01611837432171147,0.3138958046219216,-1.585763141456136
1.9436323635434256,-1.1272133582627077,-0.01631772671602225,0.29913133950451976,-1.5921044294183857
1.940350835258677,-1.1855717936662487,-0.016497556131465193,0.28445301453087546,-1.5946618960432697
1.9370355614261014,-1.2410036663753132,-0.016655182194290536,0.26986571255975994,-1.5931456270577438
1.9336912753062565,-1.2935277451949645,-0.01678767900415766,0.2553750756367819,-1.5872448752209922
1.9303233236210782,-1.343164012711128,-0.01689183784762571,0.24098759952482013,-1.576626575521161
1.9269377274648818,-1.389933846363867,-0.016964123714339495,0.2267107370025622,-1.560934005284943
1.9235412526786004,-1.4338602208734912,-0.01700062414847321,0.2125530080937029,-1.539785745317707
1.920141491428062,-1.4749679330174814,-0.016996988356913097,0.19852411334617515,-1.512775181246182
1.9167469572405467,-1.5132838486508362,-0.016948353518237216,0.18463504298737002,-1.4794709074034538
1.9133671965244345,-1.5488371699078556,-0.016849253642884452,0.17089816958280676,-1.4394185773642671
1.9100129207903278,-1.5816597172445768,-0.016693503698183565,0.1573273037844115,-1.3921450114380447
1.9066961656901573,-1.6117862156834448,-0.016474047303522095,0.1439376806042629,-1.3371657562801331
1.9034304860715978,-1.639254566330969,-0.016182748882072967,0.13074582587097638,-1.273997835907674
1.9002312013195393,-1.6641060716971836,-0.015810098638511367,0.11776922779117517,-1.2021801726981682
1.89711571369058,-1.6863855651879263,-0.01534477765108098,0.10502570711622836,-1.1213050879837774
1.894103936416896,-1.7061413705814132,-0.014772995085759563,0.09253234681866447,-1.0310652828008617
1.8912188918008506,-1.7234249880199357,-0.014077451074694398,0.08030382756653323,-0.9313212872444641
1.8884875784322586,-1.7382903776264271,-0.013235682611225211,0.06835006849839687,-0.8221933561372285
1.8859422712921061,-1.7507927148066855,-0.012217388790300624,0.05667330330419122,-0.7041766299188773
1.8836225289614483,-1.7609865784173948,-0.010980034516275852,0.04526533280290195,-0.5782647635549824
1.8815783923036349,-1.7689238117941812,-0.009461332061859671,0.03410700096494413,-0.4460407371404242
1.879875768239513,-1.774651958379998,-0.007564908579357192,0.023174464893217055,-0.3096570349928687
1.8786067425419088,-1.7782157150660964,-0.005125348396685257,0.012463101967777598,-0.17160298149317224
1.8779170653158352,-1.779669722410901,-0.0017714238640517957,0.0020769714802760016,-0.03419626308948637
