x,y,v_x,v_y,omega
2.375,32.48,0.0,2.051282051282051,-6.653061224489796
2.3742743501596495,32.114028051059314,-0.008062776003896141,2.0150729369477633,-6.374759657657545
2.3721719046818905,31.75448809611359,-0.015297729304537173,1.9798154513380544,-6.112832721597598
2.368834679862053,31.4012130767765,-0.021782546471435897,1.9454625412962852,-5.865965077087646
2.3643914351561808,31.05404409135825,-0.027586839149365598,1.911970630017597,-5.6329715548066135
2.3589590398755425,30.71282980150734,-0.032773108413280405,1.8792992572147291,-5.412781944100433
2.3526436782977482,30.377425899351348,-0.03739757578443525,1.8474107667407498,-5.204427844914813
2.34554191527856,30.047694627261308,-0.041510902206545165,1.8162700342596902,-5.007031262076718
2.3377416409644423,29.72350434358026,-0.0451588123947617,1.785844228863064,-4.819794677598489
2.3293229103497124,29.40472912866008,-0.04838263888001245,1.7561026035833738,-4.6419923820581594
2.3203586910667515,29.091248426382812,-0.05121979759733065,1.727016310608507,-4.472962882784639
2.310915530844372,28.782946717035518,-0.053704204873553596,1.6985582376947526,-4.31210223638763
2.3010541544408967,28.4797132179871,-0.055866644053952134,1.6707028628432188,-4.158858177536391
2.290829998493955,28.181441609101924,-0.05773508868983998,1.6434261247698772,-4.012724935907181
2.280293691580265,27.888029780235158,-0.05933498812894241,1.616705307083075,-3.8732386497431226
2.269491485807273,27.5993795985017,-0.060689520459856074,1.5905189343998178,-3.7399732981751455
2.258465645433704,27.31539669330509,-0.06181981702424309,1.5648466788958244,-3.612537085869578
2.2472547973128525,27.035990257364084,-0.0627451620963305,1.5396692760042394,-3.490569223118885
2.235894247350762,26.76107286218913,-0.06348317081578299,1.5149684481618768,-3.3737370525136754
2.2244162666547544,26.49056028664549,-0.06404994802875029,1.4907268356563739,-3.261733480096867
2.212848011925067,26.224379273216684,-0.06448621563444357,1.4668399802192782,-3.1517601291144217
2.201212333290493,25.962459205620654,-0.06479910252748614,1.4433829930699416,-3.046469608731242
2.1895304678250795,25.70472405521566,-0.06499940264377586,1.420340900318848,-2.9456088862730603
2.1778217909989266,25.451100427019245,-0.06509700653570244,1.3976994129746667,-2.8489412497853857
2.1661039721287594,25.20151744014212,-0.06510098091059643,1.375444885660086,-2.7562450784079724
2.1543931161952963,24.95590661537373,-0.0650196405723294,1.3535642784330932,-2.6673127188646246
2.142703893323155,24.714201769386065,-0.06486061356257157,1.3320451214298483,-2.5819494577051567
2.1310496570839916,24.476338915070556,-0.06463090020591207,1.3108754820758282,-2.4999725800711556
2.1194425526640246,24.24225616756625,-0.06433692668260954,1.2900439346386883,-2.4212105067537024
2.1078936158311667,24.01189365557598,-0.0639845936824787,1.2695395319198237,-2.3455020021880353
2.0964128635428723,23.78519343760199,-0.06357932063190308,1.2493517789023465,-2.2726954468031635
2.085009376952122,23.56209942276354,-0.06312608593199343,1.229470608191497,-2.202648167827229
2.073691377494381,23.34255729588733,-0.06262946359846097,1.209886357099711,-2.135225823253596
2.0624662966718414,23.126514446586498,-0.0620936566519768,1.190589746242913,-2.0703018342081907
2.0513408400917825,22.91391990206717,-0.06152252757090072,1.171571859527368,-2.0077568614341215
2.040321046262693,22.704724263422108,-0.06091962608565061,1.1528241254177727,-1.9474783220325056
2.029412340604125,22.498879645189646,-0.06028821456510227,1.1343382993873874,-1.8893599429750931
2.0186195850834845,22.296339617973373,-0.05963129121979146,1.1161064474600595,-1.8333013482403018
2.0079471238545494,22.09705915393338,-0.058951611323930564,1.0981209307620758,-1.7792076767244664
1.9973988252379755,21.90099457497398,-0.058251706638003505,1.0803743910090395,-1.7269892283486634
1.9869781203529457,21.708103503465814,-0.05753390319566095,1.0628597368594834,-1.676561136022062
1.9766880386811074,21.51834481535191,-0.056800337602541884,1.045570131072793,-1.6278430613385722
1.9665312408186546,21.33167859549807,-0.05605297198026814,1.0284989784142904,-1.5807589120774055
1.9565100486495908,21.148066095157823,-0.05529360767599677,1.0116399142551,-1.5352365797524936
1.9466264731525753,20.96746969143118,-0.05452389784639695,0.9949867938187194,-1.4912076956126752
1.936886501688881,20.790096339787507,-0.053698007305761145,0.975828224444314,-1.5007296486142905
1.9272928459634462,20.616160880971975,-0.05289816742129307,0.9567879846171291,-1.5120732447401746
1.9178408456707832,20.445642292261255,-0.0521240580527402,0.9378630010575869,-1.5251090348624985
1.9085259062922222,20.27852009193121,-0.051375268375714364,0.9190503359429024,-1.5397099709607383
1.899343514767357,20.114774315226704,-0.05065130412279017,0.9003471829960706,-1.5557511295291342
1.890289253914625,19.954385490992344,-0.049951594240898685,0.8817508640523469,-1.5731094391387583
1.8813588157028485,19.79733461887878,-0.04927549700106272,0.8632588260983683,-1.591663411033937
1.872548013469372,19.643603147039506,-0.04862230559312046,0.8448686387824338,-1.611292871641704
1.8638527931748559,19.493172950233273,-0.047991253234836585,0.8265779923979395,-1.631878695864269
1.8552692437797695,19.346026308246355,-0.04738151782167807,0.80838469634561,-1.6533025400080719
1.8467936068231725,19.20214588454769,-0.04679222614051049,0.7902866780840088,-1.6754465731787678
1.8384222852804495,19.06151470508776,-0.04622245766752506,0.7722819825819082,-1.6981932059392513
1.8301518517732691,18.92411613714924,-0.04567124796781133,0.7543687722905075,-1.7214248149874498
1.8219790562021654,18.789933868153852,-0.04513759171112079,0.7365453276582496,-1.7450234625619108
1.8139008328697699,18.658951884325152,-0.044620445315495985,0.718810048216192,-1.7688706092260449
1.8059143071608963,18.531154449101614,-0.04411872922754151,0.7011614542675817,-1.792846818616208
1.7980168018443532,18.406526081187586,-0.043631329845159224,0.6835981892215669,-1.8168314526646476
1.7902058430605914,18.285051532122033,-0.04315710108552926,0.6661190226179158,-1.840702355725943
1.7824791660590775,18.166715763235665,-0.04269486559795914,0.6487228538973172,-1.8643355259454504
1.774834720749649,18.05150392185667,-0.042243415617909605,0.6314087169803925,-1.8876047721113187
1.7672706771330875,17.93940131661291,-0.041801513454997996,0.6141757857280674,-1.910381354129378
1.7597854306777747,17.830393391664394,-0.041367891604034625,0.597023380366544,-1.9325336051549056
1.752377607711641,17.724465699683936,-0.04094125246411371,0.5799509749718796,-1.953926533310391
1.745046070901695,17.621603873385467,-0.04052026764640023,0.5629582061222284,-1.9744214008189298
1.7377899248973376,17.521793595378846,-0.04010357684645888,0.5460448828402077,-1.9938752782959737
1.7306085222185053,17.425020566106497,-0.03968978625167837,0.5292109979636682,-2.0121405718779686
1.7235014694754933,17.331270469590734,-0.03927746644845282,0.5124567411003609,-2.0290645208391958
1.716468634014288,17.240528936691057,-0.03886514978716372,0.49578251334050527,-2.0444886633777406
1.7095101510894484,17.152781505537536,-0.038451327155498136,0.47918894392082295,-2.0582482683655514
1.7026264316762711,17.068013578769826,-0.03803444410202476,0.46267690905374187,-2.070171731094196
1.6958181710453144,16.986210377171002,-0.037612896241939246,0.44624755315540576,-2.080079931459941
1.6890863582356823,16.907356889241804,-0.03718502386508543,0.42990231272455515,-2.0877855536919507
1.6824322865791266,16.83143781621406,-0.036749105652200034,0.4136429431392895,-2.0930923677361504
1.6758575654455066,16.758437511953282,-0.03630335138802161,0.3974715486471361,-2.095794473903126
1.6693641334021376,16.688339917151133,-0.03584589353830114,0.3813906158211949,-2.09567551456239
1.6629542730059748,16.6211284871611,-0.035374777530175275,0.3654030507346766,-2.0925078597813562
1.6566306274797187,16.55678611278976,-0.03488795053933644,0.3495122200580338,-2.086051778229778
1.6503962195626443,16.49529503332719,-0.03438324853926712,0.33372199619273524,-2.0760546109029563
1.644254472876934,16.436636741093594,-0.03385838130195959,0.3180368064027591,-2.062249973955594
1.638209236214469,16.380791876808022,-0.03331091494765207,0.302461685659151,-2.0443570291435975
1.6322648112332374,16.32774011517084,-0.03273825151047517,0.28700233253174473,-2.0220798773673923
1.6264259841654614,16.27746004022336,-0.03213760479814749,0.2716651668846858,-1.9951071544143835
1.6206980622943667,16.22992901034912,-0.031505971547348216,0.2564573872735151,-1.963111940687519
1.6150869161731047,16.18512301327301,-0.030840096466675012,0.24138702468326015,-1.9257521418218977
1.6095990288679278,16.14301651218289,-0.03013642914640092,0.22646298742920043,-1.8826715590566352
1.6042415539545114,16.10358228526335,-0.02939106989155952,0.21169508945457371,-1.8335019527344945
1.5990223846518028,16.066791262654753,-0.028599700138535633,0.19709405064095165,-1.7778665162999823
1.5939502374496584,16.0326123673448,-0.02775749099640258,0.1826714528029758,-1.715385329364502
1.5890347550385844,16.00101237002679,-0.026858980237751903,0.16843962850827846,-1.6456835535697147
1.5842866355298297,15.971955772809306,-0.025897903192854895,0.15441145168597453,-1.5684033756915887
1.5797177982326156,15.945404743086236,-0.024866955665080726,0.14059998968147588,-1.4832209757510884
1.5753416011797388,15.921319126908532,-0.023757456033552206,0.1270179678485537,-1.389870057467408
1.571173132957874,15.89965658028677,-0.022558857542720436,0.11367699461546611,-1.2881736091297302
1.567229612344749,15.880372865121906,-0.021258038158668953,0.1005865072163498,-1.1780853218973506
1.5635309454400372,15.863422359419591,-0.01983826078257281,0.08775244503160197,-1.0597410266803866
1.56010051403501,15.84875881995367,-0.018277643717730413,0.0751757712564301,-0.933517890170434
1.556966306074286,15.8363363932053,-0.016546889179201614,0.06285119261434015,-0.8000940156619774
1.5541625625496027,15.826110770960724,-0.014605816650613425,0.050766832325390004,-0.6604929717390646
1.5517322465894674,15.818040190735871,-0.012397694017556691,0.03890628128407736,-0.516087828396647
1.5497309854957533,15.81208561200134,-0.009838540357045572,0.027255704655155838,-0.36853227771227626
1.548234291785584,15.808208569091434,-0.006791389755943276,0.015822549899349076,-0.21959017801620964
1.5473553062037444,15.806361963859562,-0.0029751167089422576,0.004695286010359304,-0.07086367892228623
