x,y,v_x,v_y,omega
2.375,32.48,0.0,2.1538461538461537,-4.204081632653061
2.3741416191517155,31.98973318927061,-0.0074641812894300835,2.109343504670274,-3.9805009618074294
2.3716743638928204,31.509530811906643,-0.013990212266180663,2.0663293419728825,-3.774257314047206
2.367801259292906,31.03906022519136,-0.019688958167857172,2.024719238160018,-3.5835716662544446
2.3627014736918364,30.578007419348708,-0.024657003580574887,1.9844355952543649,-3.4068838879804613
2.3565333676383715,30.126075533987247,-0.02897870123216313,1.9454068861496308,-3.242821709761252
2.3494371093761153,29.68298353644539,-0.032727892352672455,1.9075670055186944,-3.090174668041112
2.3415369256460954,29.248465039044497,-0.035969357473587385,1.8708547110108276,-2.9478721333295868
2.332943044390702,28.822267236255705,-0.03876004474722576,1.8352131393264732,-2.8149647064106302
2.3237533761685754,28.404149945979558,-0.04115011370604738,1.8005893848139338,-2.690608406391649
2.3140549731942937,27.99388474170558,-0.04318382520074955,1.7669341306119837,-2.5740511835824194
2.303925298499153,27.591254164398908,-0.04490030258308433,1.7342013242286265,-2.4646213766103955
2.2934333324633394,27.196051004656837,-0.04633418468486048,1.7023478909198004,-2.361717802011623
2.2826405396588823,26.808077647069705,-0.04751618752780796,1.6713334794030956,-2.2648012196969685
2.2716017153830963,26.42714546986982,-0.04847358878337696,1.641120235378502,-2.173386962148004
2.2603657283096723,26.053074293906818,-0.049230646637701575,1.6116725990823837,-2.08703855121319
2.248976173225452,25.68569187578551,-0.04980896279029924,1.5829571237116078,-2.0053621556991823
2.2374719457648085,25.32483344067267,-0.050227797737036346,1.5549423120522157,-1.9280017669384606
2.2258877493282574,24.970341250845394,-0.05050434518949558,1.5275984690545366,-1.8546349892201746
2.21425454291931,24.622064206534407,-0.050653971410046655,1.500897568432299,-1.7849693582265838
2.2025999374066796,24.27985747602595,-0.05069042435195796,1.4748131316412525,-1.7187391140787291
2.1909727345287884,23.94358678799611,-0.05041568762970446,1.4492798077486249,-1.6507138316177303
2.1794162922581397,23.61312321523919,-0.05007511472376078,1.4243164770941785,-1.5861581401193812
2.1679448059945745,23.288338256720124,-0.049676939742023536,1.3999005535063884,-1.5248502373587742
2.1565706780761706,22.969108471948758,-0.04922852041800857,1.3760106184185352,-1.4665851941952333
2.1453047084456855,22.65531522123458,-0.048736432890559414,1.352626344313439,-1.4111734676717715
2.134156264766263,22.346844422849234,-0.048206555626159185,1.3297284242547944,-1.3584395627486079
2.1231334343303887,22.043586325762917,-0.047644143816224865,1.3072985069305911,-1.3082208260662047
2.1122431598198235,21.745435296745704,-0.047053895406079654,1.2853191366973271,-1.2603663571831207
2.10149136072555,21.45228962073608,-0.04644000976151711,1.2637736981689585,-1.214736024506548
2.0908830420203177,21.164051313478215,-0.04580623984919753,1.24264636494292,-1.171199574669544
2.0804223914876916,20.880625945518503,-0.045155938695378664,1.22192205209806,-1.1296358254429886
2.0701128669467557,20.6019224767315,-0.04449210079101949,1.201586372136755,-1.0899319334310933
2.0599572744675836,20.327853100616974,-0.04381739902786931,1.181625594076506,-1.051982728811349
2.0499578385464226,20.058333097674236,-0.04313421767787868,1.1620266054255437,-1.0156901102637874
2.0401162650989284,19.79328069721797,-0.04244468186554927,1.1427768768028783,-0.9809624940079964
2.030433798032633,19.53261694705222,-0.04175068392832575,1.1238644289862474,-0.9477143115444246
2.0209112700744174,19.276265590466732,-0.04105390701267817,1.1052778021919163,-0.9158655512919359
2.011549148453562,19.02415295006268,-0.04035584621215137,1.0870060274085593,-0.8853413398372761
2.0023475759746474,18.776207817953956,-0.03965782751753799,1.069038599623792,-0.8560715589734615
1.9933064079560892,18.532361351925616,-0.038961024817752196,1.051365452796548,-0.8279904951111489
1.9844252454583793,18.292546977163227,-0.03826647516233415,1.0339769364416138,-0.8010365180067341
1.9757034651803986,18.056700293196435,-0.03757509247227999,1.016863793704419,-0.7751517860692311
1.9671402463616552,17.824758985726728,-0.036887679864619216,1.000017140814776,-0.7502819757900568
1.9587345949924153,17.596662743033978,-0.03620494073746673,0.9834284478178282,-0.7263760330901834
1.9504913268687223,17.37247599118367,-0.03547565164247225,0.9660215682718167,-0.7248298127300079
1.942412987702338,17.152277507342653,-0.03477077589130603,0.9487478564326689,-0.7258918804572029
1.9344938847375703,16.93603713176381,-0.0340909890197164,0.9316032355572513,-0.7294210402790905
1.9267281892838235,16.72372562231414,-0.03343679753460278,0.9145838031355565,-0.735280804826076
1.9191099739593975,16.51531461536947,-0.03280855311257982,0.8976858224702778,-0.7433390584589151
1.911633246798586,16.310776588572867,-0.03220646567708717,0.8809057148914711,-0.7534677348657504
1.9042919824703077,16.11008482531473,-0.03163061543837445,0.8642400525706015,-0.7655425077316238
1.8970801508379151,15.913213380800357,-0.03108096397373604,0.8476855519021883,-0.7794424931328006
1.889991743072755,15.720137049577737,-0.030557364418959468,0.8312390674249585,-0.7950499623680292
1.8830207955184317,15.530831334404201,-0.030059570836025742,0.8148975862579622,-0.8122500639892893
1.876161411488379,15.345272416336027,-0.02958724681660847,0.7986582230305034,-0.8309305538360103
1.8694077811662504,15.163437125929391,-0.029139973375813234,0.7825182152880504,-0.8509815319094683
1.8627541997666608,14.985302915444919,-0.028717256185835902,0.766474919359543,-0.8722951849482653
1.8561950841028925,14.810847831950976,-0.02831853219475791,0.7505258066747413,-0.8947655335815627
1.8497249876982726,14.640050491223178,-0.027943175671500665,0.7346684605235085,-0.9182881829440891
1.8433386145689408,14.472890052338968,-0.02759050371399391,0.7189005732522188,-0.9427600756357821
1.8370308317976398,14.309346192866936,-0.027259781253841053,0.7032199438958805,-0.9680792458991107
1.8307966810109253,14.149399084550378,-0.026950225587154257,0.6876244762481046,-0.9941445738683732
1.824631388865761,13.993029369383745,-0.026661010457752755,0.6721121773747818,-1.020855538717276
1.818530376645833,13.840218135978795,-0.02639126971553639,0.6566811565813072,-1.0481119694934093
1.81248926906305,13.690946896114482,-0.02614010056953207,0.6413296248474797,-1.075813792380371
1.8065039023555933,13.545197561360904,-0.02590656645183074,0.6260558947488566,-1.1038607730696401
1.8005703317705173,13.402952419662615,-0.02568969950535338,0.6108583808884581,-1.1321522528542272
1.7946848385163183,13.264194111760581,-0.025488502705072212,0.5957356008683552,-1.1605868769738976
1.7888439362690578,13.12890560732447,-0.025301951618930354,0.5806861768369574,-1.1890623136466387
1.7830443773145916,12.997070180657914,-0.025128995811211415,0.565708837654837,-1.217474962112245
1.7772831584092437,12.86867138582868,-0.02496855988746707,0.550802421729821,-1.2457196478907286
1.7715575264419139,12.743693031062936,-0.02481954417627027,0.5359658805809889,-1.2736893033201
1.7658649839821607,12.622119152227974,-0.024680825038973616,0.5211982832012978,-1.3012746312845314
1.7602032948013389,12.503933985210328,-0.024551254794260954,0.5064988212999888,-1.3283637498749907
1.7545704894574536,12.389121936976153,-0.024429661239523073,0.49186681551893047,-1.3548418155406634
1.7489648710391306,12.277667555077315,-0.024314846745894753,0.4773017227318215,-1.3805906220923174
1.7433850211700734,12.16955549533968,-0.024205586898080524,0.4628031445519717,-1.4054881727109836
1.7378298063827597,12.064770487438956,-0.02410062864377762,0.4483708371934388,-1.429408221901614
1.7322983849790214,11.963297298033744,-0.0239986879104688,0.4340047228518814,-1.4522197841192794
1.7267902145057776,11.865120691084257,-0.023898446639477006,0.41970490279582784,-1.473786605596539
1.721305059986734,11.770225384938307,-0.023798549178293212,0.4054716723863404,-1.4939665957322499
1.715843003065587,11.67859600571244,-0.023697597962116696,0.3913055382733695,-1.5126112142899868
1.710404452233479,11.590217036435213,-0.02359414840404079,0.3772072380503493,-1.5295648106359165
1.7049901543335073,11.505072761350714,-0.023486702900059775,0.36317776268441515,-1.5446639113759026
1.699601207558442,11.423147204703135,-0.023373703839639257,0.34921838207716144,-1.5577364531082978
1.694239076185028,11.344424063237184,-0.02325352549439522,0.3353306741485014,-1.5686009577052864
1.6889056073200748,11.268886631554924,-0.02312446463563154,0.3215165578711544,-1.5770656487339272
1.6836030499709165,11.196517719367979,-0.02298472970487537,0.3077783307109794,-1.582927509560829
1.6783340767970998,11.12729955957795,-0.02283242832831365,0.2941187109414361,-1.5859712866854752
1.6731018089531502,11.061213706011639,-0.022665552923422698,0.28054088528734683,-1.585968446395712
1.6679098444966227,10.998240919539562,-0.022481964089859086,0.26704856229594615,-1.5826760996233182
1.6627622909152628,10.938361041229506,-0.022279371400226768,0.25364603170452826,-1.5758359198878238
1.6576638024278278,10.88155285115279,-0.022055311099207907,0.24033822983212874,-1.5651730938771313
1.6526196228439312,10.827793911502557,-0.021807120065111398,0.22713081060468132,-1.5503953655724456
1.6476356349431036,10.777060392852526,-0.021531905159476443,0.2140302211347205,-1.5311922658237975
1.6427184175740976,10.729326882759057,-0.021226506744923396,0.20104377967804643,-1.5072346641278376
1.6378753120172238,10.684566176607383,-0.020887454619197103,0.18817975207563548,-1.4781748440232907
1.6331144996512195,10.642749051799857,-0.020510913780840617,0.17544742016372614,-1.4436473963665317
1.6284450937121147,10.60384402833741,-0.02009261612441724,0.16285713168363017,-1.4032713572287978
1.6238772490708986,10.567817121924016,-0.019627772060071696,0.15042031538934617,-1.356654204305341
1.6194222957262134,10.534631600439546,-0.019110952676319813,0.13814943664952137,-1.3033985858106492
1.6150929044906355,10.504247761650635,-0.01853592763305449,0.12605785716709383,-1.2431130074561287
1.6109032977600528,10.476622760155315,-0.017895435241577027,0.11415954714003618,-1.175428156039437
1.6068695252759329,10.451710525511334,-0.017180847229031068,0.1024685801989211,-1.100021069995817
1.6030098359589084,10.42946183139346,-0.016381668571179966,0.09099832517389442,-1.0166498704892981
1.5993451945833992,10.409824595653639,-0.015484778172379334,0.07976024647672793,-0.9252019408476679
1.595900019909957,10.392744506825807,-0.014473262466249324,0.06876226506965404,-0.8257576022430565
1.59270326467357,10.378166067598674,-0.01332460915450576,0.058006771688027314,-0.7186681491132063
1.5897900283506978,10.366034085866115,-0.012007880609600246,0.047488721638557975,-0.6046394949661982
1.587204018330814,10.356295467282745,-0.010479163041561726,0.0371949182168345,-0.48479860479070885
1.5850014467475504,10.34890076805933,-0.008673633334645232,0.027106814160683133,-0.36070047443512454
1.5832577458303088,10.343804143265583,-0.0064889833370201985,0.017211662306699987,-0.2342181719050732
1.5820817374925351,10.340958102893413,-0.0037371761218833593,0.007536514842608337,-0.10726583726203823
