x,y,v_x,v_y,omega
2.375,32.48,0.0,2.923076923076923,-6.408163265306122
2.3734697866653205,31.87341333431973,-0.01457346033028113,2.8539389405446887,-5.9986178194707005
2.369104094566172,31.28104169702814,-0.027004559661610382,2.7876957003275846,-5.628281376925138
2.3623210242866444,30.702298401574563,-0.03759610966722205,2.724145208754098,-5.292265653688443
2.3534800017449444,30.136637024501955,-0.04660410501563553,2.663106001461209,-4.9864083272456305
2.3428907615580443,29.583547397354717,-0.05424580152626844,2.604414257083918,-4.707149009036283
2.3308207980800195,29.042552149713824,-0.060706231597778375,2.5479214347340924,-4.45142919265738
2.3175015766583007,28.513203705355586,-0.06614349622811616,2.49349232105866,-4.216610985378091
2.3031337350597694,27.995081654540407,-0.07069309042456345,2.441003400990649,-4.000410680500867
2.287891457411042,27.487790441310544,-0.07447145861093599,2.3903414869128103,-3.800844146294465
2.2719261663835324,26.990957316793473,-0.07757893212725002,2.3414025561069143,-3.616181689866625
2.2553696509136882,26.50423051885221,-0.08010216758555208,2.2940907576193816,-3.4449105674558194
2.2383367244591357,26.02727764569968,-0.08211617960066063,2.248317558119022,-3.2857037021870035
2.2209274911809835,25.55978419681186,-0.08368604209602659,2.2040010027173347,-3.13739346882738
2.2032292834273424,25.101452259007743,-0.08486831746246148,2.1610650716076,-2.998949635719021
2.185318322665438,24.651999319188793,-0.08571226122234188,2.119439117144314,-2.8694607336629816
2.1672611469609437,24.21115718815301,-0.0862608407252242,2.0790573689107537,-2.7481182623818605
2.1491158407703703,23.778671022272807,-0.0865515991849952,2.0398584966150115,-2.6342032563843607
2.1309330968401268,23.3542984317694,-0.08661739062684792,2.0017852224650317,-2.5270748203786506
2.112757135119084,22.937808665918674,-0.08648700671641654,1.964783976113321,-2.426160314936561
2.094626499575671,22.52898186685308,-0.08618571274466094,1.92880458641614,-2.33094692977215
2.07657475049718,22.12760838473513,-0.08573570705049217,1.8938000051833979,-2.2409744277284105
2.0586310671049923,21.733488148011382,-0.0851565157322484,1.8597260588522884,-2.155828879646237
2.0408207730389947,21.346430083245046,-0.08446533251534992,1.8265412246366304,-2.0751372404884623
2.0231657953629893,20.966251579695815,-0.08367731201803102,1.7942064282132177,-1.9985626417881601
2.005685066152474,20.59277799438847,-0.08280582332021244,1.7626848604281573,-1.925800295766225
1.988394874391945,20.2258421939035,-0.081862669637204,1.7319418108572626,-1.8565739231719196
1.971309174786488,19.865284129546893,-0.08085827898619904,1.7019445163484928,-1.79063263071791
1.9544398591456196,19.510950442923516,-0.07980186997445152,1.6726620229217752,-1.727748175447129
1.93779699519672,19.162694099257607,-0.07870159620554416,1.6440650596107338,-1.6677125629136675
1.921389037006615,18.820374046082577,-0.07756467227164746,1.6161259230085894,-1.6103359340301817
1.905223010613124,18.483854895166292,-0.07639748385683733,1.5888183714322028,-1.5554447021095366
1.8893046779771803,18.153006625752344,-0.07520568410453193,1.5621175277482633,-1.5028799072348866
1.8736386819468789,17.827704307386938,-0.07399427808881476,1.5359997900175253,-1.4524957598142005
1.858228674566235,17.50782784076808,-0.07276769696493549,1.5104427492096626,-1.4041583491624248
1.8430774307541145,17.193261715201928,-0.07152986315049958,1.4854251133251186,-1.3577444963299599
1.8282076422699673,16.88389924644524,-0.07008717003185408,1.4608841129290613,-1.3075819648792661
1.8136392328230937,16.57963761173107,-0.06865958660503767,1.4368457414916105,-1.2597909687823405
1.799368854264359,16.28037320582578,-0.06724878062100637,1.4132914576063798,-1.2142306041347921
1.7853928368173317,15.986006224369362,-0.065856147445921,1.3902036038833059,-1.170769930965129
1.7717072428282383,15.696440483813554,-0.06448284292639717,1.3675653537910661,-1.1292871568853058
1.7583079140201976,15.411583252120582,-0.06312981238827729,1.345360662332465,-1.0896688965534136
1.7451905130143601,15.131345089451646,-0.06179781623874538,1.3235742202288434,-1.0518094990937605
1.732350559788226,14.855639698138905,-0.06048745258157956,1.3021914113210595,-1.015610436516407
1.719783463660801,14.584383781293319,-0.05919917720342066,1.2811982729226077,-0.980979746963264
1.7074845513238253,14.317496909453475,-0.057933321243967946,1.2605814588854176,-0.9478315272962659
1.6954490913766875,14.054901394728581,-0.05669010682401066,1.240328205161175,-0.9160854701477332
1.6836723157686766,13.79652217193226,-0.055469660871330075,1.2204262976609495,-0.8856664410849245
1.6721494385049072,13.542286686243312,-0.05427202735504799,1.2008640422337897,-0.8565040920093895
1.6608756719307256,13.292124786965662,-0.053097178113346744,1.1816302366009834,-0.828532507325235
1.6498462408729262,13.045968626992362,-0.05194502243712252,1.162714144097096,-0.8016898797758192
1.639056394884004,12.80375256760857,-0.05081541555261411,1.1441054690818804,-0.7759182131717497
1.6285014188074354,12.565413088295593,-0.04970816612899136,1.1257943338988459,-0.7511630495196204
1.618176641857085,12.330888701223195,-0.048623042921964565,1.107771257266844,-0.7273732183152107
1.6080774453818811,12.100119870140116,-0.047559780651406404,1.0900271340005665,-0.7045006059908232
1.598199269467534,11.873048933393783,-0.04651808519951912,1.0725532159645033,-0.6824999437074738
1.588537618509952,11.649620030829372,-0.045497638206023185,1.0553410941727333,-0.6613286118617412
1.5790880658798787,11.429779034336061,-0.0444981011280086,1.0383826819540378,-0.6409464598368284
1.5698462577848842,11.213473481824519,-0.04351911882432064,1.0216701991082755,-0.6213156396700464
1.5608079164229918,11.000652514434638,-0.042560322717513394,1.005196156985841,-0.6024004524364823
1.5519688425117129,10.791266816786251,-0.041621333580379324,0.988953344427373,-0.5841672062627888
1.5433330423884413,10.58541697197915,-0.04062438187935081,0.9715213680212242,-0.5949551908832832
1.5349021423907014,10.383215443054038,-0.03966990381340975,0.9542074788846131,-0.6078318045075597
1.526667288922873,10.184637782998475,-0.0387572720706713,0.9370083311683722,-0.6226767897746062
1.518619768286928,9.989660233192073,-0.037885781604993465,0.9199207146069082,-0.6393733234188783
1.5107510222007834,9.798259695543603,-0.03705465731066991,0.9029415487118334,-0.6578077476678632
1.503052661772552,9.610413705798837,-0.03626306105344087,0.8860678774287819,-0.6778693110501447
1.49551648006093,9.426100407923986,-0.03551009810486462,0.8692968642364656,-0.699449917534149
1.4881344633424882,9.245298529473825,-0.034794823023151344,0.8526257876698341,-0.72244388295556
1.48089880119797,9.067987357857042,-0.03411624501988018,0.8360520372519192,-0.7467476977218581
1.4738018955217824,8.894146717414323,-0.03347333284857076,0.8195731098216109,-0.7722597948057512
1.4668363685516599,8.723756947227091,-0.032865019247835726,0.8031866062472565,-0.7988803220555287
1.4599950700089157,8.556798879576675,-0.03229020496877535,0.7868902285186156,-0.8265109178596339
1.453271083433791,8.39325381897492,-0.031747762413365924,0.770681777212385,-0.8550544892049682
1.4466577317950668,8.233103521688047,-0.031236538907816302,0.754559149329251,-0.8844149911635233
1.4401485824483653,8.076330175675633,-0.030755359632198897,0.7385203365032751,-0.9144972068297019
1.4337374515133507,7.922916380866113,-0.030303030225081126,0.7225634235873969,-0.945206526710889
1.4274184077363836,7.772845129689124,-0.02987833907936696,0.706686587622008,-0.9764487265461645
1.4211857759020263,7.6260997877831365,-0.029480059343084345,0.6908880971969276,-1.0081297424921047
1.4150341398541806,7.482664074794279,-0.029106950636398926,0.675166312220777,-1.0401554425699513
1.408958345185523,7.342522045178946,-0.02875776049367402,0.659519684115738,-1.0724313932145069
1.402953501652312,7.205658068918488,-0.028431225536905823,0.6439467564600629,-1.1048626197013505
1.3970149853705838,7.072056812049098,-0.028126072384315123,0.62844616610556,-1.1373533591547094
1.3911384408492302,6.941703216903733,-0.027841018295243488,0.6130166448026743,-1.1698068047528958
1.3853197829155057,6.814582481955409,-0.027574771549752925,0.5976570213718252,-1.202124839650917
1.3795551985891463,6.6906800411423895,-0.027326031558429654,0.5823662244664531,-1.2342077590299982
1.3738411489625564,6.56998154254542,-0.027093488694808737,0.5671432859808807,-1.2659539785607319
1.3681743711464511,6.45247282627513,-0.026875823839526632,0.5519873451647526,-1.2972597274298798
1.3625518803430194,6.33813990141369,-0.02667170762172842,0.5368976535156328,-1.3280187239303243
1.3569709721121055,6.22696892183864,-0.02647979933935583,0.521873580532478,-1.3581218314494472
1.3514292249002284,6.118946160738069,-0.026298745535664556,0.5069146204253581,-1.3874566925141607
1.3459245029075004,6.0140579836048325,-0.026127178204601115,0.49202039989117446,-1.4159073383626553
1.3404549593738115,5.912290819472709,-0.02596371259243675,0.4771906870814417,-1.4433537713168327
1.3350190403730973,5.813631130128957,-0.025806944557224033,0.462425401906683,-1.4696715170304846
1.329615489213272,5.718065377005253,-0.025655447441110493,0.44772462784286804,-1.4947311434946096
1.3242433515496201,5.625579985411729,-0.025507768403193333,0.43308862542878407,-1.518397743504977
1.318901981331295,5.536161305736417,-0.02536242415228497,0.41851784766943134,-1.5405303771561623
1.3135910477143078,5.449795571184229,-0.02521789600949892,0.40401295758949357,-1.560981470847152
1.3083105430902389,5.366468851575018,-0.025072624219728275,0.389574848212516,-1.5795961693043956
1.3030607923982176,5.286167002658811,-0.024925001418570052,0.37520466527516527,-1.596211637303794
1.2978424639088708,5.208875610337724,-0.02477336514663647,0.36090383302090984,-1.610656308182249
1.2926565816934528,5.1345799291080745,-0.024615989285917156,0.3466740834519452,-1.6227490769844948
1.2875045400198613,5.063264813953442,-0.024451074272097886,0.3325174894493256,-1.6322984373525289
1.2823881199506033,4.994914644830853,-0.024276735911310424,0.31843650219438485,-1.6391015632619623
1.2773095084571353,4.929513242800553,-0.024090992597908027,0.30443399333227106,-1.6429433397687505
1.2722713204120268,4.867043776759235,-0.02389175068883943,0.29051330229931105,-1.6435953515174317
1.2672766238774302,4.807488659654705,-0.02367678773588917,0.2766782891723928,-1.6408148445447097
1.2623289691788449,4.7508294329988985,-0.02344373320301949,0.26293339326385584,-1.6343436868430397
1.2574324223423508,4.697046638475079,-0.023190046192161525,0.24928369743919826,-1.6239073675911773
1.2525916035893168,4.646119675483696,-0.022912989551019367,0.23573499771683698,-1.609214095861693
1.247811731737365,4.59802664363534,-0.022609599515188906,0.2222938770294111,-1.5899540897607096
1.2430986755694402,4.552744169547246,-0.02227664970314276,0.20896778095243082,-1.5657991902947646
1.238459013534721,4.510247217934914,-0.021910607770372525,0.19576509154596575,-1.53640299636466
1.2339001035845099,4.470508888064579,-0.02150758223163906,0.1826951929334018,-1.5014018059006953
1.2294301656010935,4.433500198366641,-0.021063255705659343,0.16976851847552835,-1.4604167737877591
1.225058379873091,4.399189864719261,-0.020572798846746853,0.15699656388048105,-1.4130578735545387
1.2207950066082696,4.367544082028214,-0.020030756056315057,0.14439184270093608,-1.3589304932290969
1.216651533877146,4.338526324817277,-0.01943088900200498,0.13196774978418593,-1.2976458227108787
1.212640865162989,4.3120971912636925,-0.018765955894727706,0.1197382840594866,-1.2288366085646425
1.2087775636696367,4.2882143270664805,-0.018027391661007454,0.1077175654377634,-1.1521803412729499
1.2050781799737285,4.266832480819694,-0.017204834014309056,0.095919065484012,-1.0674324032426288
1.2015617044382523,4.247903759726398,-0.01628540918070182,0.08435446873783987,-0.9744718780975675
1.1982502089613625,4.231378168342147,-0.015252642980154326,0.07303211587409145,-0.8733620045735484
1.1951697787067916,4.217204510603196,-0.014084788015759178,0.06195510068735439,-0.764424495134953
1.1923518917798213,4.205331689587201,-0.012752230336338845,0.05111938517926483,-0.6483203058594946
1.1898355036478758,4.19571030138367,-0.011213370920284368,0.040512883425805474,-0.5261170633784695
1.1876702992776522,4.18829410985245,-0.009407623081844516,0.03011751210961946,-0.3993058019696115
1.185922145744993,4.18304035798063,-0.007241458181575048,0.01991822000295558,-0.269714525181221
1.1846839290521702,4.179906322813558,-0.004551081750070544,0.009929733969169782,-0.13926916554115057
1.1841079546989886,4.178831781550084,-0.0009343882802307769,0.00030399234963436085,-0.009624892809939972
