x,y,v_x,v_y,omega
2.375,32.48,0.0,3.4871794871794872,-4.326530612244898
2.374075391627172,31.85977082303437,-0.010273426364754507,3.4042558124385778,-4.045158375972821
2.371440782746413,31.254158484630192,-0.019000005643680505,3.324770169830091,-3.791220549000362
2.3673545067618327,30.66256454849118,-0.02640306085165531,3.2484957872700417,-3.561254952253236
2.3620378422906634,30.084429550652956,-0.032670988828005086,3.1752264109324524,-3.352315372131995
2.3556807598059537,29.51922952647538,-0.037963261002101734,3.104773857707242,-3.161884165019879
2.348446689933431,28.96647294455691,-0.04241529313704035,3.036965941386904,-2.9878013568197668
2.3404764960077644,28.425697986643534,-0.0461424171481435,2.9716447020950523,-2.8282068096913675
2.331891796251518,27.89647012387756,-0.049243135699037856,2.9086648841935414,-2.681492806307168
2.3227977519752434,27.378379948531904,-0.051801800704013024,2.847892619647079,-2.546264988227904
2.3132854155085845,26.871041227321243,-0.053890826703306804,2.789204282693597,-2.4213100305558237
2.3034337136841754,26.374089147919076,-0.055572526901242876,2.7324854884416063,-2.3055687763284647
2.2933111285086416,25.88717873476753,-0.056900641715796486,2.677630213242206,-2.1981138174759014
2.282977125340723,25.409983413887602,-0.05792161570552031,2.6245400187570307,-2.0981307137580845
2.272483369827506,24.942193709363075,-0.058675667774665576,2.573123364848822,-2.0049022010401067
2.2618747675459474,24.483516056619692,-0.05919769090932078,2.523294998966543,-1.9177948660320667
2.251190354388454,24.033671719656517,-0.059518010840606934,2.4749754117353637,-1.836247864062048
2.2404640609317243,23.592395801090646,-0.05966302756750156,2.428090350107672,-1.7597633354834017
2.229725370113791,23.159436335311625,-0.05965575929842459,2.3825703807703142,-1.6878982394362818
2.2189998843400196,22.734553456258244,-0.059516304854589544,2.3383504976006004,-1.620257374325482
2.20830981550654,22.317518632365985,-0.05926223773963154,2.295369767868947,-1.5564873951863665
2.197674409259804,21.908113962120385,-0.05890894277965546,2.2535710126377184,-1.4962716711342503
2.1871103130166327,21.50613152441396,-0.05846990436669185,2.212900517433665,-1.4393258529217914
2.176631895780626,21.11137277856305,-0.05795695381115911,2.1733077697986496,-1.3853940425085867
2.166251526552406,20.72364800941201,-0.0573804820579557,2.1347452207685222,-1.3342454744553331
2.155979817097827,20.34277581344915,-0.05674962299292214,2.097168067707676,-1.2856716336637177
2.1458258339737335,19.96858262229308,-0.056072411719224544,2.0605340562486494,-1.2394837461047985
2.135797283985544,19.60090226028816,-0.055355921482880426,2.0248032993616047,-1.195510589200406
2.1259006766409394,19.23957553328225,-0.05460638234606124,1.9899381118151784,-1.153596576833621
2.116141466649619,18.884449845954393,-0.05382928422416443,1.9559028584943265,-1.1136000808782436
2.106524179084412,18.53537884532033,-0.05302946650035997,1.9226638152174538,-1.0753919569051342
2.0970525194508167,18.1922220882744,-0.052211196095143346,1.8901890408485078,-1.0388542465488022
2.087729470599441,17.854844731231033,-0.051378235586804336,1.8584482596333307,-1.00387903306565
2.0785573781498283,17.523117240111468,-0.050533902742229866,1.8274127528062705,-0.9703674300200593
2.069538025867371,17.196915119083528,-0.04968112261840338,1.797055258615289,-0.9382286859055758
2.0606727022412814,16.87611865660783,-0.0488224732270388,1.7673498800035807,-0.9073793899354868
2.0519622593456948,16.56061268747368,-0.047960225612814385,1.7382719992647562,-0.8777427662937141
2.0434071649237566,16.250286369624597,-0.04709637907538437,1.7097981990583906,-0.8492480458837781
2.035007548512282,15.945032974678245,-0.04623269216322152,1.6819061892344196,-0.8218299061006803
2.0267632423193507,15.64474969113989,-0.04537070998046426,1.6545747389695262,-0.7954279704193282
2.0186738174764587,15.349337439393583,-0.04451178827388866,1.6277836137672073,-0.7699863606779853
2.0107386162084593,15.058700697632059,-0.043657114703883136,1.6015135169163948,-0.7454532958647739
2.002956780396682,14.772747337955803,-0.0428077276491961,1.5757460350420072,-0.7217807320133708
1.9953272769518582,14.491388471934656,-0.04196453284884919,1.5504635874151766,-0.6989240385006564
1.9878489203624308,14.21453830498234,-0.04112831814478849,1.5256493787216443,-0.6768417066309547
1.980520392739486,13.942113998946102,-0.040299766554597244,1.5012873550143604,-0.6554950869026546
1.9733402616409044,13.674035542360716,-0.03947946787408721,1.4773621626010367,-0.6348481517952921
1.9663110012339167,13.410226587085994,-0.038623425536886975,1.4538484515625403,-0.6136450335617929
1.9594343460847288,13.150613318862241,-0.03778385389853277,1.4307434175902474,-0.5933276629946146
1.9527073348307655,12.895123391837,-0.036960715589950316,1.4080335493568894,-0.5738491754746551
1.946127016826717,12.643686841447973,-0.036153928899476134,1.3857058994100753,-0.5551656533306408
1.9396904595694786,12.396235985601464,-0.0353633739587299,1.3637480544400058,-0.5372359108443795
1.9333947550749662,12.152705331035168,-0.034588898202518405,1.3421481074077288,-0.5200212970417637
1.9272370253299007,11.913031484542593,-0.033830321187098,1.3208946313986758,-0.5034855146275148
1.9212144269273714,11.677153068759747,-0.03308743884100475,1.2999766550773943,-0.48759445358868675
1.9153241549824376,11.445010642236124,-0.03236002721381548,1.2793836396295302,-0.4723160381404524
1.909563446412953,11.216546623531698,-0.03164784578045992,1.2591054570863254,-0.4576200858198867
1.9039295826610387,10.991705219099753,-0.03095064035192011,1.23913236993528,-0.44347817765128533
1.8984198919220177,10.770432354732037,-0.030268145637202853,1.2194550119282448,-0.42986353841169944
1.8930317509400072,10.55267561035803,-0.029600087496247186,1.2000643700051716,-0.41675092611930703
1.8877625864226495,10.338384158004338,-0.028946184918837953,1.180951767258084,-0.40411652995126657
1.8826098761215038,10.127508702733206,-0.028306151760558677,1.1621088468656229,-0.3919378758729465
1.87757114961936,9.920001426391256,-0.027679698263261877,1.1435275569338144,-0.38019373932788075
1.87264398886107,9.715815934010692,-0.027066532384402365,1.125200136183551,-0.3688640643983456
1.8678260284603603,9.514907202715499,-0.02646636095681649,1.10711910042971,-0.35792988890084654
1.8631149558114186,9.317231532994743,-0.02587889069809184,1.089277229800897,-0.3473732749297276
1.8585085110308037,9.122746502213936,-0.025303829086517984,1.0716675566525327,-0.33717724440616215
1.8540044867523338,8.931410920243561,-0.02474088511870467,1.054283354129425,-0.32732571922947995
1.8496007277950461,8.743184787091572,-0.024189769962269375,1.0371181253371113,-0.31780346566359685
1.8452951307220462,8.55802925243366,-0.023650197515504734,1.0201655930841513,-0.3085960426236525
1.8410856433060356,8.375906576941667,-0.023121884884615054,1.003419690160214,-0.29968975355719013
1.8369702639155054,8.196780095316694,-0.022604552787939908,0.9868745501172529,-0.2910716016406587
1.832951436275498,8.020837194621546,-0.022049087656589788,0.9680465687177373,-0.3319410082082905
1.8290284832896722,7.8482742779647445,-0.02153927885258413,0.9493191719133707,-0.373900530861146
1.8251933273255352,7.679073462596659,-0.02107356519338315,0.9306898877320435,-0.4168512760649786
1.8214381723469173,7.513217302078793,-0.020650379013482646,0.9121563402442548,-0.46069557684548895
1.8177555048779301,7.3506887691953295,-0.020268148419704916,0.8937162473497817,-0.505336775600875
1.8141380945870678,7.191471239232147,-0.01992529925654562,0.8753674189078124,-0.5506790070901953
1.8105789945422393,7.035548473561235,-0.01962025679710216,0.8571077552134165,-0.5966269806200691
1.807071541184956,6.882904603467679,-0.01935144717271309,0.8389352458260987,-0.6430857604204047
1.803609354069726,6.733524114154996,-0.019117298552064135,0.8208479687592667,-0.689960543159376
1.8001863354130077,6.587391828862813,-0.018916242078141167,0.8028440900427808,-0.7371564314981156
1.7967966694947641,6.4444928930282686,-0.018746712569007683,0.7849218636743988,-0.7845782025258213
1.79343482195482,6.304812758419377,-0.018607148985927673,0.7670796319799488,-0.8321300698453419
1.790095539025803,6.168337167164594,-0.018495994669814938,0.7493158264065215,-0.879715437996818
1.7867738467445295,6.03505213559799,-0.018411697344335832,0.7316289687779544,-0.9272366478115344
1.7834650501842324,5.9049439378337,-0.0183527088811897,0.7140176730474774,-0.9745947111785456
1.7801647327511159,5.777999088976443,-0.018317484820102366,0.6964806475887141,-1.021689033581519
1.7768687555903502,5.654204327866854,-0.018304483632851486,0.679016698073396,-1.0684171226211328
1.7735732571488498,5.53354659925094,-0.01831216571715172,0.6616247309923208,-1.114674280577691
1.7702746529450892,5.416013035251943,-0.01833899210241097,0.6443037578854013,-1.1603532788877313
1.766969635599807,5.301590936010097,-0.01838342284516798,0.6270529003573398,-1.2053440122056591
1.7636551751858787,5.1902677493408405,-0.01844391508737077,0.6098713959677181,-1.2495331294952396
1.7603285199609222,5.08203104924489,-0.018518920745480425,0.5927586050983913,-1.292803639344755
1.7569871975524949,4.9768685130834776,-0.018606883792601323,0.5757140189173037,-1.3350344864227954
1.753629016673119,4.874767897209033,-0.018706237089350798,0.5587372685765373,-1.376100095688715
1.7502520694510084,4.7757170108147875,-0.018815398711878685,0.5418281358039463,-1.4158698806436065
1.746854734472391,4.6797036877359055,-0.01893276771720353,0.5249865650725318,-1.4542077115568064
1.7434356806429396,4.5867157558989575,-0.0190567192767012,0.5082126775602352,-1.4909713392347461
1.7399938719892172,4.496741004075439,-0.019185599097992282,0.4915067871455457,-1.5260117695226358
1.7365285735364897,4.409767145547384,-0.01931771704342493,0.47486941872171645,-1.559172583360208
1.7330393584170176,4.32578177823849,-0.01945133983959786,0.4583013291548968,-1.5902891968743595
1.729526116383358,4.244772340801198,-0.01958468275661763,0.44180353125944016,-1.6191880557204752
1.7259890639246727,4.166726064078308,-0.019715900117664616,0.42537732121713906,-1.6456857577353705
1.72242875621102,4.091629917275441,-0.019843074478475508,0.4090243099258427,-1.6695880980197915
1.7188461011216862,4.019470548087792,-0.01996420429190035,0.39274645882580383,-1.6906890309478195
1.7152423756494657,3.9502342159199415,-0.020077189843884582,0.37654612081697286,-1.7087695444815707
1.7116192450143628,3.8839067172215245,-0.02017981721281406,0.3604260869432223,-1.7235964438120202
1.7079787848686014,3.820473301835058,-0.02026973996231194,0.34438963957305363,-1.73492104413094
1.7043235070316964,3.759918579117979,-0.020344458225520518,0.3284406128389194,-1.7424777768214794
1.700656389261888,3.702226412464398,-0.020401294772349747,0.3125834610897597,-1.7459827203511233
1.6969809096516748,3.647379800723332,-0.0204373675633528,0.2968233360332082,-1.745132077855808
1.6933010863353197,3.595360744906099,-0.020449558173925637,0.28116617304715885,-1.7396006395718542
1.6896215233224194,3.5461500985243433,-0.020434475302746374,0.26561878675012474,-1.7290402924791564
1.6859474634354963,3.499727399947009,-0.020388412329732902,0.25018897522024586,-1.713078675548182
1.6822848495496328,3.456070685381224,-0.020307297513194423,0.23488563106625138,-1.6913181323831006
1.678640395638472,3.4151562815803373,-0.020186634833035726,0.21971885561027032,-1.6633351919277217
1.6750216695728937,3.3769585783350315,-0.02002143256227821,0.20470006933755633,-1.628680923990305
1.67143719027822,3.341449782472985,-0.019806115156321417,0.1898421069074176,-1.586882686401696
1.667896542869566,3.3085996578712233,-0.019534411606500154,0.175159277556605,-1.5374480279149303
1.664410516981813,3.278375260444218,-0.01919920936853215,0.1606673605212363,-1.47987186620687
1.6609912760744379,3.2507406840072086,-0.018792356268968607,0.1463834887788539,-1.413648560189907
1.6576525696642805,3.225656843363449,-0.0183043816216682,0.13232585170737662,-1.338291173913802
1.6544100072886225,3.2030813360767745,-0.017724089218976426,0.11851311814457374,-1.2533610885893196
1.6512814242805316,3.182968444952394,-0.017037944204257045,0.10496344990411777,-1.1585120611290816
1.6482873879849833,3.1652693683400663,-0.016229125746278494,0.09169295689952459,-1.0535534912008058
1.6454519233871305,3.1499327892228806,-0.01527603645208601,0.07871347773587087,-0.938537099715543
1.6428035866201824,3.1369058995634305,-0.014149927625113645,0.06602974070245125,-0.813867391981856
1.6403770969082587,3.1261359438631686,-0.012811069174038306,0.05363643374490373,-0.6804255649652835
1.6382158848004775,3.1175721576834974,-0.01120239869019914,0.0415167460292334,-0.5396745944774489
1.6363762376631747,3.111167518437238,-0.009238125057606525,0.0296459122625369,-0.39368016887443963
1.6349346976323078,3.10687871841667,-0.006778986396472484,0.018007421299340604,-0.24495296014602586
1.6340046783446092,3.1046598582282776,-0.0035545612446225066,0.00664658079391502,-0.09602699789929314
