x,y,v_x,v_y,omega
2.375,32.48,0.0,2.923076923076923,-7.387755102040816
2.37373581818541,31.95943773001734,-0.014046464606555262,2.860948298952632,-6.976005741531091
2.3701072526380567,31.449855020042683,-0.026270930364039824,2.8010818118768666,-6.598225088959921
2.3644219587478075,30.950857451302685,-0.036899001749839275,2.7433356185675573,-6.250717873917619
2.3569497496770744,30.462074952321224,-0.04612554348052643,2.6875810367820017,-5.930272125488651
2.347927704555958,29.98315958317315,-0.054119402309656034,2.6337008426410105,-5.634085821368811
2.337564500821411,29.51378360073336,-0.061027305851975244,2.5815878511344756,-5.359706248405031
2.326044104171261,29.05363775900333,-0.06697710137191468,2.5311437236436416,-5.104979584679357
2.3135289235579113,28.602429807572452,-0.07208046099863788,2.4822779589216517,-4.868008759543256
2.3001625183440964,28.1598831582567,-0.07643515248819541,2.4349070334755836,-4.647118061387972
2.2860719287669364,27.72573569543757,-0.08012695392469253,2.388953664514767,-4.440823278865306
2.271369688175332,27.29973870995662,-0.08323127487091575,2.3443461741624314,-4.247806404953248
2.256155565359706,26.881655939871195,-0.08581453419159193,2.301017937897883,-4.066894122821736
2.2405180771163082,26.47126270414392,-0.08793533517949645,2.2589069035162495,-3.8970394410839515
2.224535804554556,26.0683451175732,-0.08964547106219746,2.21795516949177,-3.7373059634129073
2.2082785412411994,25.67269937708785,-0.09099078797509383,2.1781086136787913,-3.586854370859861
2.1918082968306094,25.284131111014926,-0.09201192769813056,2.1393165649092487,-3.4449307699238036
2.1751801761636,24.902454784152308,-0.09274496860197395,2.1015315113420443,-3.3108566195673936
2.158443150777512,24.527493152490038,-0.09322198013233603,2.064708840460942,-3.1840199990615097
2.14164073723942,24.159076762267283,-0.09347150362423945,2.0288066064585717,-3.063868018154809
2.1248115945986106,23.79704348875756,-0.09351897016253391,1.9937853214272667,-2.9499002034526396
2.107990051479093,23.44123811076891,-0.09338706449877329,1.959607767335478,-2.841662721489539
2.091206571837896,23.091511917348313,-0.09309604262563849,1.9262388262267436,-2.7387433209188363
2.074488167151827,22.747722343606817,-0.09266400944179023,1.8936453264565036,-2.6407668944107097
2.0578587617249915,22.4097326329471,-0.09210716196749381,1.8617959030959252,-2.547391575951747
2.0413395168996225,22.077411523288042,-0.09144000275882906,1.8306608708936243,-2.4583053018370102
2.024949119177485,21.750632955151126,-0.09067552748714523,1.8002121084054354,-2.373222774190593
2.00870403659666,21.429275799706815,-0.0898253900775737,1.7704229520869323,-2.2918827747056563
1.9926187471411305,21.11322360508204,-0.08890004831720034,1.7412680992994225,-2.214045783753587
1.9767059424734559,20.80236435940696,-0.08790889243473998,1.7127235193126185,-2.1394918663127993
1.960976709861713,20.496590269233806,-0.08686035880684671,1.6847663715001402,-2.068018791505339
1.9454406948104739,20.195797552096934,-0.08576203065136677,1.6573749300206944,-1.999440357063216
1.9301062465933638,19.89988624210259,-0.08462072731652368,1.6305285143608723,-1.9335848939071776
1.9149805486144493,19.608760007543268,-0.08344258356030232,1.6042074251871778,-1.8702939293164318
1.9000697352912828,19.322325979624893,-0.08223312003043659,1.5783928850169409,-1.809420989987944
1.8853789969487562,19.040494591478918,-0.08099730599763648,1.5530669832716604,-1.7508305287025285
1.8709126740356556,18.763179426705374,-0.07973961525903744,1.528212625323285,-1.694396960393722
1.856674341821263,18.49029707675963,-0.0784640760119915,1.5038134851849942,-1.6400037952059192
1.842666886594413,18.221767006554916,-0.07717431539745412,1.4798539615340418,-1.587542857673581
1.8288988588158535,17.957516098957036,-0.0758037710309839,1.4562672339979856,-1.5343908832838231
1.8153768866618383,17.697473613585736,-0.07444036401362908,1.4330937145719964,-1.4834712402817813
1.8020995283176031,17.441566417233958,-0.0730858398112073,1.410319578225531,-1.434665139082321
1.7890650480729513,17.18972381220484,-0.07174171846270003,1.3879315887646801,-1.3878613067839423
1.7762714547844989,16.941877433198567,-0.07040931807565999,1.3659170668605805,-1.3429554349951907
1.7637165363277512,16.697961149766396,-0.06908977588820275,1.3442638601635433,-1.2998496736965426
1.7513978904534242,16.45791097397085,-0.06778406715987519,1.3229603153425002,-1.2584521668488424
1.739312952417891,16.2216649729187,-0.0664930221238281,1.30199525190362,-1.2186766259004942
1.7274590197181645,15.989163185858445,-0.06521734120646445,1.2813579376547677,-1.180441937737114
1.7158332742267968,15.760347545557053,-0.06395760869762399,1.2610380656940139,-1.143671803965301
1.7044328019909505,15.535161803691622,-0.06271430503400019,1.2410257328107934,-1.1082944087318276
1.6932546109322435,15.313551460010856,-0.061487817840520126,1.2213114191977026,-1.074242112555481
1.6822956466593273,15.095463695038916,-0.06027845185855117,1.2018859693794077,-1.0414511698949713
1.6715528065832381,14.880847306110216,-0.05908643787577205,1.1827405742728216,-1.0098614683962464
1.6610229525060067,14.66965264653869,-0.05791194076013207,1.163866754299666,-0.9794162879592585
1.6507029218355556,14.46183156773862,-0.056755066689326,1.1452563434788663,-0.9500620779403676
1.6405895375643447,14.257337364126645,-0.05561586965746122,1.1269014744319676,-0.9217482509644744
1.6306796171352986,14.056124720646167,-0.05449435733193971,1.1087945642399928,-0.8944269919627057
1.6209699803060942,13.858149662766024,-0.05339049632588892,1.0909283010949284,-0.8680530811788074
1.6114574561117465,13.663369508815077,-0.052304216944640054,1.0732956316933742,-0.8425837300019456
1.6021388890154489,13.471742824523524,-0.051235417458668296,1.0558897493238575,-0.8179784285867427
1.5930111443286694,13.283229379650113,-0.05018396794999125,1.0387040826029486,-0.7941988043143337
1.584071112973493,13.09779010658217,-0.04914971377419138,1.0217322848186299,-0.7712084902320998
1.575315715652983,12.915387060802676,-0.048132478675919195,1.0049682238424213,-0.7489730026854846
1.5667419064888806,12.735983383125149,-0.04713206759188604,0.9884059725745484,-0.727459627423775
1.5583551988875208,12.559774616426907,-0.046053572423223145,0.9694692129614617,-0.7578045505727871
1.5501578262216031,12.386964903452906,-0.045028346086973356,0.9506387089718676,-0.7894885106003209
1.5421403612465536,12.217535357381767,-0.044054598080242625,0.931911802929686,-0.8224004611039114
1.5342936996155485,12.051467559842425,-0.043130531153146884,0.91328594750742,-0.8564310591288338
1.5266090608641474,11.888743541303793,-0.04225434386242212,0.8947587029218496,-0.8914724186293546
1.519077988963804,11.72934576193293,-0.04142423280806155,0.8763277345321683,-0.92741786598656
1.5116923524996064,11.573257092849389,-0.040638394571908217,0.8579908108404924,-0.9641616965038907
1.5044443445244156,11.420460797702937,-0.03989502737465841,0.8397458018978509,-1.0015989307846451
1.497326482138818,11.270940514501142,-0.03919233246531452,0.8215906781221144,-1.0396250698702716
1.4903316058440128,11.124680237611742,-0.03852851525474402,0.8035235095378965,-1.0781358479838865
1.4834528787128491,10.981664299862622,-0.03790178620263066,0.7855424654523034,-1.1170269816796647
1.4766837854227874,10.841877354659303,-0.0373103614647219,0.7676458145845886,-1.1561939141450346
1.4700181311935254,10.70530435803618,-0.03675246330485765,0.7498319256723407,-1.1955315533383406
1.4634500406714475,10.5719305505533,-0.03622632027378429,0.7320992685818791,-1.2349340025691693
1.4569739568029303,10.44174143894488,-0.03573016715418533,0.7144464159561281,-1.2742942820411074
1.4505846397388735,10.314722777419274,-0.03526224466866735,0.6968720454394907,-1.3135040397765751
1.4442771658136802,10.190860548502357,-0.034820798944592786,0.679374942526246,-1.3524532502297606
1.4380469266432714,10.070140943307177,-0.03440408072661441,0.661954004086882,-1.3910298987658511
1.4318896283886713,9.952550341102146,-0.034010344324500286,0.6446082426356744,-1.4291196500420655
1.4258012912342393,9.838075288037775,-0.0336378462802982,0.6273367914129058,-1.46660549816801
1.41977824913286,9.726702474877623,-0.03328484373502617,0.6101389103665475,-1.503367396349494
1.4138171498743326,9.618418713562825,-0.03294959247083519,0.593013993131207,-1.5392818635315662
1.4079149555379655,9.513210912420497,-0.03263034459990913,0.5759615751168846,-1.5742215653543654
1.402068943396018,9.411066049804663,-0.03232534586617374,0.5589813428368304,-1.6080548665218437
1.3962767073412536,9.311971145933299,-0.03203283252009866,0.5420731446227756,-1.6406453514625876
1.3905361599196089,9.21591323265649,-0.03175102772039818,0.5252370028973056,-1.6718513099404841
1.3848455350579492,9.122879320857969,-0.031478137409153964,0.5084731281973716,-1.7015251840610035
1.379203391587246,9.032856365154895,-0.031212345598659288,0.4917819351701122,-1.729512972931689
1.373608617673461,8.945831225518269,-0.030951808998951405,0.4751640607924133,-1.7556535910955342
1.3680604362821642,8.861790625388046,-0.03069465090434502,0.4586203850989473,-1.7797781767960448
1.3625584118187204,8.78072110580258,-0.030438954245031413,0.44215205473956615,-1.801709346200177
1.3571024581040634,8.70260897500075,-0.030182753695601597,0.4257605097252222,-1.8212603899678426
1.3516928478670471,8.627440252887006,-0.02992402671569066,0.40944751376081634,-1.8382344091112401
1.3463302239586035,8.555200609674415,-0.029660683378127037,0.3932151886013013,-1.8524233880722547
1.3410156125211319,8.485875297939266,-0.029390554816000867,0.37706605290033685,-1.8636072045587337
1.33575043837955,8.419449077234376,-0.029111380090463438,0.3610030660428817,-1.8715525782014995
1.3305365429594822,8.35590613031956,-0.028820791243622846,0.3450296774550516,-1.8760119639239026
1.3253762050848543,8.295229969981925,-0.02851629625224143,0.3291498818520274,-1.876722401625643
1.3202721650641938,8.237403335343615,-0.02819525953287562,0.3133682807958514,-1.8734043421877333
1.3152276525458768,8.182408076503911,-0.027854879559533925,0.2976901507564154,-1.8657604820703857
1.3102464187129865,8.13022502635625,-0.027492163028135588,0.2821215175509193,-1.8534746565639646
1.3053327735068463,8.08083385849121,-0.027103894817867312,0.26666923650506447,-1.8362108674398683
1.300491628727914,8.034212930291694,-0.026686602725824373,0.251341076822901,-1.8136125577149693
1.2957285480842935,7.990339110719766,-0.026236515536626155,0.23614580730965268,-1.7853022992813097
1.2910498055744688,7.9491875929943205,-0.02574951235031491,0.22109327852861435,-1.7508821349881258
1.2864624540542473,7.910731693524649,-0.025221060096590708,0.2061944933566017,-1.7099349246894506
1.2819744065318477,7.874942640327848,-0.02464613459673961,0.19146165327452258,-1.6620271972812113
1.2775945337935013,7.841789357043815,-0.024019118051554048,0.17690816099250806,-1.606714223842404
1.2733327835994213,7.81123825301345,-0.02333366188266808,0.16254855045600805,-1.543548319280607
1.2692003292492995,7.78325303626967,-0.022582497563128908,0.1483983022526381,-1.472091768547196
1.2652097593413423,7.757794575345724,-0.021757168080839093,0.13447348579120036,-1.3919362627467142
1.2613753268916565,7.734820848048933,-0.020847636915668245,0.1207901508397989,-1.3027312837425895
1.2577132859558444,7.714287030662717,-0.01984170681557742,0.10736337567369915,-1.2042243554009269
1.254242359491036,7.696145797491617,-0.018724142793406163,0.09420588178296194,-1.0963161281349896
1.250984406404479,7.680347912108157,-0.017475335946115552,0.08132617803326112,-0.9791321040608737
1.2479653932733257,7.666843183462163,-0.01606925440003275,0.06872636247777798,-0.8531089991425311
1.2452168360369897,7.6555818026979985,-0.014470270448143982,0.05640009045737877,-0.7190851366829184
1.2427779823082685,7.646515918637569,-0.012628104315423966,0.04433195465848986,-0.5783690389978927
1.2406992347497487,7.6396009692270646,-0.010469090779240176,0.03250081656933401,-0.4327403379371139
1.2390479859470471,7.634795593712248,-0.00787811813966736,0.020892244706404724,-0.28432275689031383
1.2379207173256628,7.632057121575105,-0.0046470887646042885,0.009535223484062064,-0.13527877358036916
1.2374835827462718,7.631318677730967,-0.0002099621175182852,-0.0013302918825404634,0.012582289909928851
