x,y,v_x,v_y,omega
2.375,32.48,0.0,2.717948717948718,-5.673469387755102
2.3741017915331266,31.995708490940896,-0.009980094076370651,2.663068049374616,-5.3767701307980404
2.371517723262336,31.521131426565677,-0.01873177559908034,2.6100104436833633,-5.102806661264506
2.367456054774993,31.055949923625086,-0.026397874260285503,2.5586729223232303,-4.849275620828168
2.3621009697257227,30.599862880645034,-0.03310307073160753,2.5089608885662202,-4.614153664683251
2.355615610762693,30.152585554051765,-0.03895647330205341,2.460787184692345,-4.395658160817566
2.34814468760019,29.71384829159442,-0.04405378405909102,2.414071287055929,-4.192214146262743
2.339816725508197,29.28339540045247,-0.048479128074169694,2.3687386145213067,-4.002426421798363
2.3307460095945163,28.860984131376668,-0.0523066043000606,2.3247199307653537,-3.825055889415451
2.3210342707177634,28.44638376337398,-0.05560160544163578,2.281950824820053,-3.658999410568557
2.310772151168676,28.039374775987866,-0.058421945103782166,2.2403712572479173,-3.5032725997353062
2.3000404819986624,27.63974809828148,-0.060818823451924575,2.1999251617119078,-3.3569950758095044
2.288911398757874,27.247304425305927,-0.06283765700127956,2.1605600935720415,-3.219377779893846
2.2774493181990554,26.86185359420797,-0.06451879365225872,2.1222269186274363,-3.0897120370253632
2.2657117950285346,26.483214013263492,-0.06589813046463872,2.084879536311247,-2.967360094969356
2.2537502749014653,26.111212138061283,-0.06700764872501953,2.048474632602182,-2.8517469182882142
2.2416107574541426,25.745681989844982,-0.06787587846745374,2.0129714586900245,-2.742353052610126
2.2293343811539823,25.386464711677288,-0.06852830264544152,1.9783316320621576,-2.638708404078853
2.2169579400573967,25.033408158644303,-0.06898770953884267,1.9445189571932247,-2.540386803677928
2.204514341140905,24.686366518786976,-0.06927450064439954,1.9114992634437704,-2.44700124652608
2.192033009665766,24.34519996184587,-0.06940696019047837,1.8792402581240544,-2.3581997131531622
2.1795402490142286,24.009774313247373,-0.06940149149326892,1.847711392970357,-2.2736614938368938
2.1670595605658813,23.67996075105286,-0.06927282459947917,1.8168837425242177,-2.1930939488290258
2.1546119284407936,23.35563552384587,-0.06903419901260459,1.7867298931090079,-2.1162296471413047
2.1422160733017606,23.036679687751743,-0.06869752475442738,1.7572238412701653,-2.0428238348324506
2.1298886788641,22.722978860975246,-0.0682735245529171,1.7283409006909534,-1.9726521907090524
2.117644594294132,22.41442299440832,-0.06777185955783611,1.700057616719352,-1.9055088332468204
2.1054970152750316,22.11090615700632,-0.06720124065439188,1.672351687747321,-1.8412045475345085
2.0934576461714114,21.812326334759376,-0.06656952716361025,1.645201892774224,-1.7795652052889035
2.0815368454236833,21.51858524219893,-0.06588381447780971,1.6185880245640973,-1.7204303546072364
2.0697437560430125,21.229588145479525,-0.06515051197408796,1.5924908278737244,-1.6636519592136143
2.058086422851806,20.94524369616508,-0.0643754123726549,1.5668919422867713,-1.6090932696017206
2.0465718979182594,20.665463774927677,-0.06356375355563867,1.5417738492399327,-1.5566278107461529
2.035206335462383,20.390163344437667,-0.06272027373187905,1.5171198228712592,-1.506138473006887
2.0239950773616195,20.1192603107869,-0.06184926072104469,1.4929138843595378,-1.457516694533526
2.0129473834849994,19.85267880747064,-0.060902893463624805,1.4691028191544648,-1.4084811332744338
2.0020706913884316,19.59034548008679,-0.05994924094268166,1.4457119295549339,-1.3615193491747821
1.9913660970687104,19.332185965269137,-0.05899069594311283,1.4227271239745658,-1.3165203193965
1.980834289316996,19.078128382010348,-0.05802939018704752,1.4001349122342124,-1.2733800876512233
1.9704755943803334,18.828103226347935,-0.05706722022031533,1.3779223729037002,-1.2320012422080666
1.9602900161998393,18.582043271737135,-0.0561058706740632,1.3560771227718467,-1.1922924376533146
1.9502772726728121,18.33988347474234,-0.05514683518179411,1.3345872882814263,-1.1541679563046527
1.9404368283384241,18.10156088570679,-0.054191435200295256,1.31344147878024,-1.1175473056061282
1.9307679238444508,17.86701456408585,-0.053240836954963636,1.2926287614524625,-1.0823548482057277
1.9212696025150158,17.63618549815257,-0.05229606670542562,1.272138637806154,-1.04851946175114
1.9119407343060182,17.409016528805715,-0.05135802450565879,1.2519610216033947,-1.015974225736045
1.902780037405277,17.185452277229793,-0.05042749661368883,1.2320862181290393,-0.9846561329935637
1.8937860977080319,16.96543907617494,-0.049505166689032466,1.2125049047027205,-0.9545058236691749
1.884957386374919,16.748924904640504,-0.04859162590111177,1.1932081123465446,-0.9254673397158157
1.8762922756585416,16.53585932576179,-0.04768738205863568,1.1741872085280085,-0.89748789814197
1.8677890531660246,16.3261934277129,-0.046792867858221454,1.1554338809041098,-0.8705176814118839
1.859445934708173,16.11987976745167,-0.04590844834013027,1.1369401219984625,-0.8445096435478763
1.851261075870883,15.916872317144438,-0.04503442762975849,1.1186982147485691,-0.8194193306200142
1.8432325824310258,15.717126413119196,-0.044171055035320594,1.1007007188652465,-0.7952047144299241
1.8353585197270097,15.520598707205767,-0.04331853056486016,1.0829404579506359,-0.7718260383047472
1.827636921083442,15.327247120330934,-0.04247700991922594,1.0654105073252758,-0.7492456740155502
1.8200657953796444,15.137030798245004,-0.041646609011857766,1.0481041825184112,-0.7274279889230716
1.8126431338430815,14.949910069264227,-0.04082740806106042,1.0310150283791064,-0.7063392225335507
1.8053669161409613,14.765846403920914,-0.04001945529583151,1.0141368087688285,-0.6859473717194909
1.7982351158362397,14.584802376419809,-0.03922277031218798,0.9974634967990161,-0.6662220839253576
1.791251890163804,14.406967108433953,-0.03836862604821051,0.9784839252660625,-0.6968510880926482
1.7844182245795195,14.232538526343166,-0.03756099155495057,0.9596114312982248,-0.7288418070664864
1.7777258780705303,14.06149759871218,-0.03679841410048452,0.9408433201571654,-0.7620844955893673
1.7711668731014,13.89382576928405,-0.03607941888984829,0.9221770068220415,-0.796471122066334
1.764733499281895,13.729504937491097,-0.03540251243798854,0.9036100130996453,-0.8318951287796883
1.75841831646016,13.56851743945088,-0.03476618558128963,0.8851399651249964,-0.8682511941058791
1.752214157304407,13.41084602937698,-0.03416891614929845,0.8667645912516648,-0.9054349957020486
1.7461141294325624,13.25647386133426,-0.033609171315642956,0.8484817203341183,-0.9433429736123654
1.740111617146142,13.10538447126751,-0.03308540964458249,0.8302892804075641,-0.9818720922187143
1.7342002828218892,12.957561759231154,-0.03259608284711513,0.8121852977741434,-1.0209195999261442
1.728374068012422,12.812989971745765,-0.032139637258077294,0.7941678965079706,-1.0603827854302323
1.7226271943053089,12.671653684204454,-0.031714515043177814,0.7762352983954682,-1.1001587293606296
1.716954163988608,12.533537783249002,-0.0313191551423889,0.7583858233317662,-1.1401440500318798
1.7113497605699743,12.39862744903126,-0.030951993953541628,0.7406178901987082,-1.1802346419584249
1.705809049195997,12.266908137270399,-0.030611465757316575,0.722930018255294,-1.2203254057047421
1.700327377018454,12.138365561010467,-0.030296002882049086,0.7053208290772967,-1.2603099675429446
1.694900373554723,12.012985671975464,-0.030004035603850784,0.6877890490894134,-1.3000803872780407
1.6895239510906763,11.890754641410748,-0.029733991774447355,0.6703335127407719,-1.3395268524744939
1.6841943051760533,11.771658840289604,-0.029484296165807337,0.6529531663830416,-1.378537357175906
1.6789079152645967,11.655684818752334,-0.029253369517043038,0.6356470729199563,-1.416997363051831
1.6736615455541992,11.542819284631825,-0.029039627265153033,0.6184144173079054,-1.4547894407314155
1.6684522460860152,11.433049080904151,-0.028841477936890514,0.6012545129995952,-1.4917928888926113
1.6632773541660062,11.326361161884872,-0.028657321174320113,0.5841668094368383,-1.5278833284685964
1.6581344961777917,11.222742567971249,-0.028485545361396594,0.5671509007145311,-1.562932269111135
1.6530215898620888,11.122180398706892,-0.02832452481308049,0.5502065355561001,-1.5968066448166585
1.6479368471455311,11.024661783918319,-0.028172616482004188,0.5333336287613959,-1.6293683153795626
1.6428787776104143,10.930173852641758,-0.028028156130407423,0.516532274311485,-1.6604735300961937
1.6378461927070616,10.838703699523009,-0.02788945390684308,0.4998027603412863,-1.6899723499139843
1.6328382108222388,10.750238348332427,-0.027754789257856304,0.4831455862207527,-1.7177080240208422
1.6278542633305475,10.664764712190902,-0.027622405094268228,0.46656148201842956,-1.7435163167262877
1.6228941017712986,10.58226955005005,-0.027490501119607356,0.4500514306576953,-1.7672247804360737
1.617957806311246,10.502739418910465,-0.027357226214310516,0.43361669311547796,-1.788651970621286
1.6130457956741755,10.426160621195127,-0.027220669753140858,0.41725883705494665,-1.8076065990106682
1.608158838742109,10.352519146620835,-0.02707885171426464,0.40097976932607443,-1.823886621905177
1.6032980680604054,10.281800607828735,-0.026929711415775978,0.38478177280836207,-1.8372782616898993
1.5984649955110675,10.213990168946626,-0.026771094687978204,0.36866754810394525,-1.8475549615341242
1.593661530456139,10.149072466162409,-0.02660073925567243,0.352640260609605,-1.8544762762599676
1.5888900006976,10.087031519293301,-0.026416258061426813,0.3367035934915768,-1.8577867069020892
1.5841531766536892,10.027850633245457,-0.02621512020425096,0.32086180704002987,-1.8572144932614103
1.5794542992170286,9.971512288183106,-0.025994629091977164,0.3051198047638681,-1.8524703887573994
1.574797111841746,9.917998017181922,-0.025751897300049523,0.2894832063603816,-1.843246456516841
1.5701858975116645,9.86728827015277,-0.02548381747863538,0.2739584272968658,-1.8292149469253616
1.565625521379986,9.819362262928788,-0.025187028428904582,0.2585527640807133,-1.8100273477107098
1.5611214800589974,9.774197810670444,-0.024857875137632796,0.24327448323421746,-1.7853137421656164
1.5566799588019462,9.73177114524967,-0.024492361051827564,0.22813291032994723,-1.7546826752336178
1.552307898199517,9.69205671715969,-0.024086090086272837,0.21313851289203106,-1.7177218191315633
1.5480130725763734,9.655026983958798,-0.0236341946153219,0.19830296711789772,-1.6739998613450149
1.5438041831255052,9.620652189578319,-0.02313124372765898,0.183639192665202,-1.6230702233682572
1.539690970131842,9.588900142406452,-0.022571122868600305,0.1691613314666604,-1.5644774774724606
1.5356843506895879,9.559736005434885,-0.021946870934224046,0.15488463488408757,-1.4977676820526542
1.5317965915568434,9.533122119586068,-0.02125045276293435,0.1408252078805628,-1.4225043198547254
1.5280415319288412,9.509017892313977,-0.02047243199264586,0.12699953958712124,-1.338292090585605
1.5244348790691837,9.487379798083484,-0.01960148867021435,0.1134237296405742,-1.2448114070738374
1.5209946126527396,9.468161554666874,-0.018623693734720805,0.10011230832175781,-1.141866842954738
1.5177415539914492,9.451314555735511,-0.017521402501840238,0.08707656869340702,-1.0294524242400618
1.5147001881174678,9.436788645961084,-0.01627155165351038,0.07432242880021475,-0.9078344021650967
1.5118998769319334,9.424533297494584,-0.014843017074647113,0.06184810971645883,-0.7776460158708918
1.509376685490821,9.414499143799322,-0.013192443382156303,0.04964248689757465,-0.6399762607706452
1.5071762066134098,9.406639577391768,-0.011257321922415998,0.03768602874190222,-0.49641496517946304
1.5053581816514776,9.400911600841663,-0.008942955432383368,0.025958155148143695,-0.3489954271230805
1.504005136390441,9.397273966926079,-0.006090880801359279,0.014459999469444986,-0.1999702070087051
1.5032445164075383,9.395676228726295,-0.002360452342002914,0.003292647194836306,-0.05139530224406316
