x,y,v_x,v_y,omega
2.375,32.48,0.0,4.0,-7.26530612244898
2.37321545506649,31.769565001201446,-0.01982827703900185,3.8937222088727728,-6.728905481430597
2.368162061038146,31.077797396253242,-0.03632054549815451,3.792584512773951,-6.252433001035005
2.3603914797870096,30.40380801731173,-0.05001924618113685,3.6961863643539923,-5.827276714870541
2.3503663608289687,29.746775795448706,-0.061370964463763306,3.604171656346234,-5.446285229276009
2.3384759114920795,29.105940365866577,-0.07074513927944963,3.5162220056774327,-5.103485383849201
2.325048463152804,28.48059576399657,-0.07844873115694216,3.432051348433783,-4.793861046265313
2.3103616740044948,27.87008500446462,-0.08473781493538465,3.3514015352545066,-4.513178366013902
2.294650857958413,27.273795383190766,-0.0898268077988552,3.2740387011216483,-4.257846688838987
2.2781158176352703,26.691154378258364,-0.09389586245828628,3.199750242571706,-4.024807090757849
2.260926475760242,26.121626051472237,-0.09709682504203197,3.128342277274158,-3.811442478980549
2.243227535919237,25.564707872319953,-0.09955806208024076,3.0596374910845436,-3.6155046594177143
2.2251423551816862,25.019927901152293,-0.1013883905592157,2.9934732996672695,-3.4350548434491297
2.206776173719378,24.486842280061076,-0.10268029235531882,2.92970026801288,-3.268414867558018
2.1882188174959576,23.965032989043056,-0.10351255457157313,2.8681807432984745,-3.1141270029316312
2.1695469673566468,23.45410583223305,-0.10395244697632906,2.8087876657015802,-2.970920690772033
2.1508260699286215,22.95368862472992,-0.1040575244461732,2.7514035287776215,-2.837684890371633
2.1321119515427043,22.463429555162506,-0.10387712428624067,2.695919466415924,-2.7134449980624935
2.113452185073868,21.982995702900663,-0.10345361425638394,2.642234447604532,-2.5973435056900316
2.0948872505396214,21.512071691896452,-0.10282343612413362,2.590254563553397,-2.4886237318248163
2.076451523008367,21.050358465683978,-0.10201798088980735,2.539892394362982,-2.3866160883043306
2.0581741154822595,20.597572170182787,-0.10106432495582582,2.4910664445391335,-2.2907264469709485
2.040079599642598,20.153443132721595,-0.09998585104041173,2.443700638362968,-2.200426252738564
2.0221886234555786,19.71771492719258,-0.09880277325980627,2.3977238675149684,-2.115244094008593
2.0045184414562325,19.290143516511893,-0.09753258228848767,2.353069584492672,-2.034758493506586
1.987083370919731,18.870496464640322,-0.09619042367263693,2.3096754363025567,-1.958591724546595
1.9698951849821935,18.458552211341114,-0.09478942007778023,2.267482933688616,-1.886404491658531
1.9529634520003167,18.054099403645928,-0.09334094638751843,2.2264371518134913,-1.8178913420727267
1.9362958289708891,17.656936278685585,-0.09185486505056521,2.1864864588569723,-1.7527766970269425
1.9198983156116172,17.26687009313703,-0.090339727830234,2.147582269460307,-1.690811410250557
1.903775474688755,16.88371659505517,-0.08880294909045819,2.109678820338166,-1.631769776082945
1.8879306233284592,16.50729953431034,-0.08725095491282799,2.07273296571547,-1.5754469221276404
1.8723659993381618,16.137450208247948,-0.08568931164602946,2.0367039905333275,-1.5216565316319215
1.8570829059676428,15.774007039534599,-0.08412283691529585,2.001553439615011,-1.470228849313398
1.842081838037379,15.41681518346164,-0.08255569564319197,1.9672449611956544,-1.421008931452255
1.8273625919381933,15.065726162247717,-0.08099148323664666,1.9337441634034847,-1.3738551069886629
1.8129243616481001,14.720597524121779,-0.07943329776438987,1.9010184824402923,-1.3286376213184656
1.7987658226087988,14.381292525180825,-0.07788380267229046,1.8690370613480807,-1.2852374386360381
1.784885205046601,14.047679832206157,-0.07634528135213003,1.837770638370468,-1.2435451821689487
1.7712803581033119,13.71963324479066,-0.07481968468441687,1.8071914440239243,-1.2034601945972347
1.7579488059556643,13.397031435280635,-0.07330867251166637,1.7772731060874665,-1.164889703442703
1.7448877969422143,13.079757705170607,-0.07181364985999848,1.747990561801749,-1.1277480783262666
1.7320943465799423,12.767699756710748,-0.07033579860969073,1.7193199766411231,-1.0919561687861057
1.7195652752356319,12.460749478595265,-0.0688761052159824,1.691238669086449,-1.0574407128777332
1.707297241116458,12.158802744697983,-0.06743538499706009,1.6637250408833444,-1.0241338080813447
1.695286769157629,11.861759224909587,-0.06601430343437134,1.636758512321062,-0.9919724371574297
1.6835302763103055,11.5695222072106,-0.06461339486922153,1.6103194621121129,-0.960898042547824
1.6720240936686142,11.281998430186157,-0.06323307892735092,1.5843891714927938,-0.930856143740701
1.660764485818889,10.99909792525376,-0.0618736749584821,1.5589497722005057,-0.9017959927248806
1.6497476677460692,10.7207338679343,-0.060535414739515264,1.5339841980157094,-0.8736702632684294
1.6389698195903684,10.446822437550239,-0.05921845365716051,1.509476139584979,-0.8464347702832458
1.6284270995110472,10.177282684783535,-0.05792288055751963,1.485410002267281,-0.8200482159932951
1.6181224473644957,9.912038213872279,-0.05657325440416339,1.4617507856355731,-0.7925815117071627
1.6080578488402781,9.651015152089961,-0.05525561808714191,1.4385054563901958,-0.7662654310448547
1.5982276022713071,9.394140237368315,-0.05396934379031589,1.4156602627392159,-0.7410389266354741
1.588626120844473,9.141342630940695,-0.05271378317450616,1.3932020309010196,-0.7168448021795102
1.5792479358165044,8.892553816065238,-0.05148827269181293,1.3711181343818384,-0.6936294305311357
1.5700876988379002,8.647707502103383,-0.050292138181565464,1.349396465194317,-0.6713424951887196
1.561140183506243,8.406739533617195,-0.04912469883684839,1.3280254068744441,-0.6499367530240614
1.5524002862551733,8.169587804173545,-0.047985270619481685,1.306993809166098,-0.6293678163024397
1.543863026672168,7.9361921745658,-0.0468731691916864,1.2862909642532874,-0.6095939522424668
1.5355235473267332,7.706494395184308,-0.04578771242425602,1.265906584429971,-0.5905758985399312
1.5273771131805165,7.480438032286045,-0.04472822253370948,1.2458307811062577,-0.5722766934358706
1.519419110641979,7.257968397931272,-0.04369402789448522,1.226054045057891,-0.554661519048328
1.5116450463204791,7.0390324833710665,-0.042684464566623746,1.206567227833298,-0.5376975568115465
1.5040505455277802,6.823578895684541,-0.041698877574474595,1.1873615242391997,-0.5213538539775084
1.496631350568988,6.611557797478142,-0.04073662196766094,1.1684284558319125,-0.5056012002341996
1.48938331885964,6.402920849472032,-0.03979706369176364,1.1497598553470647,-0.49041201358413894
1.4823024209010223,6.197621155810296,-0.038879580292877525,1.131347852005568,-0.47576023470668
1.4753847381417073,5.9956132119423415,-0.03798356147728809,1.113184857638358,-0.4616212290994231
1.4686264607497046,5.796852854932986,-0.03710840954496504,1.0952635535767083,-0.44797169635864575
1.4620238853164584,5.601297216067788,-0.03625353971332608,1.0775768782588404,-0.4347895860167745
1.4555734125111415,5.408904675628847,-0.03541838034575159,1.0601180155071597,-0.4220540194072751
1.4492715447012403,5.219634819724163,-0.03460237309759456,1.0428803834337488,-0.40974521707455197
1.4431148835532757,5.033448399060994,-0.033804972990901454,1.0258576239347912,-0.3978444312890639
1.4371001276256004,4.850307289560497,-0.033025648427713133,1.0090435927373873,-0.38633388326637375
1.4312240699635497,4.670174454717301,-0.03226388115062785,0.9924323499647996,-0.3751967047236751
1.4254904435729672,4.4932357726120244,-0.031443078744734294,0.973553006760511,-0.413654053180508
1.4198998223052621,4.319686158566011,-0.030674935340876664,0.9547760381951926,-0.45328255424319386
1.4144428927833914,4.149507413173755,-0.029957614902131568,0.9360989106076483,-0.49397984146985274
1.4091106718325574,3.9826817840927973,-0.029289284551578997,0.9175191902918877,-0.5356449663383813
1.403894505742496,3.8191919482719,-0.028668116449102627,0.8990345410514231,-0.5781781716590014
1.3987860692164409,3.6590209945871024,-0.028092289395955736,0.8806427221129938,-0.6214806660235833
1.3937773640543734,3.5021524068208407,-0.027559990182570816,0.8623415864010101,-0.6654543982823116
1.3888607176155934,3.3485700469188266,-0.027069414692763298,0.844129079176938,-0.7100018310134442
1.384028781103478,3.1982581384583177,-0.026618768775185007,0.8260032370509582,-0.7550257119185049
1.3792745277135574,3.0512012502598402,-0.026206268890597878,0.8079621873765844,-0.800428842032724
1.3745912506846922,2.907384280072119,-0.025830142541239526,0.7900041480425564,-0.8461138395882639
1.3699725612922213,2.7667924382570632,-0.02548862848621419,0.7721274276803002,-0.8919828983050069
1.3654123868214625,2.6294112313979703,-0.025179976744438556,0.7543304263096372,-0.9379375388095993
1.3609049685598875,2.4952264457495765,-0.024902448384173406,0.7366116364502974,-0.9838783517970847
1.3564448598467127,2.364224130443148,-0.024654315095547594,0.7189696447322432,-1.029704731449759
1.3520269242195408,2.236390580353291,-0.024433858539696443,0.7014031340439395,-1.0753145975136769
1.3476463336991042,2.1117123185255195,-0.02423936946515481,0.6839108862646236,-1.120604104303275
1.3432985672551372,1.9901760780545992,-0.02406914657892415,0.6664917856344803,-1.1654673347575073
1.3389794094989826,1.871768783293195,-0.023921495156126685,0.6491448228255544,-1.2097959775053606
1.3346849496517827,1.7564775302581168,-0.023794725368316557,0.6318690997864264,-1.253478984713281
1.330411580841069,1.6442895660872594,-0.023687150306279416,0.6146638354453303,-1.2964022082806466
1.3261559997833432,1.535192267383902,-0.023597083668452878,0.5975283723697485,-1.3384480117210011
1.3219152069159044,1.429173117266,-0.02352283708086631,0.5804621844958325,-1.379494854815752
1.3176865070478483,1.326219680916104,-0.023462717008645294,0.5634648860585858,-1.4194168478536204
1.31346751060794,1.2263195794021797,-0.023415021212557216,0.546536241873922,-1.458083271974666
1.3092561355761088,1.129460461510309,-0.023378034696679165,0.5296761791468633,-1.495358061825263
1.305050610195765,1.0356299732964942,-0.02335002508491857,0.5128848010066498,-1.5310992464057487
1.3008494765762029,0.9448157250259115,-0.023329237354660918,0.4961624019998106,-1.5651583436651695
1.2966515953082263,0.857005255123326,-0.023313887845078107,0.4795094858066828,-1.5973797040829611
1.292456151232084,0.7721859907070012,-0.023302157445390173,0.4629267854858122,-1.6275997981990296
1.288262660515106,0.6903452042197884,-0.023292183854366377,0.44641528659433255,-1.6556464428471018
1.2840709792174512,0.6114699656040266,-0.02328205278624224,0.4299762535807946,-1.681337960764166
1.2798813135485272,0.5355470893907928,-0.023269787979579692,0.4136112598995627,-1.7044822683690728
1.2756942320444213,0.4625630759881787,-0.02325333984381937,0.39732222235171033,-1.724875886939701
1.271510679928748,0.3925040463572529,-0.023230572552550725,0.38111144021409277,-1.7423028733363417
1.2673319959564666,0.32535566915850467,-0.023199249361687803,0.3649816397719671,-1.7565336680603363
1.263159932083539,0.2611030793367348,-0.023157015893063033,0.3489360249143991,-1.7673238611520259
1.2589966763562481,0.1997307869917151,-0.02310138107683454,0.3329783344746792,-1.7744128807300596
1.2548448794746356,0.1412225752605849,-0.023029695385525906,0.3171129069823515,-1.777522615595636
1.250707685557843,0.0855613858251516,-0.022939125912170732,0.30134475341134015,-1.776355993348142
1.2465887677296097,0.032729190569639854,-0.02282662773486601,0.2856796383165739,-1.7705955504531161
1.242492369256625,-0.017293152123265543,-0.022688910853853196,0.27012416938234496,-1.7599020529584153
1.2384233511214948,-0.06452605789576893,-0.022522401758704253,0.2546858947565928,-1.743913259405758
1.23438724711269,-0.1089913950052761,-0.02232319833912642,0.2393734064601527,-1.722242965785637
1.230390327793176,-0.150712681763018,-0.022087016322139937,0.2241964464036627,-1.6944805431645031
1.226439675111712,-0.18971530272848014,-0.021809124583016974,0.20916600876815467,-1.6601912819737188
1.2225432700185102,-0.22602674205561613,-0.021484265341448316,0.1942944281999865,-1.6189180071788598
1.2187100963595097,-0.2596768298983605,-0.021106553091890242,0.17959543671938502,-1.5701846453199386
1.2149502657484843,-0.29069799382681794,-0.020669342586169537,0.16508416248572705,-1.513502733505622
1.2112751703805151,-0.319125501100892,-0.020165050391265402,0.150777029448441,-1.4483822924343377
1.2076976743936554,-0.3449976685148357,-0.01958490501828747,0.13669149737316738,-1.374349068639475
1.2042323602925242,-0.3683560033778548,-0.01891858499428205,0.12284555666035582,-1.2909708896182026
1.2008958565510994,-0.38924522131308237,-0.018153678799327097,0.10925686484221037,-1.1978966947491887
1.1977072880952822,-0.40771306451469513,-0.017274859598641796,0.09594139295347101,-1.094912428745915
1.1946889165097787,-0.42380982216983654,-0.016262602462508397,0.08291146988147194,-0.9820176902168305
1.1918670771790327,-0.43758744582411424,-0.015091167879114303,0.07017323738824822,-0.8595242429867376
1.189273585994666,-0.4490981867289321,-0.013725400836071697,0.05772388377635709,-0.7281693896787902
1.1869479008903194,-0.4583928192412543,-0.012115544767777946,0.04554981080501874,-0.5892200979292841
1.1849405531743877,-0.46551885666450943,-0.010188318742574299,0.03362838278669028,-0.4445165016852576
1.183318990546549,-0.4705199007998715,-0.007829043788967094,0.021938774272901952,-0.29637543435914226
1.1821793942863734,-0.47343908086994446,-0.004833136879652684,0.010496559839014017,-0.1472716349443917
1.1816836597558833,-0.47433887641356876,-0.0006750245702386234,-0.0004988315765469056,0.0006790768928404411
