x,y,v_x,v_y,omega
2.375,32.48,0.0,2.4615384615384617,-4.326530612244898
2.373963713704472,31.92020329246714,-0.009011185178507724,2.4062589952689937,-4.068526635714555
2.370998919206418,31.372879456866258,-0.016769636543700266,2.353078705608221,-3.8332972406447796
2.3663746968893986,30.837560818122626,-0.02344099229994497,2.301865979119019,-3.6182116680734855
2.3603247704405557,30.313808629926818,-0.029167063776949838,2.252500874757579,-3.421000958148285
2.353052550277466,29.80121055213375,-0.03406963329339424,2.204873714747358,-3.239700933202491
2.3447353807509557,29.299378426863477,-0.038253579980607355,2.1588838962985157,-3.072605289143305
2.3355281305137274,28.807946307386246,-0.04180946556050795,2.1144388817643436,-2.9182268005653644
2.325566238392433,28.326568702541977,-0.04481568332031341,2.071453334272795,-2.775265079886614
2.3149683058647375,27.85491900620864,-0.04734025170312832,2.0298483729736234,-2.642579661564149
2.3038383104407076,27.392688086662076,-0.04944231720147695,1.9895509274312502,-2.5191674362855854
2.2922675008586597,26.93958301490317,-0.05117341829459382,1.9504931748201058,-2.404143656449894
2.280336024266768,26.49532591442076,-0.052578552069681934,1.9126120467660552,-2.2967258873976295
2.2681143268976443,26.05965291759935,-0.05369707722704476,1.8758487951592435,-2.196220399097042
2.25566436271491,25.632313216211674,-0.05456348088369011,1.8401486082118679,-2.102010588021558
2.2430406387812183,25.21306819526611,-0.0552080315831924,1.8054602695756505,-2.0135470945075142
2.23029112140473,24.801690640990245,-0.05565733690801104,1.7717358545623112,-1.9303393412877166
2.2174580232615186,24.39796401498846,-0.05593482085904515,1.7389304584966996,-1.8519482674463512
2.2045784885043247,24.00168178766292,-0.056061133551335234,1.7070019530297178,-1.7779800712528657
2.191685190226457,23.61264682487247,-0.056054503647514346,1.675910766887264,-1.7080808071488074
2.1788068524524733,23.23067082255317,-0.05593104221321284,1.6456196880631706,-1.6419317080892737
2.1659687069937448,22.855573784662123,-0.055705005253991705,1.6160936849024325,-1.5792451256562217
2.15319289397214,22.48718354035163,-0.055389021020832485,1.5872997438844574,-1.5197609977882132
2.14049881352643,22.125335296749718,-0.05499428720273453,1.5592067222191468,-1.4632437683394828
2.1279034351310417,21.769871224127904,-0.05453074232238093,1.5317852136227115,-1.4094796945690506
2.115421570040852,21.420640070588053,-0.054007214983617914,1.5050074258542545,-1.3582744885290914
2.103066111600473,21.077496803705632,-0.053431554063152836,1.4788470687754947,-1.3094512465401624
2.0908713347697656,20.740305990658744,-0.05260998359517178,1.45324695771919,-1.2576089896818288
2.0788676446865946,20.40893752954357,-0.05176993017153234,1.4282179215431652,-1.2084092992435371
2.0670587985247737,20.083262663115235,-0.05091568862691129,1.4037374387032675,-1.161683388020722
2.0554476260106527,19.76315768154481,-0.05005102888718484,1.3797841401699849,-1.117275292375803
2.0440361431872778,19.448503665876736,-0.04917925653346568,1.3563377352045627,-1.075040744644804
2.0328256530781204,19.139186247897904,-0.04830326615486035,1.333378942872247,-1.0348461578515642
2.021816834804647,18.835095385158773,-0.04742558839708042,1.3108894287723583,-0.9965677102562278
2.0110098225173267,18.53612515000023,-0.04654843149266277,1.2888517465192906,-0.9600905187909553
2.000404275330906,18.242173531541525,-0.04567371795447178,1.2672492835564326,-0.9253078917582152
1.9899994393082963,17.953142249675892,-0.04480311702474639,1.2460662109273328,-0.8921206523151084
1.9797942024100232,17.668936580202676,-0.0439380733950181,1.2252874366658701,-0.8604365252658247
1.9697871432153162,17.38946519029855,-0.04307983264591237,1.2048985625004074,-0.8301695805545986
1.9599765741241977,17.114639983597417,-0.04222946379859679,1.1848858435964176,-0.8012397276113004
1.950360579665543,16.84437595420867,-0.04138787932014008,1.1652361510883467,-0.7735722553662484
1.940937050462276,16.578591049058396,-0.04055585288218162,1.1459369371749188,-0.7470974133329112
1.931703713340284,16.31720603798738,-0.039734035135139706,1.1269762025730312,-0.7217500296679404
1.9226581580110338,16.060144391084904,-0.03892296772790528,1.1083424661441301,-0.6974691625668862
1.9137978607082118,15.807332162778096,-0.038123095774895706,1.0900247365237719,-0.6741977817491129
1.9051202051150904,15.558697882233844,-0.03733477894789749,1.0720124856001574,-0.6518824771338175
1.8966225008809687,15.314172449664209,-0.036558301348813126,1.0542956237010073,-0.6304731921166442
1.8883019999912611,15.073689038157152,-0.035793880300819265,1.0368644763603665,-0.6099229791283705
1.8801559112260613,14.837183000682696,-0.03504167417917886,1.0197097625479525,-0.5901877753979564
1.8721814129157535,14.604591781950514,-0.03430178938871605,1.0028225742536214,-0.5712261970557821
1.8643756641790645,14.375854834818568,-0.03357428658249162,0.9861943573285282,-0.5529993499024792
1.8567420400027737,14.151028111019162,-0.03280505408090579,0.9688206322315153,-0.5555416806906404
1.8492818788068053,13.930182288350487,-0.03206591284055977,0.9515778257569762,-0.5605914877448529
1.841988219542102,13.713287712646228,-0.03135721120033957,0.9344619629757156,-0.5680121639105397
1.8348540381775993,13.500315624692075,-0.030679148490986703,0.9174692366256239,-0.5776716344276275
1.827872280474741,13.291238122591867,-0.030031788055607588,0.9005959990283458,-0.589442031073979
1.8210358918877672,13.086028125922962,-0.02941506922242658,0.8838387546143104,-0.6031993802057011
1.8143378448216347,12.884659341544783,-0.0288288183091594,0.8671941530220124,-0.6188233033243131
1.8077711634619222,12.687106230932017,-0.02827275873181908,0.8506589827411744,-0.6361967288668499
1.801328946375022,12.493343978910392,-0.027746520284705402,0.8342301652729626,-0.6552056139715359
1.7950043870622183,12.303348463678862,-0.027249647652718624,0.8179047497838172,-0.6757386750191384
1.7887907926377835,12.117096228006961,-0.026781608211931176,0.8016799082327234,-0.697687125788824
1.7826816007889186,11.934564451500382,-0.0263417991695029,0.7855529309549263,-0.7209444220975482
1.7766703951641336,11.755730923831418,-0.025929554089495963,0.7695212226882218,-0.7454060118138642
1.7707509193264486,11.580574018833701,-0.025544148846896646,0.753582299031062,-0.7709690891505859
1.7649170893985184,11.409072669362772,-0.02518480704814744,0.7377337833248447,-0.797532352145977
1.759163005518421,11.241206342825482,-0.024850704952700236,0.7219734039559438,-0.8249957622399302
1.7534829622173145,11.076955017281772,-0.024540975926487334,0.7062989920763242,-0.853260304839746
1.7478714578234733,10.91629915802232,-0.024254714454740006,0.6907084797450189,-0.8822277497493218
1.7423232029912814,10.75921969452456,-0.023990979738232967,0.6751998984963664,-0.9118004103054278
1.7368331284486014,10.605697997687827,-0.023748798893766528,0.6597713783447803,-0.9418809000247881
1.7313963920515225,10.455715857245576,-0.023527169776484683,0.6444211472400004,-0.9723718855153267
1.7260083852318069,10.309255459248973,-0.023325063438435045,0.6291475309913275,-1.0031758343435013
1.7206647389194112,10.166299363511271,-0.023141426234571598,0.613948953684345,-1.034194756476366
1.7153613290202583,10.026830480896365,-0.022975181584149015,0.5988239386191776,-1.065329937831035
1.7100942815279874,9.890832050327525,-0.02282523139212028,0.5837711098055132,-1.0964816643646347
1.7048599773477493,9.758287615383388,-0.022690457131687686,0.5687891940565463,-1.1275489350236676
1.6996550569102695,9.629181000337727,-0.02256972058552773,0.5538770237318162,-1.1584291617419984
1.6944764246554067,9.503496285486978,-0.022461864239365373,0.5390335401877515,-1.1890178545304617
1.689321253466372,9.381217781594838,-0.022365711317460825,0.5242577980047752,-1.2192082895376029
1.6841869891386736,9.262330003266094,-0.022280065445133876,0.5095489700712567,-1.2488911577797162
1.6790713549718415,9.14681764104187,-0.022203709918622545,0.49490635361763197,-1.2779541920390638
1.6739723565771125,9.034665531985318,-0.022135406557280853,0.48032937730890735,-1.306281769212486
1.6688882870006878,8.925858628499906,-0.02207389410728201,0.46581760952076096,-1.3337544851602423
1.6638177322700063,8.820381965091475,-0.02201788615951284,0.451370767943875,-1.3602486988601097
1.6587595774798944,8.718220622749353,-0.021966068537112596,0.43698873068325333,-1.3856360424201821
1.6537130135466271,8.61935969058067,-0.021917096099994638,0.4226715490444248,-1.4097828932546497
1.6486775447711057,8.52378422428447,-0.021869588904538703,0.4084194622268788,-1.4325498044943146
1.6436529973677634,8.431479200998016,-0.021822127646266443,0.39423291417705475,-1.4537908895093363
1.6386395291337723,8.342429469985444,-0.021773248301480558,0.38011257288880135,-1.4733531562978388
1.633637640454022,8.256619698568226,-0.021721435870259716,0.36605935247831295,-1.4910757874879135
1.6286481868615836,8.174034312616918,-0.021665117107465725,0.352074438402614,-1.5067893618814263
1.6236723934015747,8.094657430833642,-0.021602652110004575,0.3381593162345622,-1.5203150139364594
1.6187118710791482,8.01847279195481,-0.02153232460674624,0.3243158044509209,-1.5314635284870266
1.6137686357106866,7.94546367389405,-0.02145233077118055,0.3105460917295907,-1.5400343695448637
1.6088451295423847,7.875612803727783,-0.021360766344489836,0.29685277928141074,-1.5458146445237324
1.6039442460539435,7.8089022573040445,-0.021255611815868745,0.28323892875110107,-1.548578009113189
1.5990693584294147,7.74531334713522,-0.021134715353946593,0.26970811619519613,-1.548083523945063
1.5942243522557935,7.684826497128636,-0.020995773112325016,0.25626449255770695,-1.5440744830677728
1.589413663107916,7.627421102633427,-0.02083630643443363,0.24291285087890066,-1.536277247413618
1.5846423198034474,7.573075374267283,-0.02065363534355494,0.22965870013104725,-1.5244001358599613
1.579915994276504,7.521766164078453,-0.0204448474994319,0.21650834498919652,-1.508132454970421
1.5752410592421402,7.473468772868234,-0.020206761495035957,0.20346896988227725,-1.4871437901409001
1.5706246551374994,7.428156738056586,-0.019935882893145643,0.19054872413204363,-1.4610837415442937
1.566074768278965,7.385801602484307,-0.01962835065932605,0.17775680258342275,-1.42958237634153
1.5616003228495634,7.346372666256553,-0.0192798704659064,0.16510351244051782,-1.3922517958344838
1.5572112903603126,7.309836726507378,-0.018885629440621818,0.15260031146536124,-1.3486893985106676
1.5529188218315548,7.276157814320239,-0.018440183852922735,0.1402597945097608,-1.2984836777270063
1.5487354104735633,7.245296944681552,-0.0179373062165705,0.12809559365274975,-1.2412237494982075
1.5446750966950396,7.217211905164888,-0.017369770118417546,0.1161221412747683,-1.1765142810524314
1.5407537337823805,7.191857122996122,-0.016729037817748434,0.10435422541015414,-1.1039980808922327
1.5369893430911126,7.169183668816395,-0.016004794280233967,0.09280624571792376,-1.023389242304667
1.5334026044656803,7.149139477912836,-0.015184237245262366,0.08149106648692185,-0.9345201582944388
1.5300175545676844,7.131669890911766,-0.014250979259050119,0.07041838569629148,-0.8374053302892882
1.526862608695955,7.116718621680853,-0.013183332669033036,0.059592651094257584,-0.7323223780178343
1.5239720908332304,7.104229218225182,-0.011951605267702494,0.049010857215934144,-0.6199037690917323
1.521388575953669,7.094146930595706,-0.010513741511091171,0.03866120912734412,-0.5012187651631139
1.5191665947813902,7.086420532899499,-0.008807833900029618,0.028524857796194493,-0.3778034775304928
1.517378931266684,7.081002867868666,-0.006737066227847678,0.0185852729067114,-0.2515758237858094
1.5161293812860084,7.077846938352678,-0.0041285857780281095,0.008857592449713896,-0.12457171009457593
