x,y,v_x,v_y,omega
2.375,32.48,0.0,2.564102564102564,-3.224489795918368
2.3741831930708326,31.897040789369516,-0.007102668949282958,2.505107963118995,-3.025316675720282
2.371850517559784,31.32738593039945,-0.013181465929399073,2.448412549664204,-2.844413895972901
2.368221300992464,30.77052319370017,-0.018376939003819266,2.393872117286026,-2.679598548474411
2.3634849484284737,30.2259720913065,-0.022808735465661326,2.3413548600502665,-2.528996681256839
2.3578053565311707,29.693281186358586,-0.026579020163060504,2.2907399655837684,-2.390993507434327
2.3513246120371982,29.172025702867813,-0.02977527978452578,2.2419164125968645,-2.2641925686280113
2.344166101967343,28.661805392763004,-0.03247263386639061,2.1947819361406102,-2.1473820775006836
2.3364371381277396,28.162242624964346,-0.034735747347549875,2.149242131673792,-2.0395070489711946
2.3282311789250767,27.672980667203433,-0.036620419632127914,2.1052096749428633,-1.9396461239085245
2.319629716042467,27.19368213607489,-0.03817490978186856,2.06260363921837,-1.846992215707654
2.31070388118189,26.724027594646294,-0.0394410455275002,2.02134889494333,-1.7608362859283884
2.30151581818533,26.26371428007483,-0.04045515444258682,1.9813755795911527,-1.6805536924436728
2.2921198578747517,25.812454946237356,-0.041248848258092025,1.9426186276912194,-1.6055926613988734
2.2825635264973867,25.369976808492677,-0.04184968545812308,1.9050173526972882,-1.5354645195193175
2.2728884134154397,24.936020579451263,-0.04228173264576609,1.8685150737497929,-1.4697353910279753
2.263130919395199,24.51033958609819,-0.042566041443285366,1.8330587814942996,-1.4080191175193122
2.2533229033393165,24.092698959853756,-0.042721054694820904,1.7985988380225175,-1.3499712025329498
2.243492242417704,23.68287489220571,-0.042762953319201956,1.765088706743096,-1.2952836175507785
2.2336633181683316,23.280653949441195,-0.042705953197077956,1.7324847086005386,-1.243680334457038
2.2238574391647177,22.885832440771832,-0.04256255987782661,1.7007458015678125,-1.1949134725155282
2.214093209206473,22.49821583480393,-0.04234378758517037,1.6698333807617713,-1.1487599666965203
2.2043868486223412,22.11761821987442,-0.04205934792901973,1.6397110968861328,-1.1050186795645858
2.1947524751328045,21.74386180426672,-0.041717812849562025,1.6103446910069044,-1.0635078915775724
2.185202349762015,21.376776452750157,-0.04132675559208294,1.5817018439197361,-1.0240631150696307
2.17574709248442,21.01619925626204,-0.04089287290874242,1.5537520385856112,-0.9865351858142332
2.1663958716138105,20.661974131880548,-0.040422091183516834,1.5264664342969203,-0.9507885932196066
2.1571565703702773,20.313951450525924,-0.03991965876024995,1.49981775139549,-0.9167000161663021
2.1480359335761268,19.971987690082745,-0.03939022640627378,1.473780165501713,-0.8841570364701354
2.1390559972374876,19.635946966215684,-0.03869617653841445,1.4483130855162305,-0.8492622363570591
2.130236277834683,19.30569875115066,-0.03799703565989025,1.4234105237448165,-0.816138963638521
2.1215776673683897,18.98111574649019,-0.03729522926439588,1.3990503863462445,-0.7846745329718514
2.113080536717835,18.66207560691256,-0.03659286334912247,1.3752116969374946,-0.7547647825546596
2.1047448047513537,18.34846069129759,-0.03589176244637049,1.3518745258013827,-0.7263133282124485
2.096569999220294,18.040157829519657,-0.03519350304110077,1.3290199244414893,-0.699230891381278
2.0885553104298764,17.737058103732238,-0.03449944296253284,1.3066298650143193,-0.6734346928294859
2.0806996385544636,17.439056643070778,-0.03381074725844849,1.2846871842157976,-0.6488479049529873
2.07300163535557,17.146052430793237,-0.03312841099280159,1.2631755312410597,-0.6253991563381215
2.065459740966281,16.85794812296104,-0.03245327934884042,1.2420793194736706,-0.6030220830331461
2.058072216323642,16.57464987783832,-0.03178606536976095,1.2213836815935135,-0.5816549216201592
2.050837171759163,16.29606719525552,-0.031127365625707306,1.2010744278220966,-0.5612401397469171
2.0437525921954576,16.022112765245183,-0.030477674058688384,1.181138007050396,-0.5417241002741504
2.036816359342854,15.752702325313326,-0.029837394224818084,1.1615614706179342,-0.5230567556283163
2.0300262712425705,15.487754525760977,-0.029206850125476056,1.1423324385329279,-0.5051913693305777
2.023380059461727,15.227190802516326,-0.028586295794903026,1.1234390679423047,-0.4880842620072918
2.016875404209364,14.970935256980056,-0.027975923790861296,1.1048700236774314,-0.47169457948152244
2.0105099476109762,14.718914542424727,-0.027375872716857257,1.0866144507167301,-0.4559840808043025
2.004281305351342,14.471057756523983,-0.026786233888656225,1.0686619484201907,-0.44091694431306694
1.998187076871076,14.227296339619286,-0.02620705724409389,1.0510025464032478,-0.4264595900067436
1.9922248542809347,13.987563978361106,-0.025638356583224234,1.033626681928772,-0.4125805167057801
1.9863922301390926,13.751796514388094,-0.025080114215402387,1.0165251787061111,-0.39925015262379304
1.9806868042200318,13.519931857732423,-0.024532285080777684,0.9996892269953551,-0.386440718118075
1.97511060709434,13.292007273142879,-0.023956385577411844,0.9822636824789324,-0.3911901439809954
1.9696639694186242,13.068075456112346,-0.023405681167943365,0.9649695090909125,-0.39842201920565645
1.964341025957678,12.848106648561942,-0.02288078370985002,0.947802730477819,-0.40800281075101974
1.9591357893787482,12.632071987980527,-0.022382143063451827,0.9307595354475356,-0.4198034307506814
1.9540421859181616,12.419943470356895,-0.021910060941649986,0.913836269975369,-0.4336989226677928
1.9490540879893299,12.211693914882865,-0.021464703656886092,0.8970294297988141,-0.44956816077053097
1.9441653439761601,12.00729693029572,-0.02104611384893745,0.8803356535676712,-0.46729356163947344
1.9393698054374517,11.80672688273567,-0.020654221270266733,0.8637517165197031,-0.4867608064792862
1.9346613519309535,11.609958865000536,-0.020288852699283263,0.8472745246553686,-0.5078585730594384
1.9300339136502467,11.416968667085506,-0.019949741045992852,0.830901109388366,-0.5304782761525968
1.9254814920534153,11.227732747900887,-0.019636533709063063,0.8146286226517938,-0.5545138153752156
1.9209981786494725,11.04222820806502,-0.019348800238264213,0.7984543324427225,-0.5798613293628126
1.9165781720966473,10.860432763673153,-0.01908603935152106,0.7823756187909016,-0.6064189552326398
1.9122157937558129,10.682324720946074,-0.018847685351385954,0.7663899701402297,-0.6340865922989322
1.9079055018325213,10.507882951664477,-0.01863311398158421,0.7504949801345311,-0.6627656690106135
1.9036419042321988,10.337086869296758,-0.01844164776035129,0.7346883448021413,-0.6923589120780943
1.8994197702450508,10.169916405728774,-0.01827256082354529,0.7189678601368474,-0.7227701167444085
1.8952340411700443,10.00635198850431,-0.01812508330694455,0.703331420075892,-0.7539039171360655
1.8910798399809705,9.846374518484488,-0.017998405293696822,0.6877770148790835,-0.7856655556002383
1.8869524801319981,9.689965347832985,-0.01789168034954159,0.6723027299166066,-0.8179606498967565
1.882847473595309,9.537106258231727,-0.017804028665148495,0.6569067448769463,-0.8506949570652053
1.8787605382193249,9.38777943922867,-0.017734539821669903,0.6415873334104993,-0.883774132728532
1.8746876044927112,9.241967466615126,-0.017682275192360347,0.6263428632290046,-0.917103484524102
1.870624821796759,9.099653280724905,-0.01764626998983451,0.6111717966859781,-0.9505877182701805
1.8665685642269323,8.960820164541087,-0.017625534965180878,0.5960726918689583,-0.9841306753793105
1.8625154360633434,8.825451721488477,-0.017619057761679918,0.5810442042406818,-1.0176350599188557
1.8584622769696915,8.693531852780353,-0.017625803922249907,0.5660850888734265,-1.0510021535918626
1.8544061670008527,8.565044734177096,-0.017644717545912694,0.5511942033288215,-1.0841315167670857
1.850344431500857,8.439974792001152,-0.017674721584483122,0.5363705112445991,-1.1169206735242398
1.8462746459755193,8.318306678237498,-0.017714717766281404,0.5216130867002301,-1.1492647784980647
1.8421946410275756,8.200025244530753,-0.01776358612888218,0.5069211194453643,-1.1810562631016197
1.8381025074469215,8.085115514869333,-0.017820184137674493,0.49229392108872494,-1.2121844584846595
1.8339966015545475,7.973562656722631,-0.017883345361230447,0.4777309323608648,-1.2425351923369539
1.8298755509061775,7.8653519503691705,-0.017951877668073386,0.46323173158228603,-1.2719903563798995
1.8257382604705856,7.76046875612095,-0.01802456090229095,0.44879604448919563,-1.3004274411051742
1.8215839194082677,7.6588984791115,-0.01810014398743024,0.43442375559298785,-1.3277190340212033
1.8174120085888172,7.560626531271474,-0.018177341399096433,0.4201149212767912,-1.3537322773649754
1.8132223090002257,7.465638290065343,-0.018254828936480595,0.40586978486347614,-1.3783282809413628
1.8090149112207126,7.3739190535047,-0.018331238711461324,0.39168879392472544,-1.4013614854850298
1.8047902261439135,7.285453990887216,-0.018405153260704514,0.3775726201403599,-1.4226789717323427
1.8005489971717665,7.200228088634045,-0.01847509867100811,0.36352218206112197,-1.442119710289038
1.7962923141166824,7.118226090511751,-0.018539536590591734,0.3495386711762234,-1.4595137474527982
1.7920216290862294,7.03943243142659,-0.01859685497856465,0.3356235817382304,-1.4746813225000095
1.7877387746603186,6.963831163868903,-0.018645357420659682,0.32177874485036084,-1.4874319127217934
1.7834459847137452,6.89140587596339,-0.018683250810413096,0.3080063673714907,-1.497563203913721
1.7791459182871812,6.822139599948521,-0.01870863115970973,0.29430907623607694,-1.5048599864044638
1.7748416869690757,6.756014709768241,-0.018719467258599024,0.280689968809838,-1.5090929805153863
1.770536886321838,6.693012806317608,-0.01871358184781551,0.26715266989132475,-1.5100176012541457
1.766235631971681,6.633114588751724,-0.018688629892679113,0.25370139589898205,-1.5073726810528623
1.761942601087883,6.57629971016285,-0.01864207344469658,0.24034102661297937,-1.500879182917647
1.7576630801120423,6.522546615883833,-0.018571152432177013,0.2270771845089212,-1.4902389565886953
1.7534030197738177,6.4718323627352525,-0.018472850508904973,0.21391632113089798,-1.4751336203348342
1.7491690986667625,6.42413241777502,-0.01834385476983851,0.20086580895806502,-1.4552236953798956
1.74496879698875,6.37942043565074,-0.018180507647660757,0.187934035600891,-1.4301481853154048
1.740810482529277,6.337668014678762,-0.01797874852166976,0.1751304945902263,-1.399524888774999
1.7367035116982565,6.298844433554592,-0.017734041313291447,0.16246586301125313,-1.3629518737516664
1.7326583494831933,6.2629163735467195,-0.01744128229595394,0.1499520501006833,-1.3200107450664273
1.7286867139359243,6.229847635733609,-0.017094678984646103,0.13760219175244556,-1.2702726273987641
1.7248017535299955,6.199598870137095,-0.016687585414732743,0.1254305525650864,-1.2133081942891915
1.7210182701662835,6.172127344550706,-0.016212269921894496,0.11345227862090905,-1.1487036252190177
1.7173530078460457,6.147386796637118,-0.01565957634104189,0.10168292062768816,-1.0760850698408864
1.7138250388866771,6.125327434268669,-0.015018414609990018,0.09013762170663388,-0.9951549607068354
1.7104562989333139,6.105896175153337,-0.01427497628882046,0.0788298488614713,-0.905744054535987
1.7072723535296688,6.089037241627594,-0.013411505482007983,0.06776957310151807,-0.8078826463375346
1.7043035300893097,6.07469323273553,-0.012404350521112453,0.05696093900338136,-0.701891368949981
1.7015866332223233,6.062806743147895,-0.011220839626597371,0.046399840019527364,-0.588483501226765
1.6991676108702944,6.053322408461579,-0.009814137347566348,0.036072635513647394,-0.46885328929629216
1.6971058618957127,6.046188792833373,-0.008114114605318704,0.02595880473161697,-0.34469824769308566
1.6954818306236645,6.04135852217744,-0.006007896455968534,0.01604354879825075,-0.2180991363574972
1.6944136289541443,6.0387822398365465,-0.0032808137137722753,0.006358906339937383,-0.0911861597691517
