x,y,v_x,v_y,omega
2.375,32.48,0.0,2.051282051282051,-4.6938775510204085
2.3742614157939252,32.05330049486278,-0.007034135295951994,2.012522759548551,-4.472527973044387
2.372129119865136,31.634620604906857,-0.013273444978228407,1.9749047638412307,-4.26618242672258
2.36876125850366,31.223726843226263,-0.018801425131067088,1.9383691569263133,-4.073479653130807
2.36429945132999,30.820397631331943,-0.02369197652293166,1.9028614325434219,-3.8932077588279186
2.3588706762906275,30.424422422912162,-0.02801064289956972,1.8683310285973507,-3.7242851919570845
2.3525889135554654,30.035600917054335,-0.031815668863879515,1.8347309319533596,-3.5657444811943533
2.345556583082978,29.65374234904896,-0.03515890706457006,1.8020173347644866,-3.4167182847518607
2.337865804957721,29.27866484881308,-0.03808659889026306,1.7701493341487078,-3.2764273797111936
2.329599506982646,28.91019485853175,-0.04064004849140069,1.7390886685305962,-3.144170288111665
2.3208324002123866,28.548166602394776,-0.042856206463452146,1.708799485154886,-3.019314289238684
2.311631839977831,28.192421602358824,-0.044768176722791264,1.679248134235126,-2.901287610314657
2.302058587348595,27.84280823473722,-0.04640565784136384,1.6504029859706246,-2.7895726224732478
2.2921674838075488,27.499181323145013,-0.04779532826383519,1.6222342672884946,-2.683699897175069
2.282008050090843,27.161401763933824,-0.048961183323838295,1.5947139156751815,-2.583243001396925
2.271625018614494,26.829336180760844,-0.049924830736624855,1.5678154478770343,-2.4878139290086647
2.261058807613921,26.502856605366734,-0.05070575022121739,1.54151384159068,-2.397059081534259
2.250345944024939,26.181840182002418,-0.05132152205480149,1.5157854285456762,-2.3106557246022534
2.2395194412006187,25.866168893255484,-0.05178802865300873,1.4906077976155725,-2.2283088573215237
2.2286270848842404,25.55573460692593,-0.051948698169643676,1.4659092150468636,-2.1455241209777633
2.2177112759387163,25.250433306097115,-0.05201138702582532,1.4417222214180168,-2.0666895050170546
2.2067915363417527,24.950159573506443,-0.051986132945253026,1.4180276127788662,-1.9915680974842267
2.195885380379382,24.654811925541136,-0.051882019077327424,1.3948071297478883,-1.91993991673622
2.1850085051953023,24.364292620142912,-0.051707268390099266,1.3720433978542474,-1.8516005064339451
2.174174962568113,24.07850747675515,-0.051469328059321307,1.3497198725053672,-1.7863596632131835
2.163397313896868,23.797365707386433,-0.05117494500015776,1.3278207881491033,-1.7240402829745898
2.152686770149572,23.520779757949864,-0.05083023354551236,1.3063311112467817,-1.6644773133876092
2.1420533183313735,23.24866515911392,-0.05044073615161996,1.285236496714614,-1.607516801643279
2.131505835855463,22.98094038596853,-0.050011477904672356,1.2645232475271437,-1.5530150277468773
2.1210521940469818,22.71752672587133,-0.04954701550943405,1.244178277208123,-1.5008377147390248
2.1106993518756867,22.458348153893446,-0.049051481360041393,1.2241890749621827,-1.4508593081949517
2.100453440894491,22.203331215333755,-0.048528623222772946,1.204543673225342,-1.402962318194787
2.0903198422561955,21.9524049148145,-0.04798183999909254,1.1852306174342395,-1.3570367176987392
2.0803032565880253,21.705500611511404,-0.04741421398347831,1.1662389378333329,-1.312979391913412
2.070407767421501,21.462551920107472,-0.04682853998342026,1.147558123156527,-1.2706936338108248
2.0606368988023434,21.22349461709236,-0.04622735162760758,1.129178096035008,-1.230088681469908
2.050993667640487,20.988266552059027,-0.04561294515197342,1.111089189996736,-1.1910792933598606
2.0414806313027967,20.756807563676166,-0.044987400921267795,1.093282127935275,-1.1535853580831514
2.032099930899923,20.52905940003962,-0.044352602915626524,1.0757480019365793,-1.117531535449484
2.0228533306731773,20.30496564312825,-0.04371025638671327,1.058478254362182,-1.0828469260662243
2.0137422538466407,20.084471637110134,-0.043061903866014696,1.0414646600960573,-1.0494647669103832
2.0047678152734267,19.86752442026366,-0.042408939688405485,1.0246993098703776,-1.0173221505963914
1.995930851172574,19.65407266029505,-0.04175262317685743,1.0081745945925484,-0.9863597662762377
1.9872319462240222,19.444066592849584,-0.04109409061887381,0.9918831906023841,-0.956521660307155
1.9786767312064797,19.23761498364945,-0.040384147643436015,0.9743226113036427,-0.9573829930959407
1.9702682247721595,19.0348380319609,-0.039696866016757475,0.9568864523968483,-0.9605821822672378
1.9620016217919536,18.835709987379346,-0.03903268617567875,0.9395711150464945,-0.9659896461373592
1.9538720390945765,18.64020583955118,-0.03839191094219701,0.9223731499837053,-0.9734795897217741
1.9458745432036588,18.44830128744659,-0.03777471659035232,0.9052892510123706,-0.9829297200330865
1.9380041758396438,18.259972709942915,-0.037181163066934975,0.8883162490226146,-0.9942209716483082
1.9302559773578774,18.075197137614296,-0.036611203426078424,0.8714511064880225,-1.0072372414286952
1.9226250082821803,17.893952225628322,-0.03606469253294001,0.85469091242604,-1.02186513131702
1.9151063690820707,17.716216227654183,-0.03554139508715349,0.8380328778038618,-1.0379936981714306
1.907695218331604,17.541967970690408,-0.03504099301252752,0.8214743313749441,-1.0555142096222225
1.9003867893784583,17.371186830722962,-0.03456309225552765,0.8050127159340598,-1.07431990495808
1.8931764056433324,17.20385270912682,-0.034107229031384724,0.7886455849815833,-1.0943057600617219
1.8860594946619522,17.039946009725753,-0.03367287555319049,0.7723705997904776,-1.115368255421433
1.8790316009748826,16.879447616426162,-0.033259445276043464,0.7561855268722918,-1.137405146244649
1.8720883979639553,16.722338871341226,-0.03286629768516853,0.7400882358413966,-1.160315233692474
1.8652256987283504,16.568601553321507,-0.03249274265392666,0.7240766976797227,-1.1839981362396115
1.858439466088241,16.418217856807356,-0.03213804439473181,0.7081489834074606,-1.2083540601424465
1.8517258217993713,16.27117037091687,-0.03180142502307571,0.6923032631685789,-1.2332835679686627
1.8450810550579775,16.127442058681083,-0.03148206775210402,0.6765378057436605,-1.2586873441045021
1.838501630372098,15.987016236334817,-0.031179119732463626,0.6608509785064994,-1.2844659561102045
1.8319841948724993,15.849876552567888,-0.030891694549426318,0.6452412478452043,-1.3105196107399029
1.8255255851342207,15.71600696763645,-0.030618874386561877,0.6297071800732785,-1.336747903378886
1.8191228335780738,15.58539173222831,-0.030359711862456562,0.6142474428613705,-1.3630495595782606
1.812773174520383,15.458015365969118,-0.03011323154412207,0.5988608072261864,-1.389322167284266
1.806474049938783,15.333862635447819,-0.029878431137783937,0.5835461501195321,-1.415461898266533
1.800223115022078,15.212918531630159,-0.0296542823546437,0.5683024576676923,-1.441363217146263
1.7940182435730168,15.095168246517506,-0.029439731445938897,0.5531288291194895,-1.4669185763117247
1.7878575333343887,14.980597148895058,-0.029233699398138708,0.5380244815705111,-1.492018094885073
1.7817393113111706,14.869190758998318,-0.02903508177536578,0.522988755541287,-1.516549219772233
1.7756621391645893,14.76093472190911,-0.028842748192075354,0.5080211214987955,-1.5403963666882645
1.7696248187579893,14.655814779472244,-0.028655541394593708,0.4931211874237183,-1.5634405389070598
1.7636263979394053,14.553816740500999,-0.028472275925252272,0.4782887075405164,-1.5855589213409533
1.7576661766518191,14.454926449013147,-0.02829173633747341,0.4635235923437992,-1.6066244474195215
1.751743713469346,14.359129750209412,-0.02811267492417589,0.4488259200727319,-1.6265053361174568
1.7458588326662157,14.266412453872203,-0.0279338089151591,0.4341959498054442,-1.6450645963932193
1.7400116319355108,14.176760294824039,-0.027753817091554826,0.4196341363675481,-1.662159496263754
1.7342024908864309,14.090158890041803,-0.027571335756824515,0.405141147272792,-1.677640993785125
1.7284320804626054,14.006593691974548,-0.027384953993894637,0.3907178819391753,-1.6913531273757922
1.7227013734399588,13.926049937558705,-0.027193208126549222,0.3763654934497915,-1.7031323632667306
1.7170116561812523,13.848512592365417,-0.026994575289705378,0.3620854131529613,-1.7128068984727078
1.71136454184614,13.773966289250385,-0.026787465997077514,0.34787937841875594,-1.720195918667067
1.7057619852810597,13.70239526080844,-0.026570215575116574,0.3337494638854602,-1.7251088118703437
1.7002062998433622,13.633783264864324,-0.026341074307714478,0.3196981165347091,-1.727344341158679
1.6947001764500176,13.56811350216157,-0.026098196105092977,0.3057281949200854,-1.7266897829814931
1.6892467051846654,13.505368525347915,-0.025839625469689997,0.29184301282901187,-1.722920042599894
1.6838493998502249,13.44553013830664,-0.025563282477360828,0.27804638756409594,-1.7157967652523853
1.6785122259213032,13.388579284861965,-0.025266945417132175,0.2643426928614,-1.7050674718163894
1.673239632436699,13.334495925912545,-0.02494823062671803,0.2507369161807077,-1.690464762221285
1.6680365884855672,13.283258904150312,-0.024604568907869235,0.23723471965009416,-1.6717056504497239
1.662908625093834,13.234845795746665,-0.024233177680066036,0.22384250324179256,-1.6484911241159577
1.6578618835296366,13.189232748799832,-0.02383102769324274,0.21056746768043555,-1.62050606277919
1.652903171348079,13.146394309031407,-0.023394802607305684,0.1974176729712199,-1.5874197070780836
1.648040027933632,13.106303234333833,-0.022920848958856356,0.18440208605329458,-1.548886951860704
1.6432808019471792,13.068930301497712,-0.022405112816886487,0.1715306076240564,-1.5045508491012465
1.638634744060529,13.034244111055393,-0.021843057532162754,0.15881406325518335,-1.4540468608723596
1.6341121198472743,13.002210900018252,-0.02122955402264371,0.1462641370985503,-1.397009610350021
1.629724349981856,12.97279437779516,-0.02055873040991105,0.13389321740709148,-1.3330831490024673
1.6254841884243125,12.945955608225539,-0.01982376061431217,0.12171411182740782,-1.261936089682873
1.6214059547216837,12.9216529707757,-0.019016560363106276,0.1097395781710475,-1.1832833184212994
1.617505844976066,12.899842246324486,-0.018127341976108977,0.09798160707860856,-1.0969162953911769
1.613802358961141,12.880476885969035,-0.01714395340412804,0.08645039630665487,-1.0027439523066894
1.6103169006162794,12.863508530121734,-0.01605088797550719,0.07515299271526907,-0.9008453993202596
1.6070746393150965,12.848887838896175,-0.014827791083377891,0.06409168562338005,-0.7915331871927564
1.6041057665761635,12.836565651905016,-0.013447187382651039,0.05326247619717551,-0.6754204421970974
1.6014473636975626,12.826494379104776,-0.011870935270689567,0.042654407614625536,-0.5534756419607372
1.5991462620658736,12.818629275927687,-0.01004431836444549,0.03225133692906166,-0.42703587519919106
1.5972637210268459,12.812928766770458,-0.00788464391200777,0.02203922647313123,-0.29773869310153656
1.595884309708928,12.809351843517415,-0.005252606734829571,0.012026709270124548,-0.16733497531265287
1.5951395545215497,12.807845701257126,-0.0018402998116294512,0.0023175027326449785,-0.0373851185107463
