x,y,v_x,v_y,omega
2.375,32.48,0.0,2.1538461538461537,-6.775510204081632
2.373643006701046,31.989804010723642,-0.011799941730035663,2.1087276659482415,-6.414015843329941
2.3697420485998215,31.509802181946384,-0.022121433063217993,2.065201279940943,-6.0807877949820135
2.3636169203203083,31.03963994464592,-0.03114055197602995,2.023166000932657,-5.772875719977359
2.3555495996469853,30.578984844990515,-0.03901006257460245,1.9825305178100208,-5.487703632180632
2.3457892032393315,30.127524465953826,-0.0458629496658655,1.9432119085959618,-5.223014156667671
2.3345562004763676,29.684964621527403,-0.051815335229476074,1.9051345646772755,-4.9768223723868745
2.32204601329335,29.251027778183808,-0.056968901144588066,1.868229290484428,-4.747377358857222
2.308432104542682,28.825451667118728,-0.061412914078614794,1.832432544864101,-4.533129982282974
2.2938686377879574,28.40798805772471,-0.06522592726681453,1.7976857976925418,-4.33270577002861
2.278492776086152,27.998401668192038,-0.06847721796627286,1.763934980852428,-4.144881961316262
2.2624266751880366,27.59646919344115,-0.07122800723473333,1.7311300169814132,-3.968568005777552
2.245779216929662,27.20197843402562,-0.07353249935982839,1.699224412718848,-3.80278892409191
2.228647520834816,26.814727512400054,-0.07543877103013484,1.6681749057643354,-3.646671056509891
2.2111182656784085,26.434524165171567,-0.07698953467775779,1.6379411570920517,-3.4994298130184496
2.1932688476557125,26.06118510176016,-0.0782227959543821,1.6084854812680016,-3.3603591087498224
2.1751683976197262,25.69453542136888,-0.07917242174984382,1.5797726090909592,-3.228822224069539
2.1568786764020977,25.33440808137695,-0.07986863231649217,1.5517694777953923,-3.104243873693216
2.138454864377401,24.980643411270183,-0.08033842876782768,1.5244450448721576,-2.9861033055243364
2.1199462590529548,24.633088667054235,-0.08060596535779227,1.4977701222230382,-2.8739282794740513
2.1014407120837486,24.291609776085533,-0.08031183437443677,1.4716115383743753,-2.758762903824997
2.083016450960691,23.956078125889906,-0.0798991319130163,1.4460549850658562,-2.6495614269899663
2.064699101147111,23.626358099052627,-0.07938217081376703,1.4210756830843936,-2.5459363241852024
2.046511169415673,23.3023196212701,-0.07877375728569658,1.3966502106767174,-2.4475301070949826
2.028472371691943,22.983837860203863,-0.07808535335543443,1.3727564072905385,-2.354012618137903
2.0105999256841587,22.670792945501564,-0.07732722062529862,1.3493732857729472,-2.2650786025329537
1.9929088123304526,22.36306970814276,-0.07650854766779575,1.3264809521296748,-2.180445526087781
1.9754120095958354,22.060557437460908,-0.07563756306800618,1.3040605320603564,-2.0998516107569207
1.9581207017195248,21.7631496543622,-0.0747216358564337,1.2820941035805868,-2.0230540635566574
1.9410444666388278,21.47074389941119,-0.0737673648452783,1.2605646351238564,-1.9498274774671647
1.9241914439904093,21.183241534584383,-0.07278065818444905,1.2394559285875046,-1.879962385577603
1.9075684858064461,20.900547557609258,-0.07176680428479454,1.2187525668483323,-1.8132639519992129
1.891181291775964,20.622570427909103,-0.07073053511070251,1.1984398653269206,-1.749550785037923
1.8750345307255663,20.349221903265494,-0.06967608271884355,1.1785038272262116,-1.6886538598259087
1.8591319497845848,20.080416886391774,-0.0686072298114282,1.1589311021105064,-1.6304155390980777
1.8434764725337522,19.816073280683504,-0.06752735497842131,1.1397089475265867,-1.574688682096058
1.828070287290748,19.556111854476967,-0.06643947322161561,1.1208251933998574,-1.5213358327154227
1.8129149265577698,19.30045611320491,-0.06534627228254314,1.1022682089658633,-1.4702284790041513
1.7980113385433205,19.049032178891334,-0.06425014523440552,1.0840268720217323,-1.4212463769908121
1.7833599515707734,18.801768676473934,-0.06315321974426472,1.0660905403034995,-1.3742769325859931
1.768960732098256,18.558596626485397,-0.06205738436458066,1.0484490248142198,-1.3292146359740247
1.7548132369965619,18.31944934366313,-0.06096431217189185,1.0310925649446052,-1.2859605435059933
1.740916660662858,18.084262341091566,-0.059875482034227455,1.014011805242896,-1.2444218026296665
1.727269877486862,17.85297323951267,-0.058792197757042856,0.9971977737040157,-1.2045112158560751
1.7138826712048303,17.62564907117622,-0.057618291651930366,0.9795341248738272,-1.1881344538673086
1.7007621515116085,17.40237087583915,-0.056473183941302255,0.9620153997963646,-1.174880769705816
1.6879016023318962,17.183105854016834,-0.05535767849097801,0.944636963875947,-1.164585046569305
1.675294144957601,16.96782224809221,-0.05427238563332738,0.9273943919903095,-1.1570881856511093
1.6629327806899041,16.75648929537347,-0.053217738433602856,0.9102834577378879,-1.152236687367351
1.6508104298874067,16.549077183531146,-0.05219400767507035,0.893300123499699,-1.149882253287878
1.638919967703835,16.345557008233218,-0.05120131566033499,0.8764405312649141,-1.1498814068735042
1.627254256777298,16.145900732807686,-0.05023964891824787,0.8597009941745043,-1.152095131239574
1.61580617711338,15.950081149772256,-0.049308869898432015,0.8430779887422631,-1.1563885222692507
1.6045686533862584,15.758071844079424,-0.04840872772871086,0.8265681477171299,-1.1626304554902636
1.59353467986544,15.569847157933118,-0.04753886810449552,0.8101682535551072,-1.1706932652069812
1.5826973431604783,15.38538215703986,-0.04669884237343205,0.7938752324732226,-1.1804524344463705
1.5720498429621068,15.20465259816331,-0.04588811587327536,0.7776861490619814,-1.1917862943322246
1.5615855109454406,15.027634897855968,-0.045106075575995684,0.7615982014366378,-1.2045757315475232
1.5512978279892544,14.854306102245943,-0.04435203708649444,0.7456087169114083,-1.21870390258027
1.541180439854711,14.684643857759909,-0.04362525103996956,0.7297151481845265,-1.2340559534739395
1.5312271714572572,14.518626382665719,-0.04292490893788963,0.7139150700258158,-1.2505187438199175
1.521432039856652,14.356232439319587,-0.042250148458677014,0.6982061764622933,-1.2679805737361551
1.5117892660822183,14.197441307003377,-0.041600058275530045,0.682586278461265,-1.2863309125736637
1.5022932859033475,14.042232755237169,-0.040973682410302206,0.6670533021144626,-1.3054601280804183
1.492938759649031,13.89058701745093,-0.040370024148971145,0.6516052873310882,-1.3252592147305748
1.483720581174691,13.742484764896851,-0.03978804954094277,0.6362403870522029,-1.345619519895452
1.4746338860698427,13.597907080680411,-0.039226690501215265,0.6209568670038071,-1.3664324664912966
1.46567405919611,13.456835433783677,-0.03868484753124452,0.6057531060112825,-1.3875892706871664
1.4568367416418317,13.31925165294846,-0.03816139207117493,0.5906275969036558,-1.4089806531941407
1.4481178371769636,13.18513790027965,-0.03765516849289565,0.5755789480425269,-1.430496542584317
1.439513518290167,13.054476644420241,-0.03716499574011828,0.5606058855175376,-1.452025769004622
1.4310202318889478,12.927250633139046,-0.036689668618310814,0.5457072560580791,-1.473455746556487
1.422634704743452,12.80344286515961,-0.03622795873382635,0.5308820307196379,-1.4946721425083365
1.4143539487551045,12.683036561044368,-0.035778615077889764,0.516129309412916,-1.5155585313945152
1.4061752661327187,12.566015132931089,-0.03534036424720434,0.501448326354738,-1.5359960319332575
1.3980962545610829,12.45236215289912,-0.034911910288759763,0.4868384565319404,-1.555862924570121
1.3901148124504068,12.342061319720393,-0.03449193415190147,0.4722992232830639,-1.5750342473258276
1.3822291443594725,12.235096423724286,-0.03407909272578858,0.4578303071178678,-1.5933813675044954
1.3744377666909888,12.1314513094759,-0.03367201743493887,0.4434315559115867,-1.6107715267083453
1.3667395137646245,12.031109835933673,-0.03326931235953262,0.42910299662952023,-1.6270673565204554
1.3591335443816328,11.934055833714108,-0.032869551840396076,0.41484484875799893,-1.6421263621756783
1.351619349005078,11.840273059048354,-0.03247127752094902,0.40065753963988177,-1.6558003715664986
1.344196757691657,11.749745143967104,-0.032072994769669946,0.38654172193621456,-1.6679349470608211
1.3368659489252444,11.66245554219655,-0.03167316841652586,0.3724982934599023,-1.6783687578923177
1.3296274595189748,11.578387470188776,-0.03127021772494827,0.35852841965116733,-1.6869329113910674
1.3224821957723267,11.497523842645453,-0.030862510506774247,0.3446335589864291,-1.693450242151092
1.3154314460929584,11.419847201824645,-0.030448356270341887,0.3308154916292804,-1.6977345595198157
1.3084768953207597,11.34533963984866,-0.030025998270515768,0.3170763516401407,-1.6995898557357696
1.3016206410249012,11.273982713158905,-0.029593604302166582,0.3034186630533896,-1.698809479906195
1.2948652120851987,11.20575734819656,-0.029149256043071822,0.2898453800974405,-1.6951752871863917
1.2882135899192155,11.140643737333004,-0.02869093670460669,0.2763599317595654,-1.688456778532723
1.2816692327796104,11.078621224043083,-0.02821651668326385,0.26296627076148943,-1.6784102550031021
1.275236103627399,11.019668176325617,-0.027723736814228035,0.24966892678169286,-1.6647780228292113
1.2689187021936759,10.963761847455988,-0.027210188696407876,0.23647306338900342,-1.6472877028664776
1.2627221019865609,10.91087822334556,-0.026673291365461312,0.2233845375712367,-1.6256517226157476
1.2566519931995024,10.860991856141617,-0.02611026330461305,0.2104099598543485,-1.5995671036916008
1.2507147327591006,10.814075684315995,-0.02551808835105454,0.1975567516727845,-1.568715706364957
1.2449174031579775,10.77010084048576,-0.02489347339784298,0.18483319467707363,-1.532765161027702
1.2392678823173968,10.729036449762134,-0.024232794781119685,0.1722484637892278,-1.4913708112365884
1.2337749276190746,10.690849423780268,-0.023532028682551887,0.1598126317052694,-1.4441791233606633
1.228448278597692,10.655504259051494,-0.022786658459904467,0.14753662680581028,-1.3908331941024528
1.2232987848465815,10.622962853318167,-0.021991548071491368,0.13543211870136163,-1.3309812189197698
1.2183385688472967,10.593184360652344,-0.021140764965766553,0.12351129578404899,-1.2642890750210374
1.2135812382824658,10.566125115537574,-0.02022732690232879,0.11178648782264933,-1.1904585063027648
1.209042169821967,10.541738668158182,-0.01924283362374663,0.10026957634599103,-1.1092527118557698
1.2047388976997238,10.519975986594837,-0.018176923960977892,0.0889711329004815,-1.0205312723446431
1.200691657534737,10.500785893164508,-0.017016468778037402,0.07789924475453815,-0.9242959470002257
1.196924161637885,10.484115803407324,-0.01574436510763252,0.06705805748183649,-0.820747270469276
1.1934647212625877,10.46991281008485,-0.014337725112344137,0.05644623227881891,-0.7103480097483168
1.1903478944100467,10.458125070295765,-0.012765117083664658,0.046055852843669545,-0.5938821829432482
1.1876169557798568,10.448703262491936,-0.010982175352770183,0.03587291066789212,-0.47248723148317945
1.1853277665321742,10.44160150278034,-0.008923818105339727,0.025881521606841942,-0.3476251927075842
1.1835554992463917,10.436776337044037,-0.00648720177103057,0.016076441317543936,-0.22095474993980202
1.1824094007860493,10.43418006622706,-0.0034788717971653083,0.006499826656172597,-0.09408118677709404
