x,y,v_x,v_y,omega
2.375,32.48,0.0,2.6153846153846154,-2.36734693877551
2.3743823870404586,31.88546466039662,-0.005370547474272224,2.5544879029056182,-2.21858386941683
2.372620335366201,31.304659325019884,-0.009951640997533893,2.4959932742833932,-2.0837274580406673
2.3698826996165887,30.73704880870761,-0.01385388725996586,2.439750345823349,-1.9610878436280457
2.3663148222639614,30.182131059786034,-0.017171133197660976,2.385621383929474,-1.8492178473528522
2.362042068210938,29.639434407767475,-0.019983249872106895,2.3334799379710285,-1.7468734140417406
2.357172777207481,29.108515104223592,-0.022358411027519537,2.2832096580627366,-1.6529812186013846
2.3518007388454456,28.588955117829137,-0.02435496603365839,2.2347032671064437,-1.5666120144798368
2.346007274403589,28.08036015092374,-0.02602298563465963,2.1878616625056715,-1.4869586082995827
2.339862993663771,27.582357850056816,-0.027405542537670687,2.1425931276415175,-1.4133175803265225
2.3334292820117772,27.09459618714097,-0.02853977617531947,2.098812636844121,-1.345074052330721
2.326759562928282,26.616741991250507,-0.029457781072466053,2.0564412404642467,-1.2816889457629221
2.319900372799737,26.148479613920088,-0.030187350480097446,2.0154055189306885,-1.222688283700056
2.3128922784008874,25.689509713144624,-0.03075260081424673,1.9756370965081222,-1.1676541769151565
2.3057706620851084,25.2395481432471,-0.031174497583831135,1.9370722069486153,-1.116217203113661
2.2985663954059308,24.798324939438032,-0.031471299626411785,1.8996513044345738,-1.0680499429381154
2.2913064183802128,24.365583387295125,-0.03165893537982967,1.8633187141994052,-1.0228614798872455
2.284014238731496,23.94107916858888,-0.03175132243510118,1.8280223180288033,-0.9803927062036836
2.2767103630958383,23.524579575905257,-0.031760639614095386,1.7937132705244583,-0.9404123048898928
2.269412670232778,23.115862789398278,-0.031697559195120836,1.760345742579695,-0.9027133007324348
2.262136734682127,22.714717209767322,-0.031571445593150935,1.72787668899383,-0.8671100916542374
2.254896107980166,22.320940842214167,-0.031390525728249644,1.6962656375553555,-0.8334358867358065
2.247702563446053,21.934340726709657,-0.031162035437953962,1.665474497266471,-0.801540489527168
2.2405663096302466,21.554732410401563,-0.03089234556905283,1.63546738367347,-0.7712883753475017
2.2334961767488073,21.181939458434602,-0.030587070791289122,1.6062104595174993,-0.7425570195627081
2.226499779783918,20.815792999839555,-0.030251163686012852,1.5776717891350827,-0.7152354406796682
2.2195836613904105,20.456131305488356,-0.02988899625752911,1.5498212052231657,-0.6892229277689927
2.212753417292779,20.10279939541215,-0.029504430678392823,1.5226301867438565,-0.6644279264415173
2.20601380647279,19.755648673045023,-0.02910088079977626,1.496071746883325,-0.6407670615313616
2.1993815210025662,19.41453756705416,-0.028571166767385987,1.4701117834720154,-0.6152255997186438
2.192871373136093,19.079330162446198,-0.0280388146802082,1.4447352131189672,-0.5909953150240783
2.186483768033828,18.74989492561437,-0.027505577513400655,1.4199190202012568,-0.5679919292151637
2.1802187350883706,18.426105481664955,-0.02697296983840368,1.3956413619675854,-0.546137604902572
2.1740759794241686,18.107840353243965,-0.026442296806827616,1.3718814938671078,-0.5253603762294369
2.1680549271428022,17.79498271588819,-0.025914679552881553,1.3486197005309328,-0.5055936365078324
2.1621547650841615,17.487420168657465,-0.025391077478776433,1.3258372319101515,-0.48677567645876185
2.156374475774372,17.185044518913568,-0.024872307823743584,1.303516244123739,-0.4688492674890917
2.1507128681454177,16.88775158020877,-0.024359062862813596,1.281639744613638,-0.451761285112345
2.1451686045371847,16.595440982335205,-0.023851925034864867,1.2601915412434441,-0.4354623682050181
2.1397402244283357,16.308015992665833,-0.023351380259474863,1.239156195011967,-0.4199066102987487
2.134426165286701,16.025383347989788,-0.02285782966778325,1.2185189760840658,-0.4050512795519163
2.129224780881454,15.747453096110188,-0.022371599943058453,1.198265822868968,-0.3908565644311986
2.1241343573572604,15.474138446531619,-0.021892952441235455,1.1783833039011953,-0.37728534247195467
2.1191531273339455,15.205355629618303,-0.02142209123976208,1.1588585823015531,-0.36430296978265925
2.114279282263296,14.941023763652819,-0.02095917024414612,1.1396793826156966,-0.3518770892185995
2.1095109832467207,14.681064729269746,-0.0205042994652063,1.12083395984582,-0.3399774553784869
2.104846370493151,14.425403050779142,-0.02005755056583233,1.1023110705072563,-0.32857577477867295
2.10028357157525,14.17396578393182,-0.019618961763743063,1.084099945556408,-0.3176455597368362
2.0958207086233256,13.926682409712122,-0.01918854216603416,1.0661902650496482,-0.3071619946533933
2.0914559045800014,13.683484733774865,-0.018766275602002593,1.0485721344047734,-0.2971018135171127
2.0871872886243183,13.444306791171364,-0.018352124012633624,1.0312360621473948,-0.287443187583761
2.083013000861337,13.209084756035452,-0.017946030448072452,1.0141729390344447,-0.27816562228505115
2.0789311963622117,12.977756855924067,-0.01754792171823717,0.9973740184558547,-0.26924986252140914
2.0749431638165894,12.75035852103689,-0.017130622156738745,0.9800028066500225,-0.27728056991047834
2.0710485841298505,12.526940734570008,-0.016735288162727905,0.9627605539315505,-0.28768426661203705
2.067242325212276,12.307474280224604,-0.01636261546835383,0.9456433968980654,-0.3003326611745017
2.063519113595791,12.091930812127043,-0.016013137718472428,0.9286476300372339,-0.31510163122535995
2.0598735701383504,11.880282819379769,-0.015687240172318553,0.9117696981999373,-0.3318709272761717
2.0563002427017425,11.67250359227986,-0.015385172319920162,0.8950061896253454,-0.3505238885707329
2.0527936360430044,11.468567190081885,-0.015107059495196829,0.8783538294874789,-0.3709471697867596
2.0493482391415507,11.26844841018817,-0.014852913560920541,0.8618094739361105,-0.3930304774531777
2.0459585501675805,11.072122758655603,-0.014622642734473954,0.8453701046079685,-0.4166663149888945
2.0426190992820956,10.879566421913161,-0.014416060617565762,0.8290328235871742,-0.4417497353050557
2.0393244694449897,10.69075623958901,-0.014232894487704954,0.8127948487967311,-0.46817809994144943
2.036069315394915,10.505669678349733,-0.014072792904249903,0.7966535098056835,-0.4958508437290259
2.032848380953049,10.324284806657555,-0.013935332677192472,0.7806062440393392,-0.5246692439844907
2.0296565147922876,10.146580270354018,-0.013820025242472335,0.7646505933827102,-0.5545361932495554
2.0264886848038,9.972535268980444,-0.013726322483505575,0.7487842011701139,-0.5853559745865684
2.023339991184204,9.802129532746857,-0.013653622034719256,0.7330048095567239,-0.6170340384336883
2.0202056783588063,9.635343300061692,-0.013601272099176233,0.7173102572708061,-0.649476780006204
2.017081145849387,9.472157295534476,-0.013568575808819034,0.7016984777484554,-0.6825913162056587
2.0139619581888435,9.312552708362976,-0.013554795152425832,0.6861674976559095,-0.7162852609646089
2.010843853979617,9.156511171014625,-0.013559154493022745,0.670715435808016,-0.7504664979115583
2.007722754188201,9.004014738109753,-0.013580843693202166,0.6553405024952068,-0.7850429491871391
2.0045947697641777,8.855045865410723,-0.013619020863522666,0.6400409992354693,-0.81992233917816
2.001456208669097,8.709587388816821,-0.01367281474587696,0.6248153189723609,-0.8550119518597649
1.998303582398178,8.567622503259305,-0.013741326740373589,0.6096619467451779,-0.8902183803465766
1.9951336120762377,8.429134741384356,-0.01382363258084541,0.594579460863057,-0.9254472671501647
1.9919432342084795,8.29410795190367,-0.013918783660531363,0.5795665346211665,-0.960603033521147
1.9887296061668593,8.162526277482733,-0.014025808005730446,0.5646219386043688,-0.995588596118316
1.985490111493707,8.034374132025558,-0.014143710891247635,0.5497445436319446,-1.0303050690928481
1.9822223651061872,7.909636177201154,-0.014271475087183768,0.5349333244063399,-1.0646514495013735
1.9789242184881308,7.788297298041368,-0.014408060722002496,0.5201873639396307,-1.0985242837659213
1.9755937649597974,7.670342577421284,-0.014552404741766537,0.5055058588437144,-1.1318173126801119
1.9722293451214066,7.555757269212052,-0.014703419939893114,0.49088812558440365,-1.164421092218332
1.9688295525728696,7.444526769871015,-0.0148599935256447,0.4763336078159184,-1.196222587137408
1.9653932400202552,7.33663658820511,-0.015020985192743173,0.4618418849310688,-1.2271047340687806
1.961919525889276,7.232072313009866,-0.015185224641855916,0.44741268198409934,-1.2569459704850754
1.9584078015777195,7.130819578247362,-0.015351508502115606,0.4330458811681115,-1.285619725592082
1.9548577394924547,7.0328640253813965,-0.015518596587143559,0.4187415350576671,-1.312993868852645
1.9512693020327758,6.938191262435861,-0.01568520741006423,0.4044998818600323,-1.338930111504748
1.9476427517006254,6.846786819282016,-0.01585001286950402,0.3903213629559987,-1.3632833561113267
1.9439786625401387,6.758636098590905,-0.01601163200429195,0.3762066430536544,-1.385900988903742
1.9402779331343536,6.673724321807239,-0.016168623698188257,0.362156633326057,-1.4066221094995426
1.9365418014164033,6.592036469409766,-0.016319478197032052,0.34817251795632403,-1.425276692555846
1.9327718615866991,6.513557214619183,-0.016462607278656862,0.33425578457047955,-1.4416846761630655
1.928970083467303,6.438270849597334,-0.0165963328900044,0.3204082590977855,-1.4556549724386618
1.925138834670929,6.366161203050535,-0.016718874034986737,0.3066321456569876,-1.4669843970664667
1.9212809060160951,6.297211548006278,-0.01682833165922112,0.29293007211914807,-1.475456516766622
1.9173995406836728,6.231404498378691,-0.01692267123140828,0.2793051420337762,-1.4808404173487872
1.9134984676859113,6.168721892779793,-0.01699970266216948,0.26576099360882577,-1.4828894007950004
1.9095819403105243,6.109144663880951,-0.01705705712380473,0.2523018663810914,-1.4813396287660978
1.9056547803149073,6.052652691500132,-0.017092160229385343,0.23893267606081078,-1.475908743541725
1.9017224287871315,5.9992246375154785,-0.01710220088170895,0.22565909771878215,-1.4662945179235563
1.8977910047737307,5.9488377607336,-0.017084094886993025,0.2124876569062433,-1.4521736163523828
1.8938673730198448,5.901467710049538,-0.017034442103320644,0.19942582730300384,-1.4332005952736684
1.8899592225080706,5.85708829474785,-0.016949475390367844,0.18648213184211854,-1.4090073387742912
1.886075157972971,5.815671231801588,-0.016824998827888526,0.1736662416036548,-1.3792032261190788
1.8822248072993015,5.777185871820688,-0.016656311377934642,0.16098906257807627,-1.3433764760154734
1.8784189488357488,5.741598908324285,-0.0164381100442619,0.14846279391238296,-1.3010973292295762
1.8746696644284357,5.70887407990957,-0.016164363062807476,0.13610093143296587,-1.2519240446749957
1.8709905268317155,5.678971882576818,-0.015828137778239142,0.12391817580837693,-1.1954131285582068
1.8673968348157455,5.651849321148379,-0.015421358012804672,0.11193018443892502,-1.1311358247254633
1.8639059169799144,5.627459745759474,-0.014934449255291636,0.1001530798124343,-1.0587036752310248
1.8605375380178297,5.605752842812564,-0.014355802588921223,0.08860259798677676,-0.9778068339753119
1.8573144622587079,5.586674878720622,-0.013670943142575304,0.07729274194315507,-0.8882694708165803
1.8542632640417347,5.570169322865489,-0.01286121526588623,0.06623383071017878,-0.7901261972306488
1.8514155315610061,5.556177984010283,-0.011901675870883307,0.05542998542204453,-0.6837201132660705
1.8488097062254387,5.544642735863178,-0.010757674873181307,0.04487652020493969,-0.5698134638038391
1.8464939722806522,5.535507690944748,-0.009379142038007653,0.03455865299880541,-0.44968187666317316
1.8445309949761013,5.528721145815108,-0.007690225827652773,0.02445478291109446,-0.32513258633720077
1.843006485544492,5.524235420667608,-0.005566377925470179,0.014551522719326906,-0.19835983933886853
1.842048986292573,5.5219990958331095,-0.002759702525998909,0.004894780189368486,-0.07155986965678315
