x,y,v_x,v_y,omega
2.375,32.48,0.0,2.2051282051282053,-3.1020408163265305
2.3743418994641114,31.978112668618518,-0.0057226133555532575,2.1591094590585773,-2.9339158216967562
2.372452056760859,31.486631502476683,-0.01071080145533675,2.114639811739965,-2.7791026736715536
2.3694891959030655,31.0052101126727,-0.015053206003737,2.0716331430772916,-2.6362123122075043
2.365592987589376,30.533521158227966,-0.018826866289214032,2.0300099390508395,-2.504028575866955
2.360886524945862,30.07125490439675,-0.022098895828297997,1.9896966160032206,-2.3814835760191406
2.3554784443904495,29.618117926134765,-0.02492789161007306,1.9506249341009634,-2.267637003927061
2.3494647477213926,29.173831937893503,-0.027365122903468233,1.9127314853882944,-2.1616586747819
2.3429303717723924,28.738132733936837,-0.02945553752262039,1.8759572446696742,-2.062813748147016
2.3359505440827735,28.31076922582905,-0.0312386163001493,1.8402471736589159,-1.9704501708735886
2.328591956610693,27.891502565743295,-0.03274910084837613,1.8055498705650377,-1.8839879730139315
2.320913784269591,27.48010534588258,-0.03401761516120862,1.771817258658546,-1.802910114581388
2.3129685707591086,27.07636086566408,-0.035071197973421314,1.7390043084588622,-1.7267546349637526
2.3048030006084628,26.680062459448727,-0.03593375985828276,1.7070687890659373,-1.6551079002673925
2.29645857340859,26.291012878545686,-0.03662647666234915,1.6759710448735647,-1.5875987790600055
2.287972193764956,25.909023722019537,-0.03716812893446958,1.6456737944842523,-1.5238936055979195
2.279376688464599,25.533914911504684,-0.03757539541645767,1.616141949123146,-1.4636918129964551
2.2707012606457204,25.16551420580762,-0.03786310735639982,1.5873424482426308,-1.4067221379678458
2.261971889327044,24.80365675157104,-0.038044469327744176,1.559244110336347,-1.3527393145279163
2.253211681449679,24.448184666698108,-0.0381312513449922,1.531817497254357,-1.3015211871067367
2.2444411825675603,24.09894665360173,-0.03813395632560913,1.5050347905402537,-1.2528661843038629
2.235678651462148,23.755797639661623,-0.03806196633014957,1.4788696785041466,-1.2065911035161525
2.226958049498599,23.41860088341152,-0.03776935509201415,1.4532760280184742,-1.1587809190195304
2.2183095425373303,23.087225078496356,-0.037435053266846575,1.4282527103742526,-1.1134113225200308
2.209742078395732,22.761541630515715,-0.0370646349209631,1.4037772720661046,-1.0703262482854004
2.201263392858992,22.441426977567243,-0.03666306539851378,1.3798284057467,-1.029381498534365
2.1928801419875645,22.12676233509353,-0.03623476826607492,1.3563858766334007,-0.9904436990433269
2.1845980199204766,21.817433457003435,-0.035783684491210443,1.3334304545848172,-0.9533893588550129
2.1764218638500585,21.51333041182269,-0.035313324816774634,1.3109438513347047,-0.9181040225168589
2.168355747637123,21.214347372740434,-0.034826816165271175,1.2889086624240473,-0.8844815046944625
2.1604030653563253,20.92038242051845,-0.0343269427981858,1.267308313419274,-0.8524231982334172
2.152566605905503,20.63133735831993,-0.03381618286114095,1.246127010046136,-0.8218374478087143
2.1448486196770324,20.34711753759548,-0.03329674086468942,1.2253496919056057,-0.7926389822278668
2.137250878170819,20.06763169423719,-0.032770576580643154,1.2049619894708214,-0.7647483992615648
2.1297747273251044,19.792791794277335,-0.03223943077340021,1.1849501840931358,-0.7380916975806695
2.1224211352508204,19.522512888467936,-0.03170484813341551,1.1653011707711944,-0.7125998509948076
2.115190734975999,19.256712975131343,-0.031168197734599296,1.1460024234600399,-0.688208420727794
2.108083862737246,18.995312870720888,-0.03063069129803688,1.1270419627178623,-0.6648572019388593
2.1011005922943022,18.738236087575086,-0.03009339951016783,1.1084083255064856,-0.6424899011149844
2.0942407656900537,18.485408718389344,-0.02955726661373075,1.0900905369782357,-0.6210538413260821
2.0875040208311417,18.236759326965725,-0.029023123463763564,1.0720780840967168,-0.6004996926577905
2.0808898162227125,17.992218844835072,-0.02849169921823043,1.0543608909523996,-0.5807812254218145
2.0743974531541234,17.75172047337626,-0.027963631812980803,1.0369292956459841,-0.5618550839958869
2.0680260955999947,17.515199591085285,-0.027439477353353496,1.0197740286233752,-0.5436805793686422
2.0617747880723174,17.282593665672664,-0.026919718539491776,1.0028861923559356,-0.526219498662617
2.0556424716339348,17.053842170690842,-0.026404772229053814,0.9862572422685721,-0.5094359300842906
2.0496321668185455,16.82899956335397,-0.025858747904764574,0.9688958650085796,-0.5130544536889788
2.043744887076305,16.608135095364105,-0.02533498898428283,0.9516647262076348,-0.5191355662013291
2.0379754305423656,16.391219264413078,-0.024834198267364802,0.9345598907578415,-0.5275455445689883
2.0323184527200624,16.178223454377317,-0.02435691323092425,0.9175775878140032,-0.5381550237806363
2.026768502910982,15.969119898437906,-0.023903519891516012,0.9007142029634829,-0.5508386842420121
2.021320057582517,15.763881643934333,-0.02347426557339349,0.8839662709806184,-0.5654749520274913
2.0159675509151764,15.562482518821195,-0.023069270664351254,0.8673304691336252,-0.5819457107264371
2.010705402753777,15.36489709960405,-0.022688539434775397,0.8508036110154462,-0.6001360236612188
2.005528044170036,15.171100680636837,-0.022331969989059994,0.8343826408733616,-0.6199338653027571
2.0004299408288277,14.981069244668632,-0.02199936341275269,0.8180646284153863,-0.6412298607500562
1.995405614336418,14.794779434532284,-0.021690432173415475,0.8018467640745927,-0.6639170321726773
1.9904496617362344,14.61220852587142,-0.02140480782818232,0.7857263547155304,-0.6878905511396597
1.9855567733060666,14.433334400805595,-0.021142048086320694,0.7697008197699173,-0.7130474957750835
1.9807217488000068,14.258135522436003,-0.020901643270719854,0.7537676877917621,-0.7392866116892974
1.975939512268793,14.086590910096064,-0.020683022218097667,0.737924593425107,-0.766508075635709
1.9712051255835241,13.9186801152524,-0.02048555765380482,0.7221692747806662,-0.7946132608357862
1.9665138007798983,13.754383197962227,-0.020308571073376108,0.7064995712208345,-0.82350450289929
1.9618609113331291,13.593680703792902,-0.020151337159400817,0.690913421555892,-0.8530848652423841
1.957242002467533,13.436553641108329,-0.02001308775882508,0.6754088626577789,-0.8832579028727272
1.952652800599389,13.282983458624997,-0.019893015442426595,0.6599840285016206,-0.9139274233673824
1.9480892220070485,13.13295202313764,-0.019790276664883283,0.6446371496492971,-0.9449972438157641
1.9435473808184227,12.98644159731068,-0.01970399454055919,0.6293665531938515,-0.9763709424351299
1.9390235964028741,12.843434817426711,-0.019633261246818114,0.6141706631884886,-1.0079516034894975
1.9345144002522092,12.703914670977252,-0.0195771400633119,0.5990480015894157,-1.0396415540533928
1.930016542433921,12.567864473973458,-0.019534667052237137,0.5839971897479295,-1.0713420910585103
1.9255269976991023,12.43526784784563,-0.019504852380969342,0.5690169504940602,-1.102953196943133
1.9210429713275476,12.306108695789696,-0.019486681284722713,0.5541061108618945,-1.134373242089908
1.9165619047935716,12.18037117840629,-0.01947911466289612,0.5392636055155405,-1.1654986720862524
1.9120814813380111,12.058039688463353,-0.019481089298498122,0.5244884809447743,-1.1962236776722794
1.907599631534859,11.939098824595952,-0.01949151768543428,0.5097799005108855,-1.2264398450529492
1.9031145389450406,11.823533363737017,-0.01950928744342091,0.49513715043636636,-1.256035784043781
1.898624645955147,11.711328232049418,-0.019533260294784482,0.4805596468471032,-1.284896731293204
1.8941286599055442,11.602468474102814,-0.019562270571327235,0.4660469439929175,-1.3129041255807268
1.8896255596203824,11.496939220007551,-0.019595123212688758,0.4515987437919695,-1.339935151931388
1.8851146024617624,11.394725650181769,-0.019630591210094122,0.4372149068670095,-1.3658622510184844
1.880595332041896,11.29581295738635,-0.01966741244091799,0.4228954652670739,-1.3905525900567777
1.8760675867407461,11.200186305614448,-0.019704285829950992,0.4086406370972983,-1.4138674911305982
1.8715315091926215,11.10783078536734,-0.01973986676243741,0.39445084331232727,-1.4356618126759024
1.866987556923854,11.018731364785388,-0.019772761661624363,0.3803267269655066,-1.45578327967312
1.8624365143453838,10.932872836030995,-0.019801521629422354,0.36626917524659625,-1.4740717580540692
1.8578795063292701,10.850239756238892,-0.019824635032434475,0.35227934468474,-1.4903584689482583
1.8533180136274379,10.770816382257063,-0.019840518896542418,0.33835868993986923,-1.5044651387892933
1.8487538904250034,10.694586598298926,-0.01984750895071503,0.3245089966526401,-1.5162030821132204
1.8441893843602966,10.621533835514175,-0.019843848133691066,0.31073241886692327,-1.5253722153141904
1.8396271593903442,10.551640982363477,-0.019827673344156305,0.297031521573922,-1.5317600019789392
1.8350703219357922,10.484890284553959,-0.019797000173687733,0.28340932894362997,-1.5351403341358287
1.8305224508053362,10.421263233164325,-0.019749705308538493,0.26986937879233047,-1.535272359459259
1.8259876314800425,10.360740439470778,-0.019683506215752874,0.25641578376025004,-1.5318992730859604
1.8214704954375116,10.303301494895376,-0.01959593763234339,0.24305329950412757,-1.5247471055644968
1.8169762653222818,10.248924814465273,-0.019484324239217327,0.22978739988806238,-1.513523557522116
1.8125108069341205,10.19758746223972,-0.01934574870131599,0.2166243585949929,-1.4979169597304245
1.808080689228689,10.149264957401805,-0.01917701395461151,0.20357133564776805,-1.4775954785040968
1.8036932538357784,10.10393106023259,-0.01897459815765363,0.19063646582367325,-1.4522067467346005
1.7993566960478131,10.061557538151831,-0.01873459999856568,0.17782894357422047,-1.4213781888878338
1.7950801598957298,10.022113913670434,-0.01845267088911522,0.16515909539445356,-1.3847184360381821
1.79087385094232,9.985567198822686,-0.018123928705751625,0.15263842502075134,-1.341820411017693
1.7867491720019153,9.951881624959391,-0.017742844689073757,0.1402796085731031,-1.292266925596847
1.7827188894986463,9.921018383416321,-0.01730309012196032,0.12809640484491244,-1.2356399966378189
1.7787973421942946,9.892935402463806,-0.016797321220229488,0.11610342952477364,-1.1715355792392277
1.7750007105176107,9.867587200129734,-0.016216867272673935,0.10431572120629001,-1.09958603367531
1.7713473752732396,9.84492487168993,-0.015551265287074595,0.09274800435722241,-1.0194933230792675
1.7678584115885698,9.824896294114502,-0.014787549362227034,0.08141353977693826,-0.9310764417733102
1.7645582914777909,9.807446652764913,-0.013909147253242502,0.07032247195861338,-0.8343362832393235
1.7614759125713366,9.792519403986063,-0.012894147585490921,0.05947969133573644,-0.7295387417291893
1.7586461422878439,9.780057748062521,-0.011712550531837814,0.04888253408635933,-0.6173099294298849
1.7561121909267756,9.77000653573468,-0.010321809129624666,0.038519312242702164,-0.4987229480170106
1.7539293828832732,9.762314156737641,-0.008659130379091953,0.028370939905448374,-0.37533284055336025
1.7521715995654887,9.756933152579624,-0.006625941949468092,0.018420400599060947,-0.24909323328088193
1.7509444106265164,9.753816269958815,-0.0040452662155098,0.008682926538409429,-0.12208619013949001
