x,y,v_x,v_y,omega
2.375,32.48,0.0,2.4615384615384617,-2.8571428571428577
2.3743077655010603,31.92017613785807,-0.006019430425563377,2.4064951223043667,-2.6869195566444546
2.3723277957330526,31.372775917586157,-0.011197697991895118,2.353506793103591,-2.5316963728649045
2.3692407262199393,30.83734090953344,-0.01564638473082887,2.302449798659152,-2.3897469895601
2.365203371914142,30.313439963237116,-0.01946104401523482,2.2532106039175805,-2.2595806930752005
2.360352122677108,29.80066700045552,-0.022723731958973748,2.2056847246180555,-2.1399057550193312
2.354805806989691,29.298639041613747,-0.025505100105522104,2.159775787049542,-2.029599163264013
2.348668115237061,28.80699443425383,-0.027866132526038888,2.1153947117323066,-1.9276814888439933
2.342029656768965,28.325391257306904,-0.029859593283492143,2.072459000849694,-1.8332959293211464
2.3349697112967127,27.853505879194287,-0.0315312369100099,2.030892113173043,-1.7456907648194309
2.3275577242748007,27.39103165115379,-0.03292082415009346,1.9906229132661015,-1.6642046152994185
2.3198545871366645,26.937677719951875,-0.03406297705109085,1.9515851841418241,-1.5882540070573172
2.311913736158469,26.49316794641585,-0.03498790102017498,1.9137171944323181,-1.5173228505904324
2.3037820979634094,26.05723991810268,-0.03572199632816867,1.8769613126386906,-1.450953506627293
2.295500904980883,25.6296440459918,-0.03628837743293004,1.8412636622385585,-1.3887391766253991
2.287106400328558,25.21014273640719,-0.036707315195985094,1.8065738124102315,-1.330317401701535
2.278630448424486,24.798509630487672,-0.03699661440463675,1.77284449993341,-1.2753644923132386
2.2701010650295523,24.39452890446963,-0.03717193685565688,1.740031378484342,-1.2235907420089254
2.261542878263305,23.997994624853845,-0.03724707850301765,1.708092792087673,-1.174736303723121
2.2529775303453032,23.608710153220642,-0.03723420774047641,1.6769895699401778,-1.1285676275934542
2.244424028322703,23.226487596054447,-0.0371440707169174,1.6466848402006407,-1.0848743760432822
2.235899050799168,22.85114729545557,-0.03698616861816974,1.6171438606591693,-1.043466745637347
2.2274172166368835,22.482517357065827,-0.03676891105386678,1.5883338644690321,-1.0041731365548165
2.2189913207272234,22.120433211926247,-0.036499749030134594,1.5602239193534142,-0.9668381198932299
2.210632541187795,21.76473720932765,-0.0361852904431562,1.5327847988952352,-0.9313206607844278
2.2023506217207545,21.41527823801581,-0.035831400574587884,1.5059888646859827,-0.8974925617630582
2.1941540323402147,21.071911373377716,-0.035443289690975384,1.4798099582539546,-0.8652370962158002
2.1860653437410114,20.734499177131138,-0.03489313291079191,1.4542091395423893,-0.8309817447252513
2.1781045715515392,20.402909654447264,-0.03433097308461733,1.429178014230413,-0.7984720467019638
2.1702741480409404,20.0770143462747,-0.03375966613798117,1.4046942307484223,-0.767596570250302
2.162575889117083,19.756689804071215,-0.03318171580860572,1.3807365710210329,-0.7382523412513309
2.1550110706186985,19.441817337378033,-0.03259931461213058,1.357284878484887,-0.7103441007321724
2.147580495750842,19.13228277732324,-0.0320143798909675,1.3343199915567598,-0.6837836360462748
2.1402845547228764,18.827976254855972,-0.03142858556960424,1.3118236820716676,-0.6584891776914933
2.133123277514468,18.528791992617947,-0.030843390155685796,1.289778598259009,-0.6343848545886798
2.126096380579326,18.234628109453382,-0.030260061454245812,1.2681682118676272,-0.6114002015070935
2.1192033081960058,17.9453864366434,-0.029679698400710657,1.2469767690887374,-0.5894697130733274
2.1124432690879242,17.660972345027847,-0.029103250365215758,1.2261892449595444,-0.5685324394536557
2.105815268858892,17.381294582247037,-0.02853153423506876,1.2057913009605628,-0.5485316193693434
2.0993181387244393,17.10626511939871,-0.027965249542778407,1.1857692455466182,-0.529414346602076
2.092950560961622,16.83579900646265,-0.027404991873024417,1.1661099973756233,-0.5111312665821159
2.086711091449687,16.569814235897063,-0.026851264752495704,1.1468010510208186,-0.4936363000334585
2.0805981796300332,16.308231613857938,-0.026304490201014774,1.1278304449715575,-0.47688639098533614
2.0746101861753896,16.05097463853552,-0.02576501810023689,1.1091867317451152,-0.46084127675404485
2.0687453986244084,15.79796938514085,-0.025233134516989428,1.0908589499476775,-0.4454632777585244
2.063002045208271,15.549144397111139,-0.02470906910159551,1.0728365981367742,-0.43071710526195656
2.057378307069887,15.30443058313514,-0.02419300166696211,1.055109610350155,-0.41656968533375166
2.0518723290534124,15.063761119629447,-0.023685068041511773,1.037668333177612,-0.4029899975050614
2.0464822292216747,14.827071358323817,-0.02318536527794685,1.0205035042626553,-0.38994892674928844
2.041206107241345,14.59429873863862,-0.022693956290139813,1.0036062321303638,-0.37741912755949303
2.0360420517600537,14.365382704560307,-0.02221087398195739,0.9869679772462829,-0.36537489901931375
2.0309920275203477,14.140372088822414,-0.021702380276354863,0.9696460726484418,-0.3725533846294547
2.026056162679658,13.919330782913125,-0.02121818355572925,0.9524522396062428,-0.38209667957275506
2.021228806060193,13.702229771526813,-0.0207588305265738,0.9353826420138668,-0.39387558758056507
2.0165041984294003,13.489040903502861,-0.02032471408901718,0.9184336016726806,-0.4077650711593793
2.011876506366047,13.279736856366345,-0.01991608646187996,0.9016015908187666,-0.4236439515233997
2.007339853227712,13.074291102523404,-0.019533071262773934,0.8848832252068123,-0.4413946206187003
2.002888347450969,12.872677876986796,-0.019175674621946727,0.868275257720215,-0.46090276401936
1.9985161083982081,12.674872146513703,-0.018843795402060395,0.8517745724805853,-0.4820570935284
1.9942172899491126,12.480849580043639,-0.018537234590075162,0.8353781794330196,-0.5047490883605794
1.989986102020243,12.290586520329388,-0.01825570392183586,0.8190832093865607,-0.5288727438203414
1.9858168301828318,12.104059956658325,-0.017998833794781535,0.8028869094922304,-0.5543243264166775
1.981703853536704,11.921247498565169,-0.01776618051937407,0.7867866391439177,-0.5810021343774939
1.977641660987113,11.742127350440239,-0.017557232955329093,0.7707798662902732,-0.6088062625392707
1.9736248660611835,11.566678286939762,-0.017371418574493865,0.7548641641486403,-0.6376383705933395
1.9696482203914718,11.394879629106448,-0.017208108988216345,0.7390372083149597,-0.6674014536678482
1.9657066259859028,11.226711221109571,-0.017066624973252828,0.7232967742665734,-0.6979996142142055
1.9617951463959156,11.062153407514252,-0.01694624102663569,0.707640735257954,-0.7293378341481959
1.9579090168880624,10.901187010989133,-0.016846189476434927,0.6920670606126426,-0.7613217461686249
1.9540436537184964,10.743793310360594,-0.016765664171965754,0.676573814418141,-0.7938574031397981
1.9501946626047464,10.58995401891957,-0.016703823773686954,0.6611591546342285,-0.8268510443777392
1.946357846484899,10.439651262884276,-0.016659794659768336,0.6458213326292102,-0.8602088576231216
1.9425292126507752,10.292867559918168,-0.01663267346304652,0.6305586931630355,-0.8938367354155874
1.9387049793389128,10.149585797597691,-0.016621529248801264,0.6153696748411175,-0.9276400245035259
1.934881581861151,10.009789211718129,-0.016625405340431883,0.6002528110681304,-0.96152326682945
1.9310556783553858,9.87346136431852,-0.01664332079665534,0.5852067315371708,-0.995389930522669
1.927224155236643,9.740586121297643,-0.016674271540240735,0.5702301642965455,-1.0291421292067853
1.9233841324290486,9.611147629482453,-0.016717231134492375,0.5553219384442438,-1.0626803277883121
1.919532968460623,9.485130292997827,-0.01677115119964293,0.5404809875090132,-1.095903032733088
1.9156682655051134,9.362518748771777,-0.01683496145696261,0.5257063535870676,-1.1287064646578284
1.9117878744584411,9.243297840993037,-0.0169075693836649,0.5109971923150297,-1.160984210863945
1.9078899001418197,9.127452594317916,-0.016987859456522907,0.49635277877297257,-1.1926268552187846
1.903972706729331,9.014968185599958,-0.017074691956421046,0.4817725144266607,-1.2235215825452923
1.90003492350487,8.905829913888798,-0.017166901299762716,0.4672559352355941,-1.253551754415262
1.8960754510619997,8.800023168413244,-0.017263293855630274,0.4528027210735769,-1.2825964529555287
1.8920934680706336,8.697533394227143,-0.017362645199727394,0.43841270663162907,-1.310529988974444
1.8880884387467272,8.598346055154558,-0.017463696747285092,0.42408589399953583,-1.3372213704044889
1.8840601211756212,8.502446593622064,-0.017565151697114877,0.4098224671525772,-1.362533726747107
1.8800085766565735,8.409820386910013,-0.017665670207647737,0.3956228086043813,-1.3863236849154386
1.8759341802557143,8.320452699290055,-0.017763863712864994,0.3814875185256939,-1.4084406916268075
1.8718376327775461,8.234328629442285,-0.01785828827120647,0.3674174366722917,-1.4287262773405702
1.8677199743916608,8.151433052460963,-0.017947436823449354,0.3534136675131294,-1.447013256729415
1.8635826001821607,8.07175055566179,-0.01802973021568194,0.3394776090014238,-1.463124860903748
1.859427277923039,7.995265367295826,-0.01810350682016058,0.32561098548521494,-1.4768737972122643
1.855256168424428,7.921961277154708,-0.01816701055906496,0.31181588530710036,-1.4880612336117847
1.8510718488433429,7.851821547920018,-0.018218377102543985,0.29809480369021274,-1.496475706620741
1.8468773394099012,7.784828815968478,-0.018255617970860602,0.28445069154055685,-1.5018919551596805
1.8426761340882214,7.720964980199241,-0.018276602217659414,0.270887010800618,-1.5040696877480042
1.8384722357734231,7.660211077308674,-0.018279035302326954,0.2574077969434433,-1.5027522984607127
1.8342701967270632,7.602547141817691,-0.018260434666019166,0.24401772906508687,-1.4976655590593904
1.8300751650800269,7.547952049082621,-0.0182181013951659,0.2307222077616004,-1.4885163327156323
1.8258929383953937,7.496403339534858,-0.01814908716686326,0.217527440479813,-1.474991381556405
1.8217300255016413,7.447877022564128,-0.018050155387505006,0.2044405331786966,-1.4567563800041434
1.8175937181069441,7.402347358889411,-0.01791773500116538,0.19146958573190148,-1.4334553045870497
1.8134921741343377,7.359786621112185,-0.017747864760629378,0.17862378624397474,-1.4047104573057743
1.8094345153510805,7.320164833665359,-0.017536124659000108,0.16591349590234455,-1.3701235063009947
1.8054309428296529,7.283449495927819,-0.017277549440369803,0.1533503105110549,-1.3292781120415715
1.8014928752827064,7.249605296412216,-0.016966516185250326,0.14094707658112712,-1.2817449731621102
1.7976331177112408,7.218593832420776,-0.01659659313184273,0.1287178276922655,-1.2270905027072911
1.7938660716809727,7.190373359424942,-0.016160328870489567,0.11667758966281695,-1.164890863005322
1.7902080048706557,7.164898608870843,-0.015648947740960636,0.10484198037284205,-1.0947537600841843
1.7866774079205556,7.142120733189177,-0.015051895303387451,0.093226503815553,-1.0163511808534267
1.7832954836464716,7.121987462325407,-0.014356141862560203,0.08184541673896382,-0.9294669387321706
1.7800868415198612,7.104443583139727,-0.013545094021008525,0.07071005444085804,-0.8340628862009547
1.7770805155828215,7.0894318682713156,-0.01259687064890335,0.05982659658879124,-0.7303656051941645
1.7743114981294286,7.076894551711877,-0.011481541989295314,0.04919354740631928,-0.6189687327530797
1.771823109538936,7.066775306819803,-0.010156619667160485,0.038799886437793654,-0.5009311910865188
1.7696707832900214,7.059021308332529,-0.008559260758186249,0.028626187364596982,-0.3778265156608613
1.7679285413017884,7.053584132393674,-0.0065906695742725206,0.018653603408061104,-0.2516705259428682
1.7667021129136558,7.050416197700006,-0.004073925105143119,0.008893654797733325,-0.12464730814215502
