x,y,v_x,v_y,omega
2.375,32.48,0.0,3.0769230769230766,-2.4897959183673475
2.3742209540083463,31.781598593892493,-0.006774312970899952,2.996132628359556,-2.3085471036205987
2.372014939690125,31.101349127554656,-0.012408420231027721,2.919080122404258,-2.14716632532903
2.3686229950402202,30.43842281945208,-0.01708675063770605,2.845496469792051,-2.0028525544764526
2.364247443363565,29.79204980089589,-0.020961524811471795,2.7751384741748444,-1.8732686125340745
2.3590585944199294,29.16151352539475,-0.02415890078535959,2.7077856606176507,-1.7564543758290414
2.3532001788841406,28.546145852095748,-0.02678384300410682,2.6432375854606347,-1.6507579505264594
2.346793776739425,27.94532270281065,-0.028924001732549682,2.581311538757609,-1.5547807558138895
2.3399424421906225,27.358460210308486,-0.030652820430952646,2.5218405699568494,-1.4673334463590493
2.332733683563276,26.78501128983102,-0.03203203719814589,2.46467178202113,-1.3874003375125628
2.32524192286977,26.224462577126847,-0.03311370796277557,2.409664850189078,-1.3141105413996506
2.317530533681866,25.67633168540242,-0.03394185019291332,2.356690730023311,-1.2467144303964643
2.3096535357514765,25.140164740965865,-0.0345537839843861,2.3056305259467393,-1.1845643529492278
2.301657009065902,24.61553416337124,-0.03498123067278351,2.2563744966152086,-1.1270987613469856
2.293580277666075,24.1020366608415,-0.03525121628223372,2.2088211775564854,-1.0738290907458778
2.2854569038137957,23.599291415873605,-0.03538681721584633,2.1628766047730186,-1.0243288671988242
2.277315525375487,23.106938439375657,-0.0354077778998856,2.118453625643914,-0.9782246297600482
2.269180563146676,22.624637074581678,-0.03533102408977167,2.0754712856080677,-0.9351883353785098
2.261072819930105,22.152064634436748,-0.03517109083693215,2.0338542808695754,-0.8949309808362497
2.253009989237323,21.688915158222702,-0.03494048040465119,1.9935324688177976,-0.8571972276053098
2.24500708830517,21.23489827496688,-0.034649962483636464,1.9544404290589186,-0.8217608563454666
2.237076827546426,20.789738162694576,-0.03430882672282981,1.9165170689611035,-0.7884209102411898
2.2292299264647073,20.35317259389131,-0.03392509572690071,1.879705268458639,-0.7569984123108167
2.2214753843606494,19.92495205866787,-0.033505705177951976,1.8439515595712468,-0.7273335626199589
2.21382071276341,19.504838958097075,-0.03305665653717142,1.8092058366965187,-0.6992833380800075
2.2062721353782755,19.092606861038803,-0.032583146811825524,1.7754210942449737,-0.6727194310532387
2.1988347603999365,18.6880398185089,-0.03208967908677409,1.742553188623756,-0.6475264739746135
2.1915127292637013,18.290931730293053,-0.031580156880487764,1.7105606219488294,-0.6236005061506731
2.184309345263065,17.901085759072462,-0.031057964864177532,1.6794043451867497,-0.6008476462118549
2.177227184927241,17.51831378782503,-0.030526038056032732,1.649047578703986,-0.5791829396950517
2.1702681946067686,17.142435916703334,-0.029986921252420678,1.619455648441148,-0.5585293561711281
2.163433774343228,16.773279995976843,-0.029442820169670425,1.5905958361370327,-0.538816914408605
2.1567248507875223,16.410681191967186,-0.02889564553211896,1.562437242207817,-0.5199819174405542
2.1501419406696396,16.05448158320823,-0.028347051145122842,1.5349506600439715,-0.5019662822057546
2.1436852061027025,15.704529784331317,-0.027798466828240637,1.5081084606248438,-0.48471695077102717
2.137354502818466,15.360680595415278,-0.027251126947728996,1.4818844864711396,-0.46818537209305633
2.131160243067341,15.022795351501667,-0.026612001322926578,1.4562480692993915,-0.4496727464506298
2.1251116249977633,14.69074089119405,-0.02598467754296313,1.4311820203320753,-0.4321009965203478
2.119205894092327,14.364388598177033,-0.02536950424344136,1.4066640059028452,-0.4154102153795702
2.113440227067499,14.04361486316365,-0.02476673075506343,1.382672820300484,-0.39954503217616705
2.107811753074066,13.72830083264465,-0.024176521361742278,1.3591883146473491,-0.38445421478315517
2.1023175718364215,13.418332173383504,-0.02359896766125333,1.3361913311017493,-0.37009031184821883
2.0969547691376107,13.113598851485644,-0.023034099284928725,1.31366364192313,-0.35640932988818297
2.0917204300022205,12.8139949249713,-0.022481893196726086,1.2915878929841986,-0.3433704416066804
2.086611649882059,12.519418348872357,-0.021942281761199084,1.269947551354429,-0.33093572207162003
2.081625544109005,12.229770791955836,-0.021415159743618958,1.2487268566153216,-0.3190699097875802
2.076759255844439,11.944957464251086,-0.02090039038304358,1.2279107755999024,-0.30774019004535963
2.0720099627244983,11.664886954625167,-0.020397810659917682,1.2074849602776516,-0.29691599823377435
2.0673748823743257,11.389471077712084,-0.01990723586332212,1.1874357085317822,-0.2865688410634885
2.0628512769419247,11.118624729557062,-0.019428463548858806,1.1677499275988548,-0.2766721338843978
2.0584364567827147,10.852265751387627,-0.018961276966012755,1.1484150999614482,-0.2672010524812868
2.0541277834089344,10.590314800969189,-0.018505448023380833,1.1294192515032375,-0.2581323979109433
2.049922671803363,10.332695231044767,-0.01806073985114997,1.1107509217526248,-0.2494444731008949
2.045818592184051,10.079332974396753,-0.0176269090124364,1.0923991360562026,-0.24111697006822294
2.0418130712956564,9.830156435103536,-0.01720370740838416,1.0743533795369982,-0.2331308667389153
2.037903693293339,9.58509638559573,-0.01679088391611463,1.0566035727047962,-0.2254683324560143
2.034088100276723,9.34408586914602,-0.016388185793591234,1.0391400485970206,-0.21811264136018507
2.030363992524133,9.107060107453403,-0.015995359881105037,1.0219535313387775,-0.21104809291082746
2.0267291284708957,8.87395641300716,-0.015612153625305113,1.0050351160198536,-0.2042599388908122
2.023181324469918,8.644714105938476,-0.015238315948412061,0.9883762497947949,-0.19773431630451477
2.0197214551633316,8.419374835223909,-0.01484750410886498,0.9710956694623193,-0.20889530046075241
2.0163487562987683,8.197995636173768,-0.01448031210472788,0.9539408440171535,-0.2223101909619384
2.0130577360407935,7.980548013828898,-0.014137255355922461,0.9369080459382498,-0.23785523271034345
2.0098428010305542,7.767004313239848,-0.01381870125485162,0.919993698314351,-0.255410582641277
2.0066982889725553,7.5573376856376235,-0.013524881858184906,0.9031943677919495,-0.27486002612489907
2.00361849841876,7.351522056166395,-0.013255905566121058,0.8865067580448274,-0.29609070440694735
2.000597715974133,7.149532093061435,-0.013011767865418748,0.8699277037374249,-0.31899285195506616
1.9976302411309015,6.951343178161533,-0.012792361206160131,0.8534541649573796,-0.3434595426226045
1.9947104089234113,6.7569313786504495,-0.012597484076362376,0.8370832220955232,-0.36938644357933675
1.9918326105813198,6.5662734199266986,-0.01242684933312973,0.8208120711544735,-0.3966715759887613
1.98899131234595,6.379346659504915,-0.012280091843997207,0.804638019469721,-0.42521508143458253
1.9861810726028377,6.196129061855466,-0.012156775487413918,0.7885584818298332,-0.4549189931147315
1.9833965574727404,6.016599174091748,-0.01205639955691029,0.7725709769850981,-0.4856870108297956
1.9806325549936203,5.840736102416749,-0.01197840460935134,0.7566731245366453,-0.517424278793913
1.9778839880172623,5.6685194892419375,-0.011922177793763079,0.7408626422008424,-0.5500371652898393
1.9751459259362274,5.49992949089248,-0.01188705769349666,0.725137343446611,-0.5834330431757415
1.972413595349718,5.334946755812901,-0.011872338710932644,0.709495135506265,-0.6175200702289452
1.969682389770604,5.173552403186864,-0.01187727502049303,0.6939340177636066,-0.6522069682808876
1.9669478784703225,5.01572800188352,-0.01190108411238952,0.6784520805263453,-0.687402800057346
1.964205814553578,4.861455549640738,-0.01194294994626004,0.6630475041935077,-0.7230167425879277
1.9614521423507392,4.710717452392757,-0.012002025730598618,0.6477185588324257,-0.758957855988041
1.9586830042125476,4.563496503645844,-0.01207743634063144,0.6324636041842031,-0.795134846344177
1.9558947467892152,4.419775863800705,-0.012168280383997953,0.6172810901213428,-0.8314558213482799
1.9530839268742302,4.279539039314297,-0.012273631920221227,0.6021695575865564,-0.8678280372280723
1.9502473168922123,4.142769861586348,-0.012392541836454728,0.5871276400477871,-0.9041576354061048
1.9473819101100123,4.009452465447058,-0.01252403887832755,0.5721540655112624,-0.9403493671895641
1.9444849256509595,3.8795712671119205,-0.012667130330827203,0.5572476591421144,-0.9763063046439161
1.941553813393814,3.753110941457223,-0.012820802340002912,0.5424073465509038,-1.0119295356346159
1.9385862588406089,3.6300563984552063,-0.012984019861781698,0.5276321578144679,-1.0471178408306578
1.935580188041285,3.5103927585907684,-0.013155726219295335,0.5129212323110875,-1.0817673502500005
1.9325337726679208,3.394105327061716,-0.01333484224474118,0.49827382446329227,-1.1157711766883143
1.929445435337552,3.281179566541283,-0.013520264975856022,0.4836893104969877,-1.1490190231078987
1.9263138552902246,3.171601068254649,-0.013710865870469921,0.469167196343322,-1.1813967607723712
1.9231379745381711,3.065355521089696,-0.013905488495212403,0.4547071268301929,-1.212785974595301
1.919917004613066,2.9624286784258196,-0.014102945636135523,0.44030889633394693,-1.2430634718293674
1.9166504340514012,2.862806322322168,-0.014302015769645673,0.42597246108910364,-1.2721007498614514
1.913338036773417,2.766474224657607,-0.01450143882152179,0.4116979533853383,-1.2997634185066476
1.9099798815290225,2.6734181047578396,-0.014699911129733213,0.3974856979169783,-1.3259105718245818
1.9065763426051077,2.583623582979378,-0.014896079513005816,0.38333623059137323,-1.3503941041370655
1.9031281120130108,2.4970761296442276,-0.015088534331315179,0.36925032014905745,-1.373057964641905
1.8996362134031817,2.4137610086319974,-0.015275801406328985,0.35522899300077754,-1.393737344846724
1.8961020179868433,2.3336632148363528,-0.015456332648786944,0.34127356174395407,-1.4122577930688178
1.8925272627824798,2.25676740457925,-0.015628495215243385,0.3273856578830269,-1.4284342505814664
1.888914071549152,2.1830578179483418,-0.015790558987607985,0.3135672693422598,-1.4420700048105168
1.8852649788201412,2.112518191880465,-0.015940682134224695,0.29982078342189905,-1.4529555565587553
1.881582957510777,2.045131662658221,-0.01607689446894154,0.2861490359019609,-1.4608674009456595
1.8778714506455827,1.980880656321009,-0.01619707827187902,0.2725553670303322,-1.4655667261665142
1.8741344078350042,1.919746765323307,-0.016298946167934376,0.25904368512359016,-1.4667980411396764
1.8703763272352167,1.8617106096148497,-0.016380015569347747,0.2456185384282028,-1.464287753869357
1.8666023038522237,1.806751680191713,-0.01643757906537518,0.23228519568603298,-1.457742738747629
1.8628180852135787,1.7548481631120154,-0.016468669966319835,0.21904973544177309,-1.4468489557859778
1.8590301356432717,1.705976742045575,-0.016470021949392757,0.20591914339685422,-1.4312702219527809
1.8552457106629978,1.6601123777307798,-0.01643802135733705,0.19290141586223292,-1.4106472903889007
1.8514729434478958,1.6172280633974978,-0.016368650078331104,0.1800056652967534,-1.3845974761017381
1.8477209458562451,1.5772945565200729,-0.016257415936023513,0.1672422205939099,-1.352715189674714
1.8439999274469898,1.5402800895545319,-0.016099265883586896,0.15462270954124113,-1.3145739220488455
1.8403213372931357,1.5061500661366338,-0.015888474584709905,0.14216010278831404,-1.2697304892283883
1.8366980356269345,1.4748667553714938,-0.01561849642573526,0.12986868647375854,-1.217732729509254
1.8331445059814784,1.446389006440672,-0.015281761360840071,0.11776391292469321,-1.1581323864453328
1.8296771244831291,1.4206720201969034,-0.014869382103066289,0.10586205441243034,-1.090505639443651
1.826314512913966,1.3976672351626966,-0.014370718498351287,0.09417955458067732,-1.0144846451752632
1.8230780187811906,1.3773224129942783,-0.013772708743175353,0.0827319425360051,-0.9298043664829542
1.8199923932771838,1.3595820403485455,-0.013058817378620965,0.07153216742688705,-0.8363693658548585
1.8170867838006242,1.344388188721286,-0.012207351982767628,0.06058828150581322,-0.734343814270012
1.8143962337514465,1.3316819599241754,-0.01118873540138531,0.04990066455601656,-0.62426200070667
1.811964013508173,1.3214055233567024,-0.009961005844473455,0.03945965342200014,-0.5071417896987254
1.809845364681975,1.3135043922501204,-0.008462027426811122,0.029245834461330333,-0.38455610603952706
1.8081139071220793,1.3079287544520426,-0.006594125267936176,0.01923797247849153,-0.2585829459107925
1.8068744493969264,1.3046306479774756,-0.004183767994261565,0.009441214256883018,-0.13153774695846182
1.8063015052098994,1.3035443535441686,-0.000798355371191052,4.824293618956033e-06,-0.005464831730168679
