x,y,v_x,v_y,omega
2.375,32.48,0.0,4.0,-4.816326530612245
2.373513101880255,31.69155364273607,-0.01486898119745296,3.884463572639268,-4.423972356526457
2.3693285539418403,30.92560594431534,-0.026976498186690654,3.7750134115680205,-4.080129898796964
2.362949095422068,30.18098956777107,-0.03681808701103485,3.6711503538746757,-3.777142204259807
2.354787957634675,29.45663141643091,-0.04479329086289094,3.572431159526938,-3.508767791772495
2.3451860300561207,28.751542269569022,-0.05122598492265566,3.4784603090919326,-3.269885145848921
2.334425430901335,28.064807905635917,-0.056380006625200034,3.388883330239115,-3.05626554323675
2.3227403032613525,27.39558144226671,-0.06047126977462311,3.303381303452944,-2.8643969182230653
2.3103254542351124,26.743076682780693,-0.06367722048777902,3.22166629140726,-2.691346224458976
2.2973433055196546,26.10656230345038,-0.0661442666668004,3.1434775018958447,-2.534651093858855
2.2839295137780637,25.485356749201603,-0.0679936507491058,3.0685780405919387,-2.392233975528336
2.2701975368841225,24.87882373080805,-0.06932611819030898,2.9967521433435786,-2.262333655696287
2.2562423602365427,24.286368236253104,-0.0702256482854889,2.9278028022059117,-2.1434503118057
2.2421435503579734,23.707432984269488,-0.07076245050020265,2.861549717630245,-2.0343011754774203
2.227967767087222,23.141495260209105,-0.07099538220731089,2.7978275229735794,-1.933784563371549
2.213770838044953,22.588064084111924,-0.07097390821538051,2.736484237998217,-1.8409505473174392
2.1995994776626326,22.04667766869607,-0.07073969560782284,2.677379916160299,-1.7549769216277185
2.185492716407013,21.51690113139527,-0.07032791694837706,2.620385456847722,-1.6751494192374243
2.171483092789742,20.998324429834682,-0.06976831922433119,2.5653815587581414,-1.6008453530067492
2.157597650486596,20.49056049449653,-0.06908610380712592,2.512257794623374,-1.5315200315069264
2.1438587747722555,19.993243535962158,-0.06830265333628033,2.460911790720339,-1.4666954325741903
2.130284896025834,19.506027507166742,-0.06743613412793407,2.4112484972338373,-1.4059507222555192
2.116891082914163,19.028584703675026,-0.06650199698877769,2.3631795376833162,-1.3489142884726038
2.103689543733779,18.560604487167367,-0.06551339481506105,2.3166226273932637,-1.2952570230370675
2.090690051072388,18.101792119182925,-0.06448153179884746,2.2715010524511716,-1.244686636512972
2.0779003022685205,17.65186769375611,-0.06341595623982836,2.2277432018169994,-1.1969428308416017
2.065326225973508,17.210565158947418,-0.06232480671029918,2.185282146269907,-1.1517931869076534
2.052972243350487,16.77763141844662,-0.06121501951991195,2.144055258738057,-1.1090296500919625
2.0408414910004717,16.352825505444375,-0.06009250398023945,2.104003871284405,-1.0684655176787468
2.0289360115221444,15.935917821852062,-0.058962290803031905,2.0650729646387154,-1.029932848815427
2.017256916639575,15.526689436718968,-0.057828658022661794,2.0272108866922163,-0.9932802313784638
2.005804527030559,15.124931438367607,-0.056695238067499945,1.990369096821403,-0.9583708512194061
1.9945784923256715,14.730444335356083,-0.05556510898137472,1.9545019332938551,-0.9250808183544967
1.9835778941988493,14.343037501892532,-0.05444087228684677,1.9195664013416487,-0.8932977121156629
1.9728013350137028,13.962528663780834,-0.05332471956461771,1.8855219797753189,-0.86291931341508
1.962247014109205,13.588743421377274,-0.05221848948036191,1.8523304442602693,-0.8338524973399304
1.9519127934904117,13.221514806391873,-0.05112371670757112,1.8199557055937499,-0.8060122634882841
1.941796254423516,12.860682869681618,-0.050041673961383266,1.7883636615088165,-0.7793208849413098
1.9318947462108984,12.506094297461129,-0.04897340816479491,1.7575220606960693,-0.7537071596700678
1.9222054282336334,12.157602053603743,-0.047919771607855835,1.7274003778777918,-0.729105750600854
1.9127253061901943,11.815065045926438,-0.0468814488265333,1.6979696988952533,-0.705456602595606
1.9034512633259264,11.478347814548833,-0.045858979816147394,1.669202614880793,-0.6827044263116123
1.8943800873342371,11.14732024059236,-0.04485278010074469,1.6410731246839274,-0.6607982403433641
1.885508493514029,10.821857273643282,-0.04386315810133727,1.613556544806869,-0.6396909642643993
1.8768331446858944,10.501838676544494,-0.04289033018000896,1.5866294261810037,-0.6193390562157167
1.8683506682997568,10.187148786208063,-0.04193443368136498,1.5602694771833219,-0.5997021895604704
1.8600576711070265,9.877676289254566,-0.04099553824593868,1.5344554923516485,-0.5807429638674788
1.8519507517193787,9.57331401138833,-0.04007365563053892,1.5091672863107042,-0.5624266461195123
1.8440265113326306,9.273958719510421,-0.03916874823694233,1.484385632468381,-0.5447209385836778
1.836290096128026,8.979511864620726,-0.03819540380910341,1.4600829164285696,-0.5252306451079418
1.8287457980607258,8.689878417843762,-0.03724757686389947,1.4362515513410883,-0.5066244860420803
1.8213885706087143,8.404965781009317,-0.036324697656216466,1.4128748170033558,-0.488851945741612
1.814213482692713,8.124684624213089,-0.0354261815037969,1.3899367509589384,-0.4718659420479878
1.807215721175851,7.848948738578649,-0.03455143366482119,1.3674221053854565,-0.45562255583855543
1.8003905924605892,7.577674897350612,-0.03369985348779671,1.345316306894917,-0.44008078471980916
1.793733523318616,7.310782724759278,-0.03287083793193464,1.3236054190184108,-0.4252023184603604
1.7872400610711292,7.048194572140698,-0.032063784542935486,1.3022761071673774,-0.4109513340235241
1.7809058732210663,6.78983540083577,-0.031278093957692495,1.2813156058818858,-0.3972943082914048
1.774726746625138,6.535632671428296,-0.030513172001589983,1.2607116881928386,-0.3841998467769451
1.7686985862816198,6.285516238915026,-0.029768431433592382,1.2404526369398683,-0.3716385268010713
1.762817413799561,6.039418253431027,-0.029043293386997154,1.2205272179001259,-0.3595827537718515
1.7570793656061214,5.797273066181482,-0.02833718854739535,1.2009246545953254,-0.34800662934408916
1.7514806909409912,5.559017140256408,-0.027649558103908074,1.1816346046554236,-0.33688583036325986
1.7460177496800977,5.324588966028134,-0.02697985450502567,1.1626471376273106,-0.32619749760913186
1.7406870100249685,5.093928980852805,-0.026327542046267256,1.143952714125967,-0.31592013345348574
1.7354850460890103,4.866979492816828,-0.025692097313313986,1.1255421662337899,-0.3060335076345532
1.7304085354075613,4.6436846082873195,-0.025073009501175653,1.1074066790613055,-0.2965185704294156
1.7254542563947175,4.423990163042255,-0.02446978062726253,1.089537773389328,-0.287357372575767
1.7206190857666015,4.207843656771438,-0.02388192565389828,1.0719272893188572,-0.27853299135714116
1.7158999959478338,3.9951941907534803,-0.023308972533777592,1.0545673708607093,-0.2700294623217796
1.7112940524754459,3.7859924085272034,-0.022750462190103696,1.0374504514020721,-0.26183171615554457
1.7067984114122754,3.5801904393878026,-0.02220594844160085,1.0205692399919388,-0.25392552027430876
1.7024103167799898,3.377741844549437,-0.02167499788125515,1.0039167083917242,-0.2462974247416686
1.6981270980202174,3.1786015658261277,-0.021157189716467583,0.9874860788413626,-0.23893471215414183
1.6939506600756555,2.98290142907468,-0.020607189729151494,0.9695152886731327,-0.26678576714385255
1.6898802973558946,2.7907845074979427,-0.020096437468458746,0.9516539270942285,-0.2962203170658599
1.685908247060512,2.6022292078963005,-0.019624065485365282,0.9338990689221784,-0.32713271804829613
1.6820269250106836,2.4172145108679217,-0.01918915501291898,0.9162479013616184,-0.3594196428481677
1.678228935357999,2.2357199487343706,-0.01879074151392724,0.8986977199739,-0.3929798520016793
1.6745070792334167,2.0577255842348947,-0.018427819731897464,0.8812459250208754,-0.4277139696853952
1.670854362432268,1.8832119899155018,-0.018099348279587393,0.8638900181730467,-0.46352426336151564
1.6672640022246838,1.7121602281407213,-0.017804253796256067,0.8466275995747402,-0.5003144262840793
1.6637294333748978,1.544551831657099,-0.017541434701604647,0.8294563652614658,-0.5379893619395324
1.660244313447594,1.3803687846382324,-0.017309764571433503,0.8123741049271928,-0.5764549694846188
1.6568025274747313,1.2195935041413186,-0.017108095157193078,0.7953787000419487,-0.6156179292266533
1.6533981920521272,1.0622088219048287,-0.0169352590688455,0.778468122322958,-0.6553854871655653
1.650025658931467,0.9081979664159796,-0.016790072137757052,0.7616404325655249,-0.6956652375831841
1.6466795181703233,0.7575445451751186,-0.01667133547368224,0.7448937798430785,-0.736364902622507
1.6433546009002298,0.6102325270818838,-0.01657783722725224,0.7282264010892815,-0.7773921077475068
1.6400459817708328,0.46624622486505984,-0.016508354066715875,0.7116366210789239,-0.8186541519116093
1.6367489811266642,0.3255702774743128,-0.016461652374971037,0.6951228528285311,-0.860057771189438
1.6334591669721534,0.18818963234723185,-0.0164364891701371,0.6786835984423072,-0.9015088945407828
1.6301723567801376,0.05408952745957407,-0.016431612750020867,0.6623174504342718,-0.942912390276884
1.6268846191993571,-0.07674452694018896,-0.01644576305778309,0.6460230935633577,-0.9841718016858022
1.623592275717291,-0.20432676701901897,-0.016477671762879433,0.6297993072249076,-1.0251890701445223
1.6202919023362146,-0.32867119458646954,-0.016526062047884392,0.6136449684495942,-1.0658642438990806
1.6169803313226203,-0.44979159698836924,-0.016589648088059624,0.5975590555694348,-1.1060951705289
1.6136546530931697,-0.5677015678073616,-0.016667134206444247,0.5815406526204561,-1.145777170926148
1.6103122183042493,-0.6824145285256975,-0.01675721368276178,0.5655889545628983,-1.184802692413855
1.6069506402170244,-0.7939437513232761,-0.0168585671894865,0.5497032734128646,-1.2230609383964428
1.6035677974157845,-0.9023023832039954,-0.016969860822912027,0.5338830453942948,-1.2604374716823457
1.6001618369644006,-1.0075034716671638,-0.01708974369092659,0.518127839237372,-1.2968137883402586
1.596731178094076,-1.1095599921678314,-0.017216845012319903,0.5024373657693227,-1.3320668586489914
1.5932745165253732,-1.2084848776414034,-0.01734977067470757,0.4868114889664021,-1.3660686313783053
1.58979082953896,-1.3042910504042524,-0.017487099189423767,0.4712502386621166,-1.398685497299275
1.5862793819228336,-1.39699145678415,-0.017627376971841874,0.4557538251368388,-1.4297777074760998
1.5827397329392148,-1.4865991048826714,-0.017769112864347597,0.44032265584837355,-1.4591987415507506
1.5791717444721414,-1.5731271059277248,-0.01791077180638397,0.4249573546021397,-1.4867946209191574
1.5755755905373694,-1.6565887197383091,-0.018050767541336707,0.40965878350373297,-1.5124031614461446
1.5719517683599171,-1.7369974048972665,-0.018187454233186504,0.3944280680858341,-1.535853160226189
1.5683011112519607,-1.8143668743113892,-0.018319116846377815,0.3792666260554268,-1.5569635109429576
1.5646248035553578,-1.8887111569334465,-0.018443960119651177,0.36417620016516383,-1.5755422427227348
1.560924397949608,-1.9600446665272102,-0.018560095937847146,0.3491588957724553,-1.5913854781772918
1.5572018354684471,-2.0283822784752275,-0.018665528873761706,0.3342172237077336,-1.6042763078280085
1.5534594686177385,-2.093739415758293,-0.01875813963332489,0.3193541491229068,-1.6139835806427476
1.5497000880454925,-2.1561321453727373,-0.018835666089135016,0.3045731470215023,-1.6202606145089073
1.5459269532840023,-2.2155772865914827,-0.018895681525767604,0.28987826516598036,-1.6228438368552076
1.5421438281675184,-2.2720925326068198,-0.01893556963907287,0.27527419498736494,-1.6214513754130513
1.5383550216315194,-2.3256965871999498,-0.018952495720915178,0.2607663509439196,-1.6157816338778548
1.5345654347289968,-2.3764093181364245,-0.018943373304312464,0.24636095842083847,-1.6055119093441679
1.5307806148670502,-2.424251928941132,-0.01890482531515337,0.2320651496262444,-1.5902971413002949
1.527006818492369,-2.469247150489579,-0.01883313843165793,0.2178870658582611,-1.5697689307439116
1.5232510837673776,-2.5114194533501575,-0.018724208818257843,0.20383596274755633,-1.5435350400180512
1.5195213152301652,-2.5507952808499894,-0.018573476553865695,0.18992231225075626,-1.5111796899856904
1.5158263831038656,-2.587403301149102,-0.01837584470912849,0.1761578907403712,-1.4722651264618423
1.5121762409534198,-2.6212746737965418,-0.018125576795329668,0.1625558357340553,-1.4263351536686808
1.5085820670115564,-2.652443321728782,-0.017816162623305612,0.14913064358835687,-1.372921656996615
1.5050564371000523,-2.6809461926462532,-0.017440136491734575,0.13589806558637724,-1.3115555942072468
1.5016135413071081,-2.7068234831153575,-0.016988821437706508,0.12287483910464438,-1.2417845546795545
1.4982694635278189,-2.7301187834133245,-0.01645195635518445,0.11007816387502953,-1.1631997745004887
1.4950425544088275,-2.7508790802382705,-0.015817134834731895,0.09752480437446163,-1.0754763644739052
1.4919539470359164,-2.769154528810148,-0.015068938894378749,0.08522968134431297,-0.9784311362186568
1.489028295460256,-2.784997881294231,-0.014187576862223493,0.07320384349648593,-0.8721019501829259
1.4862948663403714,-2.7984634519346017,-0.013146714336621264,0.06145186290721549,-0.7568491101963744
1.4837891971688104,-2.809605550570865,-0.011909977378989283,0.04996912345538134,-0.6334697067693493
1.481555683437226,-2.8184765035917465,-0.010425159936855149,0.03874040675343121,-0.503295958777233
1.4796517814653116,-2.825124840983193,-0.0086138597822905,0.027742967161005227,-0.36821831750064765
1.4781554821249416,-2.8295952390708123,-0.006349133621408031,0.016961013715180964,-0.23054663664301478
1.4771819429764133,-2.8319346912391694,-0.0033862578638771527,0.006433507968387904,-0.09262941083899576
