x,y,v_x,v_y,omega
2.375,32.48,0.0,2.358974358974359,-2.7346938775510203
2.374532335988806,32.0128605170002,-0.00467664011193889,2.3124204710235885,-2.5959048407426235
2.3731860352146463,31.5548868600141,-0.00878636762965818,2.2673160988374446,-2.46734765889827
2.3710680488891964,31.105796569438297,-0.01239349562484327,2.2235868069205607,-2.348024854235353
2.3682732557674693,30.665321553477884,-0.015554435592427288,2.1811633526835728,-2.237055059667883
2.3648859354696516,30.233207097068135,-0.018318767385750473,2.1399812114139296,-2.133657565702054
2.360981043755018,29.809210960259808,-0.02073014976058249,2.09998015666935,-2.0371391689600022
2.356625319023605,29.39310255578528,-0.02282709755354746,2.0611038880759094,-1.9468829436044925
2.351878244580559,28.984662196987813,-0.024643646876913998,2.023299699898787,-1.862338625210343
2.3467928872957002,28.583680408511494,-0.026209925971674153,1.9865181848643765,-1.783014351497023
2.34141663006524,28.189957293164195,-0.027552646332925163,1.9507129686086115,-1.7084695486541812
2.335791812806105,27.80330194921791,-0.02869552625842594,1.9158404708542327,-1.6383087879554372
2.329956294484408,27.42353193313102,-0.029659656958542925,1.881859690014686,-1.572176466669371
2.323943946817115,27.050472763288383,-0.030463819714391153,1.848732008411704,-1.5097521912696392
2.317785088724606,26.683957460877362,-0.031124761210695257,1.8164210156984717,-1.4507467606616287
2.311506869299005,26.323826124465803,-0.031657433045317936,1.784892348417141,-1.3948986634041685
2.305133605946025,25.969925535233962,-0.03207520048448266,1.7541135439012672,-1.3419710163643785
2.2986870834219495,25.62210879014676,-0.032390024756268176,1.724053906970721,-1.291748883422005
2.2921868186936494,25.280234960643,-0.03261262252673592,1.6946843880669062,-1.2440369221531526
2.2856502958749454,24.94416877467169,-0.03275260566030148,1.6659774716461628,-1.198657314207111
2.2790931749178904,24.613780320127645,-0.03281860391024799,1.6379070737942887,-1.1554479416144374
2.2725294772467035,24.28894476793328,-0.03281837280162407,1.6104484481493557,-1.1142607767488002
2.265971751102046,23.96954211318566,-0.032758888644952085,1.5835780993268582,-1.0749604582876549
2.2594312190030315,23.655456932939625,-0.03264643234519232,1.5572737031335018,-1.037423029423211
2.252917909424707,23.346578159332687,-0.03248666343804856,1.5315140329358963,-1.0015348178846322
2.246440774522083,23.0427988668771,-0.03228468558819224,1.5062788916199483,-0.9671914401430233
2.2400077955016906,22.744016072851366,-0.03204510461573164,1.4815490486374123,-0.9342969145632969
2.2336322319175044,22.450131856968255,-0.03171053122613272,1.4572931101936704,-0.9008045413570296
2.227325605624281,22.16105180909229,-0.03135573170610289,1.4335073685659931,-0.8688405316147759
2.221091681700332,21.876683560105484,-0.030983507533382748,1.410175121302074,-0.8383170805886919
2.2149336936418567,21.596938005424768,-0.030596373051371965,1.3872804255050477,-0.8091523811409838
2.2088543978826998,21.321729157442075,-0.030196584540196393,1.3648080543218946,-0.7812701491136602
2.2028561228085017,21.05097400636923,-0.02978616620178501,1.3427434564065566,-0.754599191263316
2.1969408128475543,20.784592388916543,-0.029366933407690678,1.3210727181203281,-0.7290730115025461
2.191110068155156,20.52250686427913,-0.02894051351629333,1.2997825282537856,-0.704629451659024
2.1853651803505914,20.264642596946352,-0.028508364529352542,1.2788601450739876,-0.6812103633762427
2.1797071647150674,20.01092724588714,-0.028071791825883943,1.258293365518157,-0.6587613081437653
2.1741367892141406,19.761290859698242,-0.02763196318338496,1.2380704963707772,-0.6372312827658908
2.1686546006686034,19.515665777333645,-0.027189922271986126,1.2181803272751945,-0.6165724678613581
2.163260948362836,19.27398653406177,-0.026746600785688027,1.198612105443592,-0.5967399972377866
2.157956005348661,19.036189772323336,-0.026302829356060754,1.1793555119407337,-0.577691746207053
2.1527397876753263,18.802214157186533,-0.025859347377288396,1.1604006394273179,-0.5593881371052538
2.1476121717519034,18.572000296117977,-0.025416811856938733,1.1417379712582234,-0.5417919604563469
2.1425729100268027,18.345490662808203,-0.024975805394072476,1.1233583618395016,-0.5248682103746708
2.1376216451498897,18.12262952480868,-0.02453684337505612,1.1052530181557492,-0.5085839329406006
2.1327579227656326,17.90336287475445,-0.024100380467516506,1.0874134823865633,-0.49290808640764383
2.12798120307047,17.68763836496207,-0.02366681648410803,1.0698316155372172,-0.47781141221004986
2.123290871254058,17.475405245206893,-0.023236501680011554,1.0524995820145535,-0.4632663158390519
2.1186862469319347,17.266614303496993,-0.02280974154122232,1.0354098350844403,-0.44924675674451764
2.114166592666352,17.061217809673344,-0.022386801114604674,1.0185551031520106,-0.4357281464982356
2.1097311216623615,16.85916946167711,-0.02196790892529885,1.0019283768103688,-0.42268725452634454
2.1053790047176038,16.660424334335318,-0.021553260522277705,0.9855228966075231,-0.4101021207824309
2.1011122498627115,16.465120190268046,-0.02111428802664401,0.9675185440652024,-0.43390119581806824
2.0969301772533577,16.273405767821917,-0.020706438066894886,0.949625680396078,-0.4593670163317285
2.0928266069186874,16.08525906936525,-0.020329265279807135,0.9318413041705891,-0.48639055924147706
2.088795455462431,15.900658685840249,-0.019982249282757627,0.9141625310794147,-0.5148652088904933
2.084830750380842,15.719583773759645,-0.019664801533133606,0.8965865897266393,-0.5446865233220246
2.0809266430661886,15.542014033005827,-0.019376271613398603,0.8791108178115311,-0.5757520053856409
2.0770774206067637,15.367929685355797,-0.019115952980853897,0.861732658688758,-0.6079608777418454
2.0732775164869217,15.197311453656983,-0.0188830882175641,0.8444496582993954,-0.641213860835774
2.069521520283912,15.03014054158028,-0.018676873812532076,0.8272594624676463,-0.675412952907579
2.0658041864521604,14.866398613877433,-0.018496464504985467,0.8101598145608264,-0.7104612110969465
2.062120442280207,14.70606777707006,-0.018340977214548037,0.7931485535129077,-0.7462625326817696
2.0584653951006433,14.549130560497293,-0.018209494581087112,0.7762236122147824,-0.7827214354659197
2.054834338829122,14.395569897648066,-0.01810106813412766,0.7593830162774692,-0.8197428362979149
2.0512227599048214,14.245369107702544,-0.018014721108877224,0.7426248831777575,-0.8572318266605221
2.047626342701625,14.098511877204835,-0.017949450923086908,0.7259474217993406,-0.8950934442203541
2.044040974476701,13.954982241786265,-0.017904231326153736,0.7093489323863685,-0.9332324391656087
2.0404627499211836,13.814764567854564,-0.017878014229019624,0.6928278069306396,-0.9715530340884411
2.0368879753762306,13.67784353415966,-0.017869731220510505,0.6763825300183948,-1.0099586760851382
2.0333131727769045,13.54420411314102,-0.017878294772752452,0.6600116801679953,-1.0483517796512913
2.0297350833861127,13.413831551954647,-0.017902599135163916,0.643713931695725,-1.0866334588394084
2.026150671381275,13.286711353069705,-0.017941520913214753,0.6274880571536952,-1.1247032470217286
2.022557127357491,13.162829254315191,-0.017993919324620408,0.6113329303914588,-1.1624588024601392
2.0189518718128436,13.042171208245882,-0.0180586361218556,0.5952475303016236,-1.199795597726839
2.015332558684081,12.924723360683753,-0.018134495165772514,0.5792309453196514,-1.236606590842539
2.01169707900444,12.810472028275854,-0.018220301630634532,0.563282378759348,-1.272781875802513
2.0080435647597805,12.699403674892068,-0.01831484081596071,0.5474011550785095,-1.308208309943986
2.0043703930246703,12.591504886665813,-0.018416876535142585,0.5315867271840417,-1.3427691153709336
2.00067619046668,12.48676234545712,-0.018525149044757716,0.5158386849029097,-1.3763434513949715
1.996959838315028,12.385162800490349,-0.018638372471764895,0.5001567647648101,-1.4088059546755303
1.9932204778990306,12.286693037887385,-0.018755231688211006,0.48454086126483303,-1.4400262434526987
1.9894575168727515,12.191339847780906,-0.01887437857457766,0.46899103979997026,-1.4698683819686653
1.9856706362549645,12.099089988650661,-0.018994427603292136,0.45350755150247263,-1.4981903008794137
1.9818597984283315,12.0099301484778,-0.019113950663038132,0.438090850226131,-1.5248431691841668
1.9780252562588174,11.923846902257306,-0.01923147103210347,0.4227416119787928,-1.549670712971818
1.9741675635161253,11.84082666534583,-0.019345456394817558,0.407460757135963,-1.572508476139787
1.9702875867987628,11.760855642050632,-0.01945431077880761,0.3922494758160013,-1.5931830182383724
1.9663865191936942,11.683919768784374,-0.019556365271876368,0.3771092568465941,-1.6115110448163381
1.962465895930992,11.61000465101937,-0.01964986735514784,0.3620419208034474,-1.6272984662131054
1.9585276123291908,11.539095493173736,-0.01973296866286368,0.347049657652874,-1.6403393818369276
1.954573944368147,11.471177020450892,-0.019803710947575326,0.33213506957556105,-1.6504149888444308
1.9506075722743303,11.406233391535167,-0.019860009990589036,0.3173012195816723,-1.657292417168885
1.9466316075604184,11.344248100923476,-0.019899637148530568,0.30255168653524844,-1.660723497575586
1.942649624029227,11.285203869553044,-0.01992019816338256,0.2878906271690788,-1.6604434766419114
1.9386656933350546,11.229082522280212,-0.01991910877834183,0.27332284555923747,-1.6561697034149072
1.9346844257987994,11.175864850694897,-0.019893566584209762,0.2588538702939077,-1.647600328661964
1.930711017305101,11.125530459751396,-0.019840518352775033,0.24449003914110617,-1.6344130815342348
1.9267513032832793,11.07805759680895,-0.01975662186544222,0.23023859028335486,-1.6162642236499702
1.9228118210098317,11.033422961982989,-0.019638200869032493,0.21610775797624196,-1.5927878322166786
1.9188998818022622,10.991601499330276,-0.01948119120666238,0.20210686855089666,-1.5635956392651995
1.9150236551568083,10.952566169510419,-0.019281075247878116,0.18824642964765567,-1.5282777639549874
1.9111922676061037,10.916287706454906,-0.019032800259166413,0.1745382009074745,-1.486404834055375
1.9074159201853875,10.882734363631865,-0.018730673947996043,0.16099522732293617,-1.4375322211681143
1.9037060301432454,10.851871660288275,-0.018368226473426067,0.14763180611295554,-1.381207437455734
1.9000754053217672,10.82366214534919,-0.017938021741354195,0.13446334327791198,-1.3169821876256682
1.8965384641321283,10.79806520740447,-0.017431390155035437,0.12150603616929322,-1.2444311588938362
1.8931115213623908,10.775036974366813,-0.016838037542339274,0.10877629420726989,-1.1631803470516595
1.8898131719477864,10.754530366310824,-0.0161454566037042,0.09628978635261021,-1.072948436056647
1.8866648241306831,10.736495388016255,-0.015338021567328657,0.08405999659307307,-0.9736050949923947
1.8836914645914637,10.720879766824567,-0.014395573824865405,0.07209621532381458,-0.8652491216014693
1.8809227884234199,10.707630037880683,-0.013291187855572912,0.060401074115026245,-0.7483053042426553
1.878394910111234,10.696693111942597,-0.011987595266285171,0.048968185265839584,-0.6236286972991656
1.8761530236101156,10.688018154762052,-0.01043126974489967,0.037781386539625886,-0.4925856758618495
1.8742557243386635,10.68155813242291,-0.008541722969622145,0.02681883685176533,-0.3570542692283812
1.8727827773357197,10.677269344078873,-0.006187747059816874,0.016069046588615712,-0.2192661033111631
1.8718529704406848,10.675104108223092,-0.003110321890531927,0.005583311969197818,-0.08142746075973317
