x,y,v_x,v_y,omega
2.375,32.48,0.0,3.1794871794871797,-7.020408163265306
2.37316074301048,31.820720998021372,-0.01751673323352368,3.099360458404491,-6.536113459456557
2.36793283772204,31.177885258161783,-0.03227284094209501,3.022884683115388,-6.102168351121189
2.359851900249587,30.550754990883703,-0.044688468319365085,2.9497845290568145,-5.711792041646462
2.349372655616289,29.938647045421625,-0.055113861521563834,2.879814951534408,-5.359288486981087
2.336882255604139,29.340927034175802,-0.06384232907034332,2.8127565841400948,-5.039847144790626
2.3227111572354806,28.757004328930478,-0.07112051253592816,2.7484120372439573,-4.749385064522258
2.307142061213387,28.186327762016088,-0.07715659243638845,2.6866028857502195,-4.484420725113527
2.2904172952946102,27.628381903926513,-0.08212689250434606,2.6271671912933545,-4.241972497095146
2.272744942463508,27.08268381724794,-0.08618122969662746,2.5699574437406882,-4.019476375992842
2.2543039496126758,26.54878020794237,-0.08944727364462983,2.5148388353599422,-3.814718920460251
2.2352484035025797,26.026244911050348,-0.09203411788009541,2.461687801706954,-3.6257822755670808
2.215711123069303,25.514676660129307,-0.09403521957968392,2.410390778493424,-3.450998866815448
2.195806687832176,25.013697099214028,-0.09553083029771721,2.3608431349854246,-3.288913881056034
2.175633999168702,24.522949003480267,-0.09659001411631932,2.3129482529551577,-3.138254053563012
2.1552784530713103,24.04209468062398,-0.0972723296683625,2.2666167266285338,-2.9979015894298695
2.1348137885673935,23.570814529609727,-0.09762923703560684,2.22176566398337,-2.866872286075684
2.1143036644387205,23.108805737169103,-0.0977052784755625,2.1783180735464036,-2.744297109352704
2.093803007589502,22.655781095448468,-0.09753907246937638,2.1362023237929977,-2.6294066212450726
2.073359168904118,22.211467926669698,-0.09716415310571097,2.095351664576229,-2.5215177718684108
2.0530129163365434,21.775607102694664,-0.09660968087119043,2.055703801852669,-2.420022659462707
2.0327992899975786,21.347952149063694,-0.09590104616656976,2.0172005184423014,-2.324378934623163
2.0127483399297494,20.92826842447921,-0.09506038305084774,1.9797873347432384,-2.2341015831654225
1.9928857639077338,20.516332367881652,-0.09410700763501853,1.9434132042811298,-2.148755868855591
1.9732334598357886,20.111930806257725,-0.09305779305017194,1.908030239756246,-2.06795125512553
1.9538100050228635,19.714860317164373,-0.09192749088244845,1.8735934658947475,-1.9913361556795182
1.93463107271296,19.32492664067143,-0.09072900730710899,1.8400605959428413,-1.918593389013319
1.9157097946624766,18.941944136043475,-0.08947364079273269,1.8073918290852702,-1.8494362324346225
1.89705707723094,18.56573527901332,-0.08817128712666208,1.7755496664400088,-1.7836049880799751
1.8786818773408476,18.196130195959896,-0.0868306165885063,1.7444987435926296,-1.7208639873684282
1.8605914437290592,17.83296623170346,-0.08545922733328627,1.7142056778972243,-1.6609989718734943
1.8427915281259697,17.476087547979823,-0.08406377841042294,1.6846389289945405,-1.6038147981777744
1.825286570334725,17.125344749960558,-0.08265010531571862,1.6557686711889372,-1.5491334222557798
1.8080798606207371,16.78059453845433,-0.08122332053178362,1.6275666764893981,-1.4967921255975458
1.791173682344923,16.44169938566058,-0.07978790114263876,1.6000062072606254,-1.4466419508709412
1.7745694373686578,16.10852723255527,-0.07834776529798243,1.5730619175518292,-1.398546319612615
1.7582677564129958,15.780951206173327,-0.07690633904165581,1.5467097622762098,-1.3523798083896954
1.7422685962597442,15.45884935521622,-0.07546661479883504,1.520926913505778,-1.3080270632119364
1.726571325429655,15.142104402559372,-0.07403120263058441,1.4956916832261113,-1.265381834799654
1.7111965901643793,14.830607797240823,-0.07239484751489766,1.4709426531410092,-1.218450984963343
1.696162510484478,14.524254929574585,-0.07078686372225973,1.4467037055850687,-1.173747921867359
1.6814630528257983,14.2229406647165,-0.06920797112230723,1.4229559597300274,-1.1311397692323493
1.6670920532525741,13.926563737977602,-0.067658691479829,1.3996814377832847,-1.090503084324935
1.653043256279133,13.635026570897221,-0.06613937493389437,1.3768630106013087,-1.0517230820450838
1.6393103484740514,13.348235098325613,-0.06465022320974084,1.354484347223511,-1.0146929313422286
1.6258869874899404,13.066098605727547,-0.06319130997226745,1.3325298679961886,-0.9793131164401019
1.6127668270818045,12.7885295759842,-0.06176259867664713,1.3109847009880602,-0.9454908562114568
1.5999435386070728,12.515443545030578,-0.06036395822555848,1.289834641427379,-0.913139575797491
1.587410829439597,12.246758965719525,-0.05899517670278244,1.2690661139159682,-0.8821784252273939
1.5751624586768607,11.982397079352538,-0.0576559734185169,1.2486661371982164,-0.8525318403734417
1.5631922504733595,11.722281794361972,-0.056346009471969084,1.2286222912833684,-0.8241291420871092
1.5514941052926536,11.466339571669764,-0.055064897010944754,1.2089226867376621,-0.7969041698108705
1.5400620093352044,11.214499316284492,-0.05381220734571268,1.1895559359792085,-0.7707949463565927
1.5288900423681389,10.966692274732235,-0.05258747805491235,1.1705111264232242,-0.7457433708914334
1.5179723841559225,10.722851937947258,-0.05139021920429006,1.1517777953384725,-0.7216949374817742
1.507303319667126,10.482913949276508,-0.050219918784249806,1.133345906287719,-0.6985984768200008
1.4968772432115536,10.246816017277538,-0.049076047459295793,1.1152058270358038,-0.6764059190022409
1.4866886616436548,10.014497833012815,-0.0479580627111698,1.0973483088186928,-0.6550720754412781
1.4767321967519806,9.785900991564901,-0.046865412447632336,1.0797644668757085,-0.6345544381910669
1.4670025869402568,9.56096891751666,-0.04579753814021373,1.0624457621551626,-0.6148129951304361
1.4574946882931297,9.339646794158725,-0.044753877546709286,1.0453839841108827,-0.5958100596061813
1.4482034751086301,9.121881496203141,-0.04373386706757253,1.028571234513739,-0.5775101132719921
1.4391240399696823,8.907621525797328,-0.04273694377955167,1.0119999122082983,-0.5598796609814246
1.430251593418424,8.696816951646685,-0.0417625471848137,0.9956626987502066,-0.5428870967020942
1.4215898786604624,8.48956183377312,-0.040729974319580406,0.9781955667123281,-0.5537946720710737
1.4131403500286153,8.285962336333405,-0.039741726936106295,0.960847266046861,-0.5668145487392516
1.4048937711379987,8.085993859227724,-0.03879711964119547,0.943614420673898,-0.5818260100762895
1.396841057480052,7.889632496992036,-0.037895391386866185,0.9264937910945589,-0.5987118447017163
1.3889732915080777,7.696855010738094,-0.037035713108130204,0.9094822684668028,-0.6173580757484529
1.381281736186575,7.507638801288472,-0.03621719471570391,0.8925768691486508,-0.6376536998710599
1.373757847134854,7.321961883410726,-0.03543889149116455,0.8757747296870306,-0.6594904349075645
1.366393283485832,7.139802861059092,-0.03469980992809141,0.8590731022332775,-0.6827624751439718
1.359179917572185,6.961140903535849,-0.03399891305902297,0.8424693503690487,-0.7073662531633945
1.3521098435440058,6.785955722487547,-0.03333512530458846,0.8259609453290803,-0.7332002072873599
1.3451753850148436,6.614227549653961,-0.0327073368779092,0.80954546260984,-0.7601645536353968
1.338369101826363,6.445937115289574,-0.032114407774286764,0.7932205789557557,-0.7881610618405402
1.331683796015869,6.281065627178897,-0.03155517137327622,0.7769840697173476,-0.8170928334629016
1.3251125170655416,6.119594750167856,-0.031028437677461846,0.7608338065782919,-0.8468640821408498
1.3186485665074017,5.961506586133755,-0.030532996209585436,0.7447677556512373,-0.8773799145094937
1.3122855019537494,5.806783654316138,-0.030067618587102513,0.7287839759451074,-0.9085461108988024
1.3060171406190764,5.6554088719298825,-0.02963106079073646,0.7128806182097033,-0.9402689047985705
1.299837562396229,5.507365534980359,-0.02922206514114267,0.6970559241667063,-0.9724547600441334
1.293741112546896,5.362637299198184,-0.028839361995361298,0.6813082261397199,-1.005010144634841
1.2877224040642912,5.221208161008029,-0.028481671172304247,0.6656359470998461,-1.037841300046268
1.2817763197642225,5.083062438442056,-0.028147703114065253,0.6500376011475115,-1.0708540048364084
1.2758980141595755,4.948184751903696,-0.027836159787334964,0.6345117944559234,-1.103953331275001
1.2700829151726103,4.8165600046816195,-0.027545735326618224,0.6190572267067188,-1.137043393642992
1.2643267257393982,4.688173363106728,-0.027275116418258277,0.6036726930541617,-1.1700270867551923
1.25862542536123,4.563010236236661,-0.02702298242143993,0.5883570866607465,-1.202805813152732
1.2529752716589484,4.44105625494257,-0.026788005219335487,0.5731094018543911,-1.2352791972922303
1.247372801987933,4.32229725026146,-0.026568848790334283,0.5579287379656929,-1.2673447849250996
1.2418148351739373,4.206719230864188,-0.026364168485815607,0.5428143039131077,-1.298897725712686
1.2362984734332272,4.094308359473782,-0.026172609997137424,0.5277654236145785,-1.3298304369609355
1.2308211045445394,3.985050928051045,-0.025992807990365078,0.51278154231626,-1.3600322461824028
1.2253804043453682,3.8789333315438483,-0.02582338438269359,0.4978622339427713,-1.389389010004911
1.2199743396310927,3.7759420399730033,-0.0256629462294539,0.483007209589074,-1.4177827067474036
1.2146011715425795,3.6760635686005045,-0.025510083184956345,0.46821632729186313,-1.4450909997786041
1.2092594595362767,3.5792844458948174,-0.025363364494119148,0.4534896032384931,-1.4711867685695519
1.2039480660405961,3.485591178972385,-0.02522133546474368,0.438827224594182,-1.4959376041570012
1.1986661619137569,3.3949702161538546,-0.025082513362296516,0.4242295641537177,-1.5192052655662116
1.1934132328314184,3.3074079062272297,-0.024945382659974674,0.4096971970522382,-1.5408450936211162
1.1881890867476432,3.222890453957657,-0.024808389566454776,0.39523091980084063,-1.5607053785298148
1.1829938625902778,3.1414038713241865,-0.024669935741787816,0.3808317719464979,-1.5786266777208557
1.1778280403720964,3.062933923897212,-0.024528371098035778,0.36650106069135474,-1.5944410806885467
1.172692452922482,2.9874660716961436,-0.024381985564957905,0.352240388842621,-1.607971418180614
1.1675882994715892,2.9149854037853054,-0.024228999681641473,0.338051686498695,-1.619030414067694
1.1625171613506176,2.8454765657778083,-0.024067553851421203,0.32393724690603964,-1.6274197798697514
1.1574810201090526,2.7789236793241194,-0.023895696068244123,0.30989976693861804,-1.6329292544629788
1.1524822783939037,2.7153102525675443,-0.02371136788555514,0.29594239264782096,-1.6353355953572588
1.1475237839891341,2.6546190804589678,-0.02351238835034665,0.28206877029101224,-1.634401533698513
1.1426088574785611,2.596832133747821,-0.02329643555987334,0.2682831031484728,-1.629874713642329
1.1377413240769052,2.5419304354212606,-0.023061025408277324,0.25459021424734324,-1.6214866491544075
1.1329255502780569,2.489893923373863,-0.022803486961706112,0.24099561477550122,-1.608951749323514
1.128166486107291,2.440701298194284,-0.022520933712254096,0.22750557741095573,-1.5919664893622003
1.1234697139511824,2.3943298552117582,-0.02221022967925754,0.2141272128987995,-1.5702088420985885
1.1188415052007363,2.35075530044233,-0.021867948896420412,0.20086854681005636,-1.5433381388630338
1.1142888863201774,2.3099515509437083,-0.021490326156520696,0.1877385912720604,-1.5109956061690109
1.109819716510664,2.271890521521506,-0.021073195838845316,0.17474740322511095,-1.472805935010712
1.105442779979041,2.2365419020063015,-0.020611913986136852,0.16190611596730412,-1.4283803956576249
1.1011678971144083,2.203872932830702,-0.020101256153221392,0.14922692380030886,-1.3773222284806967
1.097006060889965,2.1738481919016586,-0.019535279317667187,0.13672298980963563,-1.3192353383433177
1.0929696079777453,2.1464294134362696,-0.018907129370138887,0.12440823367026116,-1.2537377104979588
1.0890724390792443,2.1215753701944315,-0.018208764901298774,0.11229694006154564,-1.1804814453950228
1.0853303109191648,2.099241864818481,-0.017430550908983287,0.10040311113797126,-1.0991818210597881
1.0817612348964898,2.0793818931687404,-0.016560649306969547,0.08873947600240942,-1.0096581514809981
1.0783860370827756,2.061946059299437,-0.015584091776022505,0.07731608465763463,-0.9118889704791414
1.075229165005598,2.0468833287037214,-0.014481356578048358,0.0661384924444104,-0.8060823044216939
1.0723198750022436,2.034142182680128,-0.013226167263422189,0.055205755399324326,-0.692756883258483
1.069694013851565,2.023672141811467,-0.011782034171612804,0.04450891954029404,-0.5728199686570208
1.067396760868544,2.015425392794647,-0.010096565666683032,0.03403154728655786,-0.44761109819126005
1.0654870719964569,2.0093577665832996,-0.008090947400812901,0.02375536901197732,-0.31886278777441823
1.0640458197916294,2.005427257262472,-0.0056352640737339105,0.013678053091138929,-0.18852256827165964
1.063195692984069,2.003584531093818,-0.0024611817125571194,0.003871719943656109,-0.05840784369974436
