x,y,v_x,v_y,omega
2.375,32.48,0.0,2.2051282051282053,-3.1020408163265305
2.37461541221773,32.08663509871838,-0.004273197580776539,2.1655929202230757,-2.965496553613651
2.3735030065950076,31.700292786030047,-0.008086864893915987,2.1270994429806462,-2.8374670052627757
2.3717414270162744,31.320789770303016,-0.011486241536452956,2.089600731764133,-2.717239780170948
2.369401608057762,30.947950965765596,-0.014511746891468497,2.053052651985,-2.6041743253374996
2.366547591459262,30.581608990786997,-0.017199548647415387,2.0174137366660756,-2.497693594591416
2.3632372469405287,30.221603706967272,-0.019582057116288597,1.9826449724419781,-2.397276804956072
2.359522909756194,29.867781794760383,-0.02168835604298333,1.9487096076345571,-2.302453122817536
2.355451945611322,29.519996361911975,-0.023544578900039408,1.9155729795700003,-2.212796147320375
2.351067252066858,29.178106581464238,-0.025174238260673547,1.8832023587381646,-2.1279190792407383
2.3464077043020577,28.84197735648008,-0.02659851468155219,1.8515668077524978,-2.0474704808289776
2.341508552030306,28.51147900897947,-0.027836510560133865,1.8206370533654004,-1.971130546445358
2.3364017734537494,28.186486990872915,-0.028905473623828726,1.7903853700407364,-1.8986078157678274
2.331116391364808,27.866881614927998,-0.029820994031077717,1.7607854737917048,-1.8296362713589736
2.325678755837483,27.55254780402182,-0.030597178494751104,1.7318124251658,-1.763972770784978
2.320112797380787,27.243374857120447,-0.0312468043574277,1.7034425404050397,-1.7013947705613528
2.3144402539359232,26.939256230589955,-0.03178145614105922,1.6756533099337676,-1.64169830518471
2.308680874675913,26.640089333587035,-0.03221164674794684,1.648423323431978,-1.5846961895812812
2.302852603200977,26.345775336402344,-0.03254692519578392,1.6217322008423851,-1.5302164176122988
2.296971742406695,26.05621899074021,-0.032795972518462634,1.5955605287368841,-1.478100732947718
2.2910531030275725,25.771328461015763,-0.03296668724956293,1.569889801534724,-1.4282033517553232
2.2851101376201974,25.491015165836632,-0.03306626172127163,1.544702367122314,-1.3803898193366262
2.2791550615424945,25.215193628912914,-0.03310125025320625,1.5199813764745291,-1.3345359851443193
2.2731989623044675,24.943781338707332,-0.033077630169312304,1.495710736920838,-1.2905270825968254
2.267251894334417,24.67670023431358,-0.03300090283124932,1.4718570896764307,-1.2470459054357173
2.261322240513082,24.413874896568935,-0.032884139628026395,1.4484244408196232,-1.205410688088093
2.2554168501595555,24.155230814360948,-0.03273130874449295,1.4253986948246515,-1.1655222774137473
2.2495418899507382,23.900695959778872,-0.032546026909033236,1.4027663560873493,-1.1272878499617425
2.243702904306677,23.650200683049643,-0.03233159135831503,1.3805144964596179,-1.0906204430933064
2.2379048703007522,23.40367761312797,-0.03209100870751288,1.358630724892283,-1.0554385255168137
2.232152247622793,23.161061563575416,-0.0318270210475904,1.3371031590249804,-1.0216656035321567
2.2264490240685317,22.92228944339133,-0.031542129555311556,1.315920398575993,-0.9892298596660145
2.2207987569802503,22.68730017248369,-0.03123861587004158,1.2950715003978148,-0.958063820720101
2.2152046110202277,22.456034601491062,-0.030918561463540852,1.2745459550757663,-0.9281040525568022
2.2096693926201154,22.228435435688077,-0.030583865204372743,1.254333664957419,-0.8992908792153572
2.2041955814150076,22.00444716272601,-0.030236259296827394,1.234424923509999,-0.8715681241909561
2.1987853589403383,21.78401598397808,-0.029877323755050512,1.2148103959114525,-0.8448828719223379
2.1934406348423394,21.567089749275077,-0.029508499556050543,1.1954811007885697,-0.8191852477237476
2.1881630708282795,21.353617894832077,-0.02913110060017047,1.1764283930225592,-0.7944282145671253
2.1829541025607844,21.143551384180654,-0.028746324594218362,1.1576439475488103,-0.7705673852725052
2.1778149596808554,20.93684265193376,-0.028355262960550378,1.139119744083366,-0.7475608488008285
2.1727466841265723,20.733445550222005,-0.027958909864813784,1.1208480527138773,-0.7253690094655396
2.1677501468986327,20.533315297650972,-0.027558170445630883,1.1028214202976112,-0.7039544379890006
2.1628260634096264,20.336408430638976,-0.027153868321102007,1.0850326576134537,-0.6832817334283168
2.1579750075411717,20.142682757004067,-0.026746752439508296,1.0674748272188483,-0.6633173950838392
2.153197424521475,19.952097311677406,-0.02633750333489898,1.050141231966263,-0.6440297035834711
2.1484936427255303,19.764612314428103,-0.02592673884226193,1.0330254041371287,-0.6253886104079022
2.143863884490781,19.580189129491878,-0.02551501932162018,1.0161210951542545,-0.6073656351868759
2.139308276032631,19.398790227002706,-0.025102852435600207,0.9994222658365453,-0.5899337701552902
2.134828739098072,19.22060204552301,-0.024669780170614067,0.9804464172712126,-0.6218215840275735
2.1304241429744617,19.0458199199589,-0.02427017675838545,0.961577200107795,-0.6550365529143924
2.126088541331815,18.874424898003774,-0.023903174826580678,0.9428119327269169,-0.6894721863287521
2.121816148215279,18.706398500433096,-0.023567859801597854,0.924148040280596,-0.7250235639832053
2.1176013461271745,18.5417227021347,-0.023263274510673164,0.9055830519238086,-0.7615871086105983
2.113438693319054,18.38037991360411,-0.022988423357332474,0.8871145984161143,-0.7990603600141463
2.109322930368347,18.222352962838237,-0.022742276094965954,0.8687404100935359,-0.8373417493805879
2.1052489861099604,18.067625077560585,-0.022523771220444,0.8504583152137372,-0.8763303728667939
2.1012119829894984,17.916179867710095,-0.022331819006908973,0.8322662386805638,-0.9159257634389811
2.0972072419015837,17.768001308124692,-0.0221653041921447,0.8141622011572475,-0.956027659904133
2.093230286574031,17.62307372134824,-0.022023088336218806,0.7961443185810733,-0.996535772024781
2.0892768475564263,17.481381760487295,-0.02190401185938562,0.7782108020961248,-1.0373495405503104
2.0853428658699165,17.3429103920404,-0.02180689576850225,0.7603599584249148,-1.0783678909296748
2.0814244963737836,17.207644878618765,-0.021730543077418372,0.7425901907043528,-1.1194889793910174
2.077518110903663,17.075570761471873,-0.02167373992392027,0.724899999816675,-1.1606099299822616
2.0736203012360575,16.946673842725716,-0.021635256382808502,0.707287986251749,-1.201626561062286
2.0697278819341673,16.820940167234127,-0.021613846971529422,0.6897528525436939,-1.242433099613754
2.0658378931310013,16.698356003935302,-0.021608250841424294,0.6722934063321144,-1.2829218816149321
2.0619476033073076,16.578907826595817,-0.02161719164406151,0.6549085641066071,-1.3229830365578086
2.0580545121241016,16.462582293812982,-0.02163937705822889,0.6375973557026899,-1.3625041540324583
2.0541563533725573,16.34936622813321,-0.021673497958929706,0.6203589296281311,-1.4013699301120157
2.050251098107796,16.239246594128687,-0.02171822720508687,0.6031925593110073,-1.43946179106818
2.0463369580377586,16.13221047525695,-0.021772218017545832,0.5860976503749395,-1.4766574917237725
2.0424123892439825,16.02824504930753,-0.021834101913300236,0.5690737490630953,-1.5128306855071065
2.0384760963177855,15.927337562216259,-0.02190248615555639,0.5521205519510006,-1.547850463014583
2.0345270370032873,15.829475300000833,-0.02197595067220102,0.5352379171092772,-1.5815808556165214
2.0305644274479304,15.734645558539867,-0.022053044387323438,0.5184258769014396,-1.6138803003627973
2.0265877481719334,15.64283561088211,-0.022132280901529747,0.5016846526291937,-1.644601062169174
2.022596750880592,15.55403267173131,-0.022212133446708613,0.4850146712685556,-1.6735886090073782
2.0185914662577362,15.468223858705404,-0.022291029029466457,0.4684165845748317,-1.7006809356048265
2.0145722128952883,15.385396149915085,-0.02236734166439946,0.4518912908731574,-1.7257078310173342
2.010539607532986,15.305536337346062,-0.022439384583399398,0.4354399598937776,-1.7484900854198653
2.00649457680439,15.228630975460486,-0.02250540128989478,0.41906406105705324,-1.768838631638821
2.0024383707106908,15.154666324355851,-0.022563555306764176,0.40276539566112984,-1.7865536174294039
1.9983725780732235,15.083628286733767,-0.022611918442870943,0.38654613347313277,-1.8014234054347098
1.9942991442496436,15.015502337836985,-0.02264845737468295,0.3704088542688704,-1.8132234993677283
1.9902203914385008,14.950273447411782,-0.022671018304681535,0.35435659490006144,-1.8217153975479712
1.9861390419437415,14.887925992647396,-0.02267730941486691,0.3383929024819817,-1.826645378954224
1.9820582448263822,14.828443660939516,-0.0226648807780139,0.32252189427225353,-1.8277432330774854
1.9779816064379399,14.771809341229442,-0.022631101315790877,0.30674832472856334,-1.824720954016649
1.9739132254131897,14.718005002599252,-0.022573132292543333,0.2910776600513442,-1.8172714328161774
1.9698577328045543,14.667011558778537,-0.02248789669229369,0.27551616017880753,-1.8050672019684615
1.9658203381763113,14.618808717276814,-0.022372043621518227,0.260070967618134,-1.7877593151371498
1.9618068826586643,14.573374812052958,-0.022221906574558567,0.24475020153580868,-1.7649764876005147
1.9578239002130917,14.530686619055189,-0.022033453931803542,0.22956305399496008,-1.7363246845485731
1.9538786887191497,14.490719154741072,-0.02180222933421934,0.2145198828285476,-1.7013874335650805
1.9499793930204619,14.453445459010382,-0.021523278428980015,0.19963229195691282,-1.6597272661176072
1.9461351028640275,14.418836366137082,-0.021191056642511044,0.1849131844131029,-1.6108888766761496
1.9423559698959343,14.386860270675896,-0.020799309669636827,0.1703767651556482,-1.5544048480065418
1.9386533498060756,14.357482900502088,-0.020340913551015322,0.15603845899777388,-1.4898051518737914
1.9350399787825352,14.330667116841092,-0.019807653377212405,0.14191469279107657,-1.4166321189611324
1.931530198354349,14.306372772172594,-0.0191899069359693,0.1280224701922136,-1.3344631859549456
1.9281402506134402,14.284556671891739,-0.018476179074126225,0.11437864403952427,-1.2429444201570978
1.9248886785258383,14.265172704302564,-0.01765239967700451,0.10099877361797584,-1.1418383964058818
1.9217968864022639,14.24817222299109,-0.016700846140490316,0.08789546317616696,-1.0310899413317178
1.9188899480419517,14.233504776775796,-0.015598468974091506,0.07507616143821325,-0.9109114349496921
1.916197802066678,14.221119263628417,-0.014314264084506062,0.06254065131044363,-0.781883682958447
1.913757061053984,14.210965492736342,-0.012805080500979844,0.05027902526814291,-0.6450559038477207
1.9116138274967303,14.202995897302355,-0.011008625690729202,0.038272035109511854,-0.5020072425445882
1.9098283176658843,14.197166620064102,-0.008830372429780292,0.026497711982198937,-0.3548071432624541
1.9084834665010475,14.193436035056887,-0.0061124182906297855,0.01495323254243258,-0.2058004004840812
1.9077065548907282,14.191754560826816,-0.0025199329351403964,0.003729814458380767,-0.05717741162665735
