x,y,v_x,v_y,omega
2.375,32.48,0.0,3.7948717948717947,-7.387755102040816
2.3730876038555673,31.76859695673744,-0.020130485730870284,3.6935812921024915,-6.841033644774848
2.367672665888202,31.075970812204286,-0.036868861294026736,3.5972202292991318,-6.355512458835503
2.3593471931829324,30.40122194974749,-0.05076769349828534,3.5053993755092385,-5.9223712855674515
2.3486075111189426,29.74352051616241,-0.06228159138581676,3.417773609596876,-5.5342919449759345
2.335871049110814,29.102098690935524,-0.0717864297523802,3.33403507700191,-5.185166288914584
2.3214898716775787,28.476244125586057,-0.07959438533430799,3.2539077161503767,-4.869867887318714
2.3057616542347468,27.8652943243078,-0.08596579827444781,3.1771428236207546,-4.5840719937752095
2.288938636399349,27.268631791309677,-0.09111859999289824,3.1035154184647626,-4.324112469332295
2.271234962940741,26.68567980973777,-0.09523585746613301,3.032821229660554,-4.086867265695091
2.252832731007766,26.11589874623871,-0.09847184709149714,2.9648741755927306,-3.8696661661731633
2.2338869932048793,25.558782797078475,-0.1009569718862587,2.8995042366202566,-3.6702160080211614
2.2145299134328678,25.013857108312155,-0.10280176255596891,2.8365556451304785,-3.4865397324849607
2.194874231890505,24.48067521523578,-0.1041001484162688,2.775885334620842,-3.3169264441922928
2.17501616419848,23.958816756247803,-0.10493214307873162,2.7173616020947153,-3.159890289185053
2.155037835039637,23.44788542402282,-0.10536605859330045,2.6608629476419483,-3.014136436745717
2.135009327381204,22.94750712307244,-0.10546033781125785,2.606277062362044,-2.8785328139028943
2.1149904130453088,22.45732830771624,-0.10526507625079826,2.5534999413874404,-2.7520865216306865
2.095032018216053,21.977014478488897,-0.1048232903729463,2.5024351031109178,-2.6339240790045872
2.075177467727771,21.506248818276227,-0.10417197792476,2.4529928991277092,-2.5232748111488648
2.0554635441457396,21.044730952159842,-0.10334300714925182,2.4050899020973984,-2.419456829967404
2.035921391324766,20.59217581717693,-0.1023638646504719,2.3586483608806526,-2.3218651618015644
2.0165772870011023,20.14831263005989,-0.10125828612493475,2.3135957140355337,-2.229961659634501
1.9974533047964935,19.712883942581257,-0.10004678971305442,2.2698641541606204,-2.1432664040603737
1.9785678825998811,19.285644775447814,-0.09874712814602342,2.227390236717732,-2.0613503506216797
1.9599363114929758,18.86636182280825,-0.09737467297929561,2.1861145279092526,-1.983829024101828
1.9415711570823078,18.454812720395193,-0.09594274186983932,2.1459812869650414,-1.9103570951165911
1.923482623198604,18.050785371143377,-0.0944628779586235,2.1069381788435586,-1.840623702565929
1.9056788663494428,17.654077322833118,-0.09294508887465051,2.0689360138960207,-1.7743484085056656
1.888166268003098,17.264495192920432,-0.09139805161319196,2.0319285115006607,-1.7112776908117338
1.870949670691954,16.88185413624698,-0.089829288504112,1.9958720850620255,-1.6511818944543761
1.8540325830139361,16.50597735178658,-0.0882453186329176,1.9607256461000455,-1.593852574922269
1.8374173578483841,16.136695624990725,-0.08665178837289153,1.9264504254352577,-1.5391001778512854
1.8211053474631098,15.773846902651155,-0.08505358410368073,1.8930098097181025,-1.4867520076301899
1.8050970386510174,15.417275897510912,-0.08345492970781701,1.8603691917581273,-1.436650445005254
1.7893921705805511,15.066833720131477,-0.08185947103393496,1.8284958332885524,-1.3886513797525908
1.7739898376602796,14.722377535768114,-0.08027034917944871,1.7973587389573693,-1.3426228295449198
1.7588885793926128,14.383770244222369,-0.07869026416441365,1.7669285404715422,-1.2984437203819317
1.744086458915389,14.050880180833367,-0.07712153033267838,1.7371773899389884,-1.2560028075214467
1.7295811316950336,13.723580836941313,-0.07556612461843179,1.7080788615563185,-1.2151977188571745
1.715369905634581,13.401750598309775,-0.07402572864949028,1.6796078608809109,-1.175934105232189
1.701449793688677,13.08527250013056,-0.07250176551791915,1.6517405410055577,-1.1381248843324943
1.687817559931169,12.77403399735774,-0.07099543192953205,1.6244542250241167,-1.1016895666358129
1.674469759895287,12.467926749227779,-0.06950772634291323,1.5977273342386251,-1.0665536534494595
1.6614027758985324,12.166846416921853,-0.0680394736229216,1.571539321613223,-1.0326480984012791
1.6486128479715856,11.870692473415847,-0.06659134666072998,1.5458706100289368,-0.9999088248851653
1.6360961009305373,11.579368024644115,-0.06516388535030526,1.5207025349366556,-0.9682762929375802
1.623848568062733,11.292779641175937,-0.06375751325816163,1.4960172910441747,-0.937695109858794
1.6118769600759157,11.010839624519196,-0.062259412918860224,1.4717723579741524,-0.9050254998116386
1.6001866737229589,10.733463284505017,-0.06079623290173954,1.4479785895435053,-0.8737918244876008
1.5887711239377185,10.460566383731983,-0.05936744904815989,1.4246203659621357,-0.8439143985162986
1.5776238297759302,10.192067587071723,-0.05797248949698023,1.4016827567774577,-0.8153187969212085
1.5667384226162118,9.92788833434064,-0.05661074376321343,1.379151482497097,-0.7879354524026339
1.5561086527498047,9.667952720021617,-0.05528157062001886,1.3570128787557636,-0.7616992875784941
1.5457283945721674,9.412187379570973,-0.05398430493405747,1.3352538628299504,-0.736549378797063
1.5355916505628473,9.160521381881598,-0.052718263585102274,1.3138619023213773,-0.7124286484970622
1.5256925542167634,8.912886127505729,-0.051482750584200626,1.2928249858456748,-0.6892835834097639
1.5160253720696886,8.66921525227059,-0.05027706149027206,1.2721315955768389,-0.6670639761802436
1.5065845049429256,8.429444535947276,-0.04910048721249564,1.2517706815106864,-0.6457226882352539
1.4973644885166195,8.19351181565817,-0.04795231727493704,1.2317316373220133,-0.6252154319472986
1.4883599933275156,7.961356903731026,-0.0468318426103672,1.2120042777005606,-0.6055005703418282
1.479565824275046,7.732921509728744,-0.04573835794194242,1.1925788170603189,-0.5865389327700434
1.4709769197091638,7.508149166403115,-0.04467116380418793,1.173445849525265,-0.568293645126164
1.4625883501641668,7.286985159338485,-0.04362956824841319,1.1545963301024027,-0.5507299733274954
1.4543953167947115,7.069376460067552,-0.042612888272167325,1.1360215569600591,-0.5338151789001502
1.446393149563142,6.855271662456442,-0.0416204510075135,1.11771315473584,-0.517518385624613
1.4385773052210542,6.644620922170109,-0.040651594698671877,1.0996630588045222,-0.5018104562949761
1.4309433651225723,6.437375899041733,-0.03970566949587467,1.0818635004415318,-0.48666387873495087
1.4234870329020066,6.233489702181643,-0.038782038089026735,1.0643069928225604,-0.4720526602938484
1.4162041320443675,6.0329168376720865,-0.03788007620191324,1.0469863178043524,-0.4579522301176335
1.4090906033734925,5.835613158704273,-0.036999172965191285,1.0298945134358062,-0.4443393485548082
1.4021425024793,5.641535818023403,-0.036138731184202064,1.01302486215229,-0.43119202311505606
1.3953559971028089,5.450643222556032,-0.03529816751570536,0.9963708796095225,-0.41848943045098325
1.3887348610277028,5.26309670357362,-0.034398001695938867,0.9778030044158824,-0.44870650298162584
1.3822798844389772,5.079067739144612,-0.03354912029064448,0.9593439895736773,-0.4804119514204754
1.3759814702071096,4.898535915580712,-0.03274997688690985,0.940990995309493,-0.5134966533768899
1.369830316828633,4.7214813480877,-0.03199900604442391,0.9227412940906483,-0.5478535985230264
1.3638174216996772,4.5478846597803795,-0.03129462689195208,0.9045922670390318,-0.5833776467220104
1.3579340837426639,4.3777269613417324,-0.030635246339767393,0.8865414007361901,-0.6199652900402276
1.3521719054566739,4.210989831252526,-0.030019261933810805,0.8685862844133582,-0.6575144176166491
1.3465227944573808,4.0476552965185775,-0.029445064374536735,0.8507246075229414,-0.6959240823586302
1.340978964568334,3.887705813823267,-0.02891103972069208,0.8329541576908632,-0.7350942684221383
1.3355329365217812,3.731124251032675,-0.028415571295654272,0.8152728190522258,-0.7749256584145809
1.3301775383241117,3.5778938689799986,-0.027957041311392764,0.7976785709759405,-0.8153193992299452
1.324905905338383,3.42799830345448,-0.027533832222594295,0.7801694871874041,-0.8561768653883398
1.3197114801342433,3.2814215473179864,-0.027144327820980634,0.7627437353019918,-0.8973994187047031
1.3145880121539046,3.138147932669611,-0.026786914077321804,0.7453995767861575,-0.9388881630537186
1.3095295572416314,2.9981621129750273,-0.026459979736081145,0.7281353673673465,-0.9805436929291032
1.3045304770835295,2.861449045072842,-0.026161916664991437,0.7109495579188095,-1.0222658344145308
1.2995854386042387,2.727993970964725,-0.025891119959122588,0.6938406958508497,-1.0639533770895482
1.29468941336749,2.597782399289514,-0.025645987796127135,0.6768074270461287,-1.1055037952858733
1.2898376770284092,2.4708000863736963,-0.025424921036302815,0.659848498383522,-1.1468129569862924
1.2850258088869646,2.3470330167414986,-0.025226322557851077,0.6429627609027797,-1.187774818518796
1.2802496915941206,2.226467382956983,-0.025048596314191467,0.6261491736710624,-1.2282811030414187
1.275505511065118,2.109089564658099,-0.024890146096363978,0.6094068084224538,-1.2682209606373096
1.2707897566579243,1.9948861066279306,-0.024749373979358506,0.5927348550530099,-1.307480607643864
1.2660992216793592,1.8838436957315317,-0.02462467842658937,0.5761326280669958,-1.3459429426235832
1.26143100428678,1.775949136527096,-0.02451445202161165,0.559599574084953,-1.3834871361474883
1.2567825088596318,1.6711893253375898,-0.02441707879047413,0.5431352805414137,-1.4199881913050125
1.2521514479227227,1.5695512225427812,-0.02433093107172742,0.5267394857197413,-1.4553164715791695
1.2475358447119334,1.47102182282147,-0.02425436588394926,0.5104120902940792,-1.4893371924362138
1.2429340364833623,1.3755881230389946,-0.024185720732586912,0.4941531705740906,-1.5219098726814702
1.2383446786788301,1.2832370874351007,-0.024123308788803487,0.47796299367742895,-1.552887741338166
1.2337667500744396,1.1939556097213817,-0.024065413362675998,0.4618420348880414,-1.5821170955304948
1.2291995590547604,1.107730471644924,-0.02401028158131557,0.44579099749573514,-1.6094366046209454
1.2246427511734803,1.024548297514695,-0.023956117169000424,0.4298108354540591,-1.6346765557027214
1.2200963181823905,0.9443955041188232,-0.023901072210891508,0.4139027792393242,-1.6576580355362591
1.2155606087347859,0.8672582453835105,-0.023843237763894472,0.398068365342915,-1.6781920442255667
1.2110363409972882,0.793122351037276,-0.023780633157134655,0.38230946988059794,-1.6960785364734945
1.2065246174364102,0.7219732584475089,-0.023711193799476636,0.3666283468537937,-1.7111053873065967
1.2020269420837342,0.6537959366901838,-0.023632757281321987,0.3510276716443703,-1.7230472809685187
1.197545240627538,0.5885748017998473,-0.023543047520743515,0.3355105903591553,-1.7316645246058462
1.193081883730642,0.5262936220288523,-0.023439656657107663,0.32008077565130433,-1.7367017929336892
1.1886397140364449,0.4669354118286222,-0.02332002433444076,0.3047424896142837,-1.7378868170262054
1.1842220774008272,0.4104823131623263,-0.023181413935219514,0.28950065424142823,-1.7349290408273745
1.1798328589818066,0.3569154626855351,-0.023020885212365574,0.27436092972481707,-1.727518284513888
1.1754765249390735,0.30621484331773985,-0.0228352626058773,0.2593298004625049,-1.7153234767816947
1.171158170653683,0.2583591188187597,-0.022621098292969464,0.24441466794781944,-1.6979915518347253
1.1668835765930128,0.2133254502495916,-0.022374628661454236,0.22962394856972498,-1.6751466562023156
1.162659273247791,0.17108929374588655,-0.022091722340881335,0.21496717252193095,-1.64638988252437
1.1584926170054886,0.13162418002694665,-0.0217678170517764,0.2004550771511044,-1.6112998521416542
1.1543918794775572,0.09490147774913993,-0.021397841136974353,0.1860996836678995,-1.5694346197600821
1.1503663537980304,0.0608901455482993,-0.0209761133843607,0.17191433949887894,-1.52033559070239
1.1464264829736903,0.029556481913751043,-0.02049621108237692,0.15791369875952593,-1.4635344487660107
1.1425840178463667,0.0008638885953544673,-0.01995079025787243,0.14411359932883336,-1.398564518230666
1.1388522162078532,-0.025227327056910553,-0.019331332252796,0.13053077595817109,-1.3249785495967903
1.135246101033421,-0.04876007165621843,-0.018627774846491113,0.11718232508713934,-1.2423756181279328
1.1317828061887094,-0.06978044972539266,-0.017827960360998714,0.10408481248315113,-1.150440561681135
1.1284820547098937,-0.08833753262354094,-0.01691679204758817,0.09125290223422475,-1.0489998475645927
1.1253668415790568,-0.10448281294602424,-0.015874925119116784,0.0786974169497749,-0.9380971731989229
1.1224644357063276,-0.1182692413988633,-0.014676715646454147,0.06642288255376218,-0.8180888572363672
1.1198078851264506,-0.12974978949078775,-0.013286974668039728,0.0544249920980541,-0.6897504065125093
1.1174383303525508,-0.13897564086114045,-0.011655707162483925,0.04268923285304348,-0.5543683286592405
1.1154086862839234,-0.14599449327599245,-0.009708967244121122,0.031193424145421075,-0.4137653308320392
1.1137899822106085,-0.15085025771481497,-0.007330023001298348,0.019919885736895494,-0.2701834261684811
1.1126845963599485,-0.15358753525005397,-0.004305617531963785,0.008893562002428947,-0.12595309023008583
