x,y,v_x,v_y,omega
2.375,32.48,0.0,2.9743589743589745,-4.6938775510204085
2.3739585915932873,31.891972064973615,-0.010414084067125635,2.9059203759048295,-4.402464752575737
2.370984322524283,31.317360322541425,-0.019328606622919436,2.8401970484170627,-4.138032707325176
2.366356463413883,30.755639214643654,-0.026949984481079034,2.7770140305606565,-3.8973310591684056
2.360316087928573,30.206316596194778,-0.03345377037202326,2.7162121539281228,-3.6775738754311997
2.3530717360021525,29.668930768750386,-0.03898974889217968,2.657646120515797,-3.476363863285949
2.3448041508423185,29.14304786836722,-0.04368610270615969,2.6011828833158672,-3.2916304460073755
2.335670256948007,28.62825955291262,-0.04765283623695687,2.5467002712300997,-3.121578889140458
2.325806513073732,28.124180944507547,-0.05098460250579476,2.4940858128206416,-2.9646482935874445
2.315331748086227,27.630448790890487,-0.053763047369252547,2.4432357233499693,-2.8194767465086983
2.3043495672068524,27.146719815849856,-0.05605876142449542,2.3940540270563404,-2.684872282424024
2.2929503999257688,26.672669233912345,-0.057932911386340706,2.346451792318789,-2.5597885849705238
2.2812132479472216,26.207989408505078,-0.05943860839913107,2.3003464617538443,-2.4433045753209006
2.2692071811546466,25.752388636060637,-0.0606220595266185,2.2556612626905905,-2.334607201536891
2.2569926212194624,25.305590041178064,-0.06152353982522219,2.212324686135136,-2.2329768753585393
2.2446224456968373,24.867330570120693,-0.06217821540103075,2.1702700244385724,-2.1377751074656683
2.2321429399300463,24.43736007172125,-0.06261684226687625,2.1294349595558204,-2.0484339753609646
2.219594619569262,24.01544045625321,-0.06286636134096972,2.0897611951246318,-1.9644471244552377
2.207012942802657,23.601344924072933,-0.06295040632507964,2.051194126678114,-1.885362056296837
2.1944289283416305,23.194857256886497,-0.06288973828518508,2.0136825451862475,-1.8107735009507686
2.1818696926741734,22.79577116538342,-0.0627026183893845,1.9771783698445158,-1.7403177054393537
2.169358918002604,22.40388968773661,-0.062405128326311704,1.941636406623627,-1.6736674985686188
2.156917260535374,22.019024634115382,-0.06201144634598587,1.9070141295886303,-1.6105280156827322
2.144562707344194,21.64099607291569,-0.061534085565815154,1.8732714824082515,-1.5506329859337615
2.1323108887762663,21.26963185489273,-0.06098410011346404,1.8403706978214,-1.4937415003320114
2.1201753523856617,20.90476717179861,-0.06037126379257961,1.8082761331197585,-1.4396351917927506
2.1081678034841373,20.546244146491354,-0.059704225222663374,1.7769541199528458,-1.3881157691278843
2.0962983166825557,20.193911451798797,-0.058990642793154316,1.7463728269726941,-1.3390028558539107
2.084575522177052,19.847623955699973,-0.05823730226188254,1.7165021340155482,-1.2921320921280184
2.0730067700107107,19.507242390631134,-0.057450219401530896,1.6873135166728241,-1.2473534643467465
2.0615982750965527,19.17263304494015,-0.056634729740050675,1.6587799402370622,-1.2045298321602418
2.0503552454085208,18.843667474704027,-0.055795567140267364,1.630875762124145,-1.1635356270436314
2.039281995423444,18.520222234294273,-0.054936932710502415,1.6035766419733806,-1.1242557002671287
2.028382046619994,18.20217862422549,-0.054062555323995225,1.5768594587144678,-1.0865843012340577
2.017658216603223,17.88942245495737,-0.053175744843716934,1.550702233966755,-1.0504241698061283
2.0071126982193057,17.581843825440377,-0.05227943899545216,1.52508406120317,-1.0156857284862149
1.996747129849626,17.279336915303055,-0.051376244701347315,1.4999850401700472,-0.9822863622451486
1.9865626579220106,16.981799789675456,-0.050468474574806604,1.4753862161059494,-0.9501497754140457
1.976570263180503,16.68913631331829,-0.049455472840268126,1.4512485474657182,-0.9162195936543277
1.9667793126920172,16.401253753278787,-0.04845403204458968,1.4275770529293181,-0.8838278902977276
1.957187400074144,16.11806052756569,-0.0474650941341424,1.4043552042016683,-0.8528867862906374
1.9477919464008489,15.839468284852888,-0.0464894425988109,1.3815672229263454,-0.8233143729752429
1.9385902300141442,15.565391758777096,-0.04552772126823366,1.3591980378315682,-0.7950342420282285
1.9295794127924046,15.29574863051441,-0.04458045094916239,1.3372332447952897,-0.7679750573435132
1.92075656328154,15.030459399075113,-0.043648044159483444,1.3156590695976857,-0.7420701646843372
1.9121186770473244,14.769447258800309,-0.04273081818267185,1.2944623331503398,-0.7172572353876864
1.9036626945651722,14.512637983584245,-0.04182900663885005,1.2736304190102854,-0.6934779408069995
1.8953855169268254,14.259959817382814,-0.04094276974461806,1.2531512430040237,-0.6706776545344073
1.8872840196110723,14.01134337060222,-0.04007220341291523,1.2330132248019097,-0.6488051797575225
1.8793550645371864,13.76672152199232,-0.03921734732594395,1.2132052612970672,-0.6278124993832738
1.8715955105947648,13.52602932569707,-0.038378192098269814,1.1937167016554266,-0.6076545468069965
1.8640022228216078,13.289203923140057,-0.037554685633301575,1.1745373239147214,-0.5882889954229025
1.8565720803818595,13.056184459446541,-0.03674673876418098,1.1556573130204524,-0.5696760651655386
1.8493019834794966,12.826912004124889,-0.0359542302594482,1.137067240196055,-0.5517783445438883
1.842188859327102,12.601329475749996,-0.0351770112644961,1.1187580435528737,-0.5345606267829272
1.835229667276491,12.379381570409393,-0.034414909241616054,1.1007210098531455,-0.5179897588239695
1.828421403205907,12.161014693689467,-0.033667731464222285,1.08294775734612,-0.5020345020569819
1.8217611032480354,11.94617689599448,-0.03293526811449413,1.0654302196037309,-0.4866654037669125
1.8152458469337773,11.73481781100531,-0.03221729502808641,1.0481606302879782,-0.47185467837346995
1.8088727598185055,11.52688859709777,-0.03151357612463166,1.031131508787416,-0.4575760976310133
1.8026390156502012,11.322341881552536,-0.030823865558412235,1.014335646664922,-0.4438048890334146
1.7965418381323857,11.121131707399712,-0.03014790961974257,0.9977660948633011,-0.4305176417389499
1.7905840848566141,10.92338748379542,-0.029429623137974207,0.9796761411796076,-0.4524206367730868
1.784765974468164,10.729249853806316,-0.028751480746525362,0.9617001587114326,-0.47609518889826874
1.7790795566623225,10.538696333435993,-0.028112697311890752,0.943835044991781,-0.501428342738889
1.7735170443895312,10.351705046952087,-0.02751242541602353,0.9260778198472611,-0.5283098334481579
1.768070825674187,10.168254702889136,-0.02694976173741749,0.9084256207822548,-0.5566318398297011
1.7627334742127498,9.988324570933425,-0.026423752876952086,0.8908756987748455,-0.586288743599812
1.757497758858302,9.811894459608787,-0.02593340066752695,0.8734254144715236,-0.6171768937956191
1.752356652091252,9.638944694684604,-0.025477667002974796,0.8560722347703213,-0.6491943753477541
1.7473033375691145,9.469456098229102,-0.025055478218400717,0.8388137297846894,-0.682240780842284
1.7423312168421818,9.303409968232323,-0.024665729050924807,0.8216475701831034,-0.7162169844956278
1.7374339153164116,9.140788058723796,-0.024307286206778158,0.804571524902156,-0.7510249173577289
1.7326052875399545,8.981572560310205,-0.023978991557794076,0.787583459233747,-0.7865673427426535
1.7278394218854227,8.82574608105783,-0.023679664987521904,0.7706813332899949,-0.8227476308616989
1.723130644696226,8.673291627643561,-0.023408106904444892,0.7538632008526871,-0.8594695316016118
1.7184735239620734,8.52419258669654,-0.0231631004370807,0.7371272086175121,-0.8966369443491174
1.7138628725860596,8.378432706250084,-0.022943413323057042,0.7204715958470342,-0.9341536837120693
1.7092937513035982,8.235996077220339,-0.022747799501558617,0.7038946944504286,-0.9719232399264344
1.7047614713118615,8.09686711482405,-0.022575000415806047,0.6873949295124715,-1.00984853266627
1.700261596667339,7.961030539842877,-0.022423746029422854,0.6709708202992449,-1.0478316568899326
1.6957899465086326,7.828471359635596,-0.022292755557639595,0.6546209817735623,-1.0857736192590266
1.6913425971617446,7.699174848792307,-0.022180737911240193,0.6383441266593474,-1.123574063556034
1.6869158841858272,7.573126529316248,-0.022086391847935347,0.622139068101225,-1.1611309834010353
1.6825064044187927,7.45031215020877,-0.02200840582240934,0.6060047229735409,-1.1983404204263581
1.6781110180842935,7.33071766632121,-0.021945457522582725,0.5899401159020662,-1.235096145909283
1.6737268510244738,7.214329216323808,-0.021896213075611702,0.5739443840719478,-1.2712893236861043
1.669351297126638,7.101133099625891,-0.02185932590274724,0.5580167829072277,-1.3068081519751882
1.6649820210166295,6.991115752063099,-0.021833435197336926,0.5421566927207011,-1.3415374815218288
1.6606169610974062,6.884263720146201,-0.021817163994895694,0.5263636264482769,-1.375358407244013
1.6562543330180954,6.780563633641414,-0.02180911679821299,0.5106372385996132,-1.4081478303070352
1.6518926336668935,6.680002176223759,-0.021807876713805987,0.4949773355769479,-1.4397779872891519
1.6475306457906571,6.582566053912359,-0.021812002048558505,0.4793838875370488,-1.470115942825357
1.6431674433551042,6.488241960958913,-0.021820022306971193,0.46385704199740674,-1.4990230418404922
1.6388023977724135,6.397016542817422,-0.021830433519934134,0.44839713941751613,-1.5263543172198162
1.634435185137907,6.308876355773712,-0.021841692825129166,0.4330047310195945,-1.5519578485354664
1.63006579463471,6.223807822756697,-0.021852212206843424,0.4176805991505524,-1.575674067281854
1.6256945382851422,6.141797184788803,-0.02186035128883392,0.40242578052838823,-1.597335004017587
1.6213220622505045,6.062830447459859,-0.021864409057543017,0.38724159276105286,-1.6167634729328277
1.616949359907359,5.986893321726434,-0.021862614373914242,0.3721296645732122,-1.633772189756383
1.6125777869590086,5.913971158246682,-0.021853115109588553,0.35709197022430955,-1.648162819727403
1.6082090788764134,5.844048874359604,-0.021833965716362945,0.34213086864646447,-1.6597249537866494
1.6038453710042786,5.777110872708228,-0.021803113004986708,0.3272491478673128,-1.668235013487349
1.5994892217169365,5.713140950391342,-0.02175837986843366,0.31245007530156166,-1.6734550888130373
1.5951436390668614,5.652122197413085,-0.021697446632316285,0.29773745448100253,-1.6751317187380232
1.5908121114390508,5.594036883092706,-0.021617829645789878,0.2831156887227849,-1.672994632871062
1.5864986428112982,5.538866329013029,-0.02151685663173577,0.2685898520739829,-1.6667554851834907
1.582207793329946,5.48659076704946,-0.021391638181784276,0.25416576756171033,-1.6561066295238775
1.5779447260529516,5.437189181069467,-0.02123903458816088,0.23985009223820394,-1.6407200140952791
1.5737152609026208,5.390639131084416,-0.021055616915145903,0.2256504076123143,-1.6202463122757949
1.5695259371340664,5.346916559061942,-0.020837620770399478,0.21157531261242835,-1.5943144658046713
1.5653840860024693,5.3059955764057385,-0.020580890545571526,0.19763451394961037,-1.5625319015976409
1.5612979158679305,5.267848234487239,-0.020280810799814423,0.18383890523539678,-1.5244858068061273
1.5572766128179354,5.2324442818755905,-0.019932219700138084,0.17020062088107532,-1.479746024015725
1.5533304611897656,5.199750915498065,-0.019529296581559486,0.15673304289416984,-1.4278703804568957
1.5494709904271096,5.16973253848305,-0.019065411044999165,0.14345072725596342,-1.3684136166814256
1.5457111579799565,5.1423505456871546,-0.018532913426533435,0.13036920070298944,-1.300941555391987
1.5420655832265178,5.117563169798231,-0.017922834107851955,0.11750455818625394,-1.2250527577553094
1.5385508559057275,5.095325437177248,-0.01722443910005351,0.10487276802355915,-1.140410604916545
1.5351859562775902,5.075589303012027,-0.016424557181319285,0.09248857362864915,-1.0467893252440383
1.5319928462715415,5.058304056768936,-0.01550654287916679,0.08036388880224613,-0.9441374502980822
1.5289973260888847,5.0434171013355,-0.014448658947401025,0.06850566553212568,-0.8326603869031675
1.5262303072448562,5.030875188588379,-0.013221529492884625,0.05691346193907453,-0.7129181213192577
1.5237297479193583,5.020626091739146,-0.011784063762092978,0.04557750655325268,-0.5859215272055066
1.5215436792450443,5.012620425410422,-0.010076622981048628,0.03447915673399603,-0.45318947170438506
1.5197352077338335,5.006812741246041,-0.008008092131058955,0.023597684909811262,-0.3167039513083013
1.518391959475351,5.003159707833472,-0.005424390453765648,0.012932649215863342,-0.1786900303978647
1.5176507445845426,5.00160810373756,-0.0019877584543174626,0.0025833917432558588,-0.04118687140534305
