x,y,v_x,v_y,omega
2.375,32.48,0.0,2.1025641025641026,-6.653061224489796
2.374249020089255,32.104911331721,-0.008344221230498165,2.065087767202566,-6.36958318834775
2.3720742057389588,31.73647783248233,-0.015820382661684944,2.0286177798937595,-6.103171997258547
2.3686243465698555,31.374522897225354,-0.022511385883906377,1.9931037229615098,-5.852428785838661
2.364034098735361,31.018878656579147,-0.028491367832697234,1.9584989508852304,-5.616095621750569
2.358425466914157,30.66938533346041,-0.03382676351401351,1.9247601948785042,-5.393038765535274
2.351909108415266,30.32589066608975,-0.03857721980699818,1.8918472203510486,-5.182234235098903
2.3445854840345364,29.988249388659504,-0.04279638442333068,1.859722528873927,-4.982755311509642
2.336545876367284,29.65632276226166,-0.04653258965725077,1.8283510977687816,-4.793761687581427
2.327873293064847,29.329978149814252,-0.04982944703649574,1.7977001516468532,-4.61449001262793
2.3186432698761434,29.0090886296584,-0.05272636617132264,1.7677389611959293,-4.444245628597768
2.3089245861252836,28.693532643273603,-0.05525900883823027,1.7384386653018509,-4.282395326706994
2.298779903454218,28.383193673205415,-0.057459687506946175,1.7097721132335604,-4.128360981322453
2.2882663371357084,28.077959947841226,-0.05935771603204815,1.6817137241463147,-3.9816139404979976
2.277435967981585,27.77772417012499,-0.06097971901376323,1.6542393615896556,-3.8416700712187484
2.2663363017905156,27.48238326768623,-0.062349905331454104,1.6273262210631916,-3.7080853728446397
2.2550106823633866,27.191838162184276,-0.06349031052553428,1.6009527289585614,-3.580452085075933
2.243498663334676,26.905993555945564,-0.06442101201569908,1.5750984514715505,-3.4583952274754317
2.231836343402043,26.624757734208522,-0.06516032056910871,1.5497440122733508,-3.3415695165611607
2.2200566689652663,26.348042381492768,-0.06572495095063402,1.524871017901713,-3.2296566140387215
2.2081897076943457,26.07576241078367,-0.06613017428181563,1.5004619899771348,-3.1223626661233457
2.196262896122664,25.807835804373337,-0.0663899542924241,1.476500303471041,-3.019416099309267
2.1842987881361333,25.54419112531276,-0.0665445788912511,1.4528850194242582,-2.9182017108843485
2.172316104422879,25.284759441433245,-0.06659635125601818,1.4296892459036747,-2.821262986577304
2.1603325205521817,25.029466540639277,-0.06655458064061984,1.4068985406959817,-2.728370695492724
2.1483641071827906,24.778240752048617,-0.06642779013039034,1.3844991103113256,-2.639310262357713
2.1364254653442605,24.531012832663226,-0.06622378585328091,1.3624777717485923,-2.5538806743716336
2.1245298498516063,24.287715860670414,-0.06594971962065356,1.3408219170604536,-2.471893481282249
2.1126892819746894,24.048285134892723,-0.06561214567842305,1.3195194804694346,-2.393171879711303
2.1009146523681697,23.81265807994737,-0.06521707217179612,1.2985589078122943,-2.3175498737194125
2.089215815165389,23.5807741567141,-0.06477000785910222,1.2779291281129106,-2.244871504451359
2.0776016740484944,23.35257477774457,-0.06427600455083494,1.257619527104066,-2.1749901424537277
2.0660802610261095,23.12800322727693,-0.06373969569788404,1.2376199225363869,-2.107767836920356
2.0546588085776643,22.907004585547092,-0.06316533150706434,1.217920541128502,-2.0430747167084773
2.0433438157590835,22.689525657113137,-0.06255681092161103,1.198511997026527,-1.9807884384893062
2.0321411088069645,22.47551490293194,-0.061917710768603584,1.1793852716534639,-1.9207936778595034
2.0210558967268573,22.264922375947506,-0.06125131234369689,1.1605316948402253,-1.8629816596515376
2.0100928223051246,22.057699659969295,-0.06056062567555564,1.1419429271399262,-1.8072497240477063
1.9992560089424443,21.853799811635465,-0.05984841168755889,1.1236109432359622,-1.7535009254298084
1.9885491036698588,21.65317730527162,-0.059117202452277307,1.1055280163623546,-1.7016436611888752
1.9779753166748408,21.455787980469427,-0.058369319714590674,1.087686703661976,-1.6515913279810215
1.9675374576347642,21.261588992222528,-0.057606891841816533,1.0700798324146936,-1.6032620031499245
1.957237969128076,21.070538763468612,-0.05683186934360924,1.052700487073249,-1.556578149246785
1.9470789573690113,20.88259693989753,-0.05604603909044167,1.0355419970498996,-1.5114663397675694
1.9370622204896408,20.697724346894898,-0.05525103734700702,1.0185979252015613,-1.467857004397285
1.9271892745730965,20.515882948499865,-0.05444836172570721,1.0018620569654513,-1.425684192204065
1.9174613776237988,20.337035808263877,-0.05363938215537974,0.985328390101085,-1.3848853513638095
1.9078843270002461,20.161393265892663,-0.05277229143964979,0.966255414023559,-1.3983242025548765
1.898460621020049,19.989173496651325,-0.05193555278476263,0.9472975775468216,-1.413454489737251
1.8891848498773285,19.82035604092649,-0.05112857102324406,0.9284519305068922,-1.4301505356803372
1.8800517176026252,19.654920958434275,-0.05035067647345828,0.9097156527399696,-1.448288836428949
1.871056054911321,19.492848805138067,-0.04960113120769835,0.8910860505512117,-1.4677477908709005
1.862192830971268,19.334120610760138,-0.04887913479289136,0.8725605536480384,-1.4884074336456297
1.8534571641816804,19.17871785680363,-0.04818382953586091,0.854136712535351,-1.5101491702785377
1.844844332049881,19.02662245500184,-0.04751430526190842,0.8358121963734566,-1.5328555134188895
1.8363497802475917,18.877816726110957,-0.04686960365241878,0.8175847913030215,-1.5564098190444866
1.8279691309240924,18.732283378961625,-0.046248722164239274,0.799452399245103,-1.5806960214737267
1.8196981903497478,18.590005489682618,-0.04565061755069934,0.7814130371882754,-1.6055983659949395
1.8115329559600672,18.450966481007555,-0.0450742090013088,0.7634648369791147,-1.63100113788381
1.8034696228676563,18.315150101572115,-0.04451838091436776,0.7456060456369084,-1.656788386532026
1.7955045899071105,18.18254040510513,-0.043981985313918434,0.7278350262184623,-1.682843643353815
1.7876344652760903,18.053121729411675,-0.04346384391964019,0.7101502592643725,-1.7090496320715443
1.7798560718345358,17.926878675040108,-0.04296274987540716,0.6925503448641742,-1.7352879699069583
1.7721664521232157,17.803796083517728,-0.04247746913926277,0.6750340053844788,-1.7614388581208982
1.764562873162578,17.683859015031075,-0.04200674153448653,0.6576000889116401,-1.787380760251733
1.7570428310932362,17.56705272541684,-0.04154928145820004,0.640247573468772,-1.812990066301723
1.7496040557203494,17.453362642317796,-0.041103778240544335,0.6229755720761656,-1.8381407410121173
1.742244515025757,17.34277434034484,-0.0406688961438166,0.6057833387344578,-1.8627039542535624
1.7349624197139804,17.235273515070812,-0.04024327398703341,0.5886702754213964,-1.8865476914408963
1.7277562278612053,17.13084595566436,-0.03982552437713547,0.5716359402058544,-1.9095363417644027
1.720624649740157,17.029477515952102,-0.03941423252340173,0.5546800565969809,-1.9315302619186907
1.7135666528984637,16.931154083674784,-0.03900795460652341,0.5378025242621263,-1.9523853129135653
1.7065814675737467,16.83586154767739,-0.03860521566811002,0.5210034312645072,-1.9719523674799895
1.6996685925354125,16.74358576274444,-0.03820450698004766,0.504283067990459,-1.990076785554635
1.6928278014510716,16.65431251175922,-0.037804282845962676,0.48764194295644675,-2.0065978553611514
1.6860591498848359,16.568027464829463,-0.03740295677887751,0.47108080070748737,-2.021348197736633
1.6793629830456607,16.484716134982126,-0.03699889698973753,0.45460064204071804,-2.0341531316216237
1.6727399444166386,16.404363829985595,-0.03659042111050765,0.4382027468096213,-2.0448299991020846
1.666190985411065,16.326955599810137,-0.03617579006253005,0.42188869958436853,-2.053187449146224
1.6597173762185733,16.252476179186186,-0.035753200965156176,0.4056604184595427,-2.0590246803345376
1.6533207180252738,16.180909924667056,-0.03532077896039534,0.38952018730856375,-2.06213064459934
1.6470029568163778,16.112240745549165,-0.03487656780511756,0.37347069177909686,-2.0622832164942895
1.6407663989993058,16.046452027952263,-0.03441851905123495,0.35751505929758726,-2.0592483361153406
1.6346137291212954,15.983526551319194,-0.03394447959332581,0.3416569032920752,-2.0527791389228542
1.6285480300001807,15.923446396566902,-0.033452177307949124,0.32590037173340625,-2.04261509296805
1.6225728056435171,15.866192845118917,-0.0329392044327569,0.31025019991087033,-2.0284811742352136
1.6166920074042017,15.811746268091259,-0.032402998226304824,0.2947117670630916,-2.010087125124261
1.6109100639172236,15.760086005013164,-0.031840818295675075,0.27929115602686067,-1.9871268611073079
1.6052319154926775,15.711190231677278,-0.0312497197548372,0.26399521437188733,-1.9592781184884187
1.5996630538206578,15.665035817082906,-0.03062652104538208,0.24883161445448032,-1.92620247497149
1.594209568098514,15.621598170034613,-0.02996776475621464,0.23380890830432968,-1.8875459284371117
1.5888781990575322,15.58085107689168,-0.029269669032471416,0.21893657106158018,-1.842940293286015
1.5836764029017898,15.54276653337637,-0.02852806603133354,0.20422502355300046,-1.792005774744911
1.5786124279649285,15.507314575436194,-0.0277383221560128,0.18968562022671143,-1.7343552178427448
1.5736954080762908,15.474463117170878,-0.026895232162184785,0.17533058272126226,-1.6696007080488613
1.5689354784132286,15.444177808084468,-0.025992875205174057,0.16117285157218836,-1.5973634314053737
1.564343922315397,15.416421927729871,-0.025024414770732438,0.1472258190344462,-1.517287981534107
1.5599333616202609,15.391156343405154,-0.023981815175223256,0.13350289568464155,-1.4290626051742485
1.5557180092420138,15.368339565814154,-0.02285543347196829,0.12001685532646997,-1.3324471335233388
1.5517140119680226,15.347927947493634,-0.021633425127932277,0.10677890379042618,-1.2273103810727604
1.5479399252437067,15.32987607636844,-0.020300871808912175,0.09379744204506113,-1.1136782555079436
1.5444173822337834,15.314137415329455,-0.01883849496801185,0.0810765694992036,-0.9917920833199522
1.5411720504152293,15.300665215180064,-0.017220747460367024,0.06861454327181869,-0.8621727737797782
1.5382350186628875,15.289413660171292,-0.015412938676766704,0.056402734603436144,-0.7256794264324357
1.5356448500219546,15.280339057805893,-0.013366712889151014,0.044426180567646516,-0.5835408034745311
1.5334507498175172,15.27340060209115,-0.011012178271265556,0.032667771818368455,-0.43732765978345234
1.5317179373489442,15.268559678574633,-0.008241293601769412,0.021120267254035756,-0.28883054827831506
1.5305388156232902,15.265775091308523,-0.0048600589054972245,0.009819591258288431,-0.13982076737762408
1.5300700655071497,15.26498174173489,-0.00034827571828585906,-0.001004595995709668,0.008200108820668628
