x,y,v_x,v_y,omega
2.375,32.48,0.0,3.7948717948717947,-5.673469387755102
2.372806389731807,31.620833012476222,-0.019074871897331046,3.6761454879436335,-5.170698113223222
2.36666544735373,30.78818283871611,-0.03432462704246962,3.564290805622566,-4.7356530515110435
2.3573716099404156,29.98054071071612,-0.04649135046461195,3.4586842204642982,-4.3567237766769695
2.345566509902268,29.196532232288988,-0.056161693345367615,3.35878080933686,-4.024628700391639
2.331770628054349,28.434900817544705,-0.0638024966365352,3.264101058004721,-3.731887385285682
2.316407780050682,27.694493838249436,-0.06978748600404698,3.174220501084578,-3.4724254653053452
2.299824209017474,26.97425091330217,-0.07441747950210902,3.08876145497861,-3.2412756261162725
2.282303579260003,26.27319391842079,-0.07793582273677158,3.0073863265986027,-3.0343490611677986
2.2640788280772934,25.590418395923336,-0.08054027450417824,2.9297921299009775,-2.848259223973985
2.245341590426703,24.92508611751594,-0.08239222680530695,2.855705943206842,-2.6801847868652997
2.226249735206334,24.276418606401446,-0.0836239055457255,2.7848811099626576,-2.527762268959621
2.2069334226873005,23.643691464775493,-0.08434402940239451,2.7170940346108323,-2.389001309776054
2.1874999967733784,23.026229382856506,-0.08464228289258034,2.6521414603368805,-2.2622173654710966
2.1680379540346033,22.423401728700657,-0.08459287135763537,2.58983814101834,-2.145977908789428
2.148620177346708,21.834618636043558,-0.0842573607110196,2.5300148386085874,-2.039059167947776
2.129306580839667,21.25932752159443,-0.08368695674150985,2.472516591383834,-1.9404111442273912
2.110146281384729,20.697009974517506,-0.08292434286664489,2.4172012092850825,-1.849129172782746
2.091179387609741,20.147178969944672,-0.08200516822020847,2.3639379609134554,-1.7644306850913947
2.0724384786528818,19.609376365768178,-0.08095925749161265,2.31260642322997,-1.6856361293826658
2.053949830233554,19.083170648032038,-0.07981159832862876,2.2630954701277863,-1.6121532322592416
2.035734434159381,18.568154895253848,-0.0785831501424401,2.215302380117346,-1.5434639586376029
2.0178088483675216,18.063944936177325,-0.07729150891720649,2.1691320466350033,-1.4791136612716558
2.000185907463919,17.570177678943956,-0.07595145546194379,2.1244962771334013,-1.4187020151925542
1.9828753180557033,17.086509592607392,-0.07457540895732764,2.0813131692715365,-1.3618754135882671
1.9658841586489966,16.612615324397087,-0.07317380327490335,2.039506554296321,-1.3083205653251944
1.9492173002605175,16.148186438248047,-0.0717554001031761,1.9990054991735782,-1.257759084511902
1.9328777609763812,15.692930261914881,-0.07032755019366169,1.9597438602452502,-1.209942902268073
1.916867005337921,15.246568831532727,-0.06889641187990461,1.9216598822082729,-1.1646503625058704
1.9011851975271141,14.808837923816167,-0.06746713430102534,1.8846958370661664,-1.1216828888264208
1.8858314157733176,14.379486167234532,-0.0660440113841621,1.8487976984262993,-1.0808621299416374
1.8708038341376958,13.958274224495845,-0.06463061153428876,1.8139148471274866,-1.0420275074021297
1.8560998767960528,13.544974039535344,-0.06322988708869294,1.7799998047029577,-1.0050341026613654
1.841716349090488,13.139368142957277,-0.06184426687274012,1.7470079916280488,-0.9697508312708354
1.8276495489201037,12.741249010536542,-0.06047573460886188,1.71489750768268,-0.9360588607792172
1.8138953614627802,12.350418469963152,-0.0591258954548216,1.6836289320859295,-0.9038502360926498
1.8004493397412153,11.966687151518919,-0.05779603255878601,1.653165141342195,-0.8730266819531345
1.7873067731488874,11.589873978821583,-0.05648715520058698,1.6234711429824522,-0.843498557053591
1.774462745720681,11.219805696165093,-0.05520003982729634,1.5945139235957142,-0.8151839383270348
1.7619121856567912,10.856316429332661,-0.05393526507609209,1.5662623097297728,-0.7880078172802106
1.749649907377569,10.499247277067663,-0.052693241699752015,1.5386868404006353,-0.7619013930143906
1.7376706471933465,10.148445930661222,-0.051474238163052834,1.5117596500901658,-0.736801448889048
1.7259690935106198,9.803766319358932,-0.05027840255630929,1.4854543612340976,-0.7126498017194123
1.7145593204554963,9.465070174843664,-0.04893701531433118,1.4597295041160436,-0.6844573463338806
1.7034537351751693,9.132224685175895,-0.047633291471121136,1.4345791016906528,-0.6576976022349262
1.6926437633183418,8.805100322762218,-0.046366463805639205,1.4099805714717615,-0.632279319691433
1.6821210127777348,8.483572622092641,-0.04513571480833386,1.3859124778289003,-0.6081181634101721
1.6718772837981297,8.1675219243375,-0.04394018936214492,1.3623544591723284,-0.5851361061786275
1.6619045763951814,7.856833138059553,-0.04277900544610267,1.3392871606358894,-0.5632608827119985
1.6521950955066682,7.551395514832127,-0.04165126314966377,1.316692171776502,-0.5424254970453162
1.6427412542364541,7.251102438659281,-0.040556052243502165,1.2945519688569278,-0.5225677776217391
1.633535675499052,6.955851228188823,-0.039492458516517635,1.2728498613209596,-0.5036299749309093
1.6245711923279473,6.665542950794492,-0.038459569058306754,1.2515699421080209,-0.48555839716211874
1.6158408470725956,6.38008224768096,-0.03745647664040248,1.2306970414879062,-0.4683030798689332
1.6073378896762853,6.0993771692353,-0.03648228332751313,1.2102166841265283,-0.45181748610588013
1.5990557751990355,5.8233390199118915,-0.03553610343118035,1.190115049120494,-0.4360582339031941
1.590988160725694,5.551882211995352,-0.03461706590222608,1.1703789327624716,-0.42098484830042326
1.583128901778803,5.284924127638256,-0.033724316244650526,1.1509957138209752,-0.4065595354707404
1.5754720483381475,5.022384988618015,-0.03285701802192057,1.13195332113764,-0.3927469767409158
1.568011840553723,4.764187733300492,-0.032014354016554995,1.1132402033625692,-0.3795141405520843
1.5607427042258577,4.510257900337425,-0.03119552709531536,1.094845300664087,-0.36683011061797716
1.5536592461150285,4.260523518660758,-0.03039976082493887,1.0767580182634502,-0.3546659287238712
1.5467562491343032,4.014915003369804,-0.02962629987702082,1.0589682016578998,-0.342994450774327
1.5400286674690955,3.7733650571373367,-0.028874410255217843,1.0414661134070407,-0.3317902148435767
1.5334716216618196,3.5358085767882024,-0.02814337937326943,1.024242411368031,-0.3210293201115654
1.5270803936929376,3.3021825647293,-0.027432516008314433,1.0072881282745842,-0.3106893156831979
1.5208504220846717,3.072426044932932,-0.026741150150518252,0.9905946525634098,-0.3007490983900796
1.514783106674939,2.846582043211413,-0.026018114281940154,0.9732662319715514,-0.3090733389481124
1.50887815734741,2.624708878326736,-0.025329271174833468,0.9560656365908475,-0.31975805966713616
1.503127701725416,2.4067775909435163,-0.02467469075554796,0.9389890363067008,-0.3326737443431474
1.4975238662392185,2.192760084491951,-0.024054313472257807,0.9220327589243016,-0.347695118953264
1.492058804546681,1.9826290897155872,-0.023467962115024638,0.9051932826092973,-0.36470084519179247
1.4867247233468877,1.7763581308927812,-0.02291535266578719,0.8884672288933564,-0.3835732267756471
1.4815139058012918,1.5739214936055212,-0.022396104252436197,0.871851356213246,-0.40419792724425974
1.476418732760641,1.3752941939361172,-0.02190974827496253,0.855342553955488,-0.42646369803773887
1.4714317019809346,1.180451948978316,-0.021455736765961526,0.8389378369819166,-0.4502621156868434
1.466545445497963,0.9893711485547172,-0.021033450042488643,0.8226343406145986,-0.47548732698968477
1.4617527453174217,0.8020288280369563,-0.020642203701346968,0.8064293160615914,-0.5020358010832264
1.457046547566157,0.6184026421690554,-0.020281255005304952,0.7903201262679691,-0.5298060873427831
1.4524199752396494,0.4384708397976027,-0.019949808703455054,0.7743042421794541,-0.5586985780599268
1.4478663396713891,0.26221223941494287,-0.01964702232489498,0.7583792394088901,-0.5886152748584708
1.4433791508411986,0.08960620542356423,-0.019372010981109102,0.7425427952987218,-0.619459557809444
1.4389521266318572,-0.07936737496898871,-0.019123851708816055,0.726792686375639,-0.6511359561990019
1.4345792011364598,-0.24472811431480324,-0.018901587381597657,0.711126786196632,-0.6835499198877718
1.430254532112816,-0.4064951470401468,-0.018704230215303715,0.6955430635889518,-0.7166075901758299
1.4259725076758203,-0.5646871512012126,-0.018530764889005888,0.6800395812898946,-0.7502155690538838
1.4217277523140708,-0.719322369974094,-0.018380151300120846,0.6646144949960161,-0.7842806856777085
1.4175151323130981,-0.8704186329747046,-0.018251326969206935,0.6492660528353597,-0.8187097588487674
1.4133297606643542,-1.0179933775080414,-0.01814320910682672,0.6339925952806417,-0.8534093542184438
1.4091670015366207,-1.1620636698508235,-0.018054696351726157,0.6187925555261422,-0.8882855348554878
1.4050224743847393,-1.302646226677318,-0.017984670186373283,0.6036644603563898,-0.9232436037251157
1.4008920577695587,-1.4397574367454808,-0.017931996032586887,0.5886069315407079,-0.9581878365225246
1.3967718929627608,-1.5734133829690222,-0.01789552402652623,0.5736186877944222,-0.9930212031821524
1.392658387410814,-1.703629865011223,-0.0178740894686611,0.5586985473551443,-1.0276450762454712
1.3885482181337667,-1.8304224225486507,-0.017866512940446794,0.5438454312312075,-1.0619589241130638
1.3844383351369633,-1.9538063593670003,-0.017871600075235052,0.5290583671892067,-1.0958599870297971
1.3803259649171755,-2.0737967684680356,-0.017888140966397455,0.5143364945588983,-1.1292429334537828
1.3762086141491148,-2.1904085583861743,-0.017914909190652084,0.4996790699466742,-1.161999494239419
1.3720840736439948,-2.303656480935871,-0.017950660419088642,0.485085473963716,-1.1940180718214939
1.367950422678836,-2.413555160637287,-0.01799413058229204,0.470555219092053,-1.2251833213211545
1.3638060338037181,-2.5201191260984857,-0.01804403354916733,0.45608795883144315,-1.2553757002067203
1.359649578244347,-2.6233628436677563,-0.018099058271452362,0.44168349829263337,-1.284470982835831
1.3554800320293368,-2.7233007537106886,-0.018157865337332102,0.427341806428547,-1.3123397358859066
1.3512966829857374,-2.819947309914312,-0.018219082867880272,0.4130630301247047,-1.3388467503570367
1.3470991387628393,-2.9133170220751268,-0.018281301679059916,0.39884751040411737,-1.3638504255207238
1.3428873360635067,-3.0034245028912423,-0.018343069619484707,0.38469580104035145,-1.3872020999135701
1.3386615512845899,-3.0902845193511865,-0.01840288497979312,0.37060868991566953,-1.4087453242737777
1.3344224127938236,-3.1739120493950352,-0.018459188852957515,0.3565872235090716,-1.4283150712453823
1.3301709151005816,-3.254322344617968,-0.018510356305668243,0.3426327349512209,-1.4457368768123078
1.3259084352126067,-3.3315309998932747,-0.018554686198462286,0.3287468761384121,-1.4608259088923958
1.3216367515112377,-3.405554030911347,-0.01859038946561675,0.31493165445348803,-1.4733859594979786
1.3173580655248145,-3.476407960763254,-0.018615575633715683,0.30118947469352153,-1.4832083586145735
1.313075027035331,-3.544109916840142,-0.018628237318314637,0.2875231868446654,-1.4900708108441216
1.3087907630190638,-3.6086777394688454,-0.018626232388357252,0.2739361403614776,-1.4937361604625408
1.3045089110007122,-3.670130103852273,-0.01860726342339693,0.2604322455813633,-1.4939510976724244
1.3002336574967885,-3.728486657016468,-0.018568854002025736,0.2470160428029607,-1.490444829693048
1.295969782344004,-3.783768171561853,-0.018508321239579385,0.23369277933079238,-1.4829277566884511
1.2917227098621293,-3.83599671803632,-0.01842274382020056,0.22046849436020804,-1.4710902169881257
1.2874985680039877,-3.8851958576329224,-0.018308924511466065,0.20735011082762758,-1.4546014024211253
1.2833042569230935,-3.9313908565695286,-0.01816334575717859,0.19434553209939906,-1.4331085984594816
1.2791475287831797,-3.9746089227854,-0.01798211632902696,0.18146373934293034,-1.406236983410139
1.2750370812112708,-4.0148794642635295,-0.01776090603539897,0.16871488220603337,-1.3735903378782648
1.2709826676696983,-4.052234366016457,-0.017494863891319677,0.15611035042812157,-1.3347531868098717
1.2669952293805768,-4.086708279050086,-0.017178512535823056,0.1436628063860365,-1.2892951443825706
1.2630870555936113,-4.118338908718535,-0.016805607350833678,0.1313861472526191,-1.2367785859869544
1.259271982471727,-4.147167280811239,-0.016368941535117584,0.11929534920565206,-1.1767712638102452
1.2555656465574252,-4.173237950246097,-0.01586006641533285,0.10740612414095622,-1.1088661357583387
1.251985818127386,-4.1965990981754615,-0.015268876454574412,0.095734292636122,-1.0327114685956156
1.2485528551079852,-4.217302438301658,-0.014582975888041331,0.08429475193949838,-0.9480550487066172
1.2452903433970066,-4.235402824918538,-0.013786691163946338,0.07309991429426449,-0.854806607629712
1.2422260304443455,-4.250957434140432,-0.012859508424410134,0.06215755720047346,-0.7531211863068946
1.2393932258613094,-4.26402440355136,-0.011773574906339018,0.05146826376409709,-0.6435007954415038
1.2368329560562266,-4.274660923574906,-0.010489640790034062,0.041023214701490396,-0.5268987504961814
1.2345973774367427,-4.282921085705496,-0.008950173292434506,0.030804282086267936,-0.40478747184373803
1.2327554964719378,-4.288854500141532,-0.007066182923260751,0.020790626053206095,-0.27912072195854576
1.2314041725779432,-4.2925083380548585,-0.004684459633214261,0.010981877540937443,-0.1521058021080566
1.2306981640645842,-4.293942083187574,-0.001454744830776252,0.0014854714391741661,-0.025745382972474862
