x,y,v_x,v_y,omega
2.375,32.48,0.0,3.333333333333333,-5.061224489795919
2.3738543241610195,31.85428288348936,-0.01205974567347934,3.2531626299365084,-4.7289294066747045
2.3705909082039205,31.243477165431,-0.02229200124335152,3.1763712443620413,-4.429341771399241
2.3655317349260145,30.64696254636797,-0.03096245431355355,3.102730008933019,-4.158291628714225
2.3589522887073215,30.0641602074233,-0.03829487430426903,3.032031453642457,-3.912237851771862
2.351088827507247,29.494528949867565,-0.044478401485989194,2.964087046944199,-3.68816008285702
2.3421444026842595,28.937561815859524,-0.04967343875598164,2.8987248899825615,-3.483471440419187
2.3322938641098596,28.392783112913996,-0.05401644097454465,2.8357877726019645,-3.2959475786248875
2.321688038528632,27.85974578001045,-0.057623828301536194,2.775131521119538,-3.1236687156108314
2.310457230935147,27.338029045046778,-0.060595198998306954,2.716623583761249,-2.964972014225282
2.29871416904974,26.827236332496604,-0.06301597874281667,2.6601418115037236,-2.8184122768486843
2.2865564877136086,26.326993387311557,-0.06495961426909509,2.605573400970454,-2.6827293547821496
2.274068831671899,25.836946586803275,-0.06648939669626756,2.552813972800942,-2.556821008857075
2.261324640644205,25.35676141679677,-0.06765998254262034,2.501766764109658,-2.4397202173688286
2.248387668948915,24.886121092026535,-0.06851866688147873,2.4523419176822854,-2.3305761290922637
2.2353132826101954,24.42472530374414,-0.06910645247346733,2.4044558537113208,-2.228638016895261
2.222149569344305,23.972289079966963,-0.06945895032537823,2.3580307123642417,-2.133241711633549
2.208938290718643,23.52854174583351,-0.06960714047106836,2.3129938574615587,-2.04379809429209
2.19571570081014,23.09322597322681,-0.06957801646053675,2.2692774331352696,-1.9597833025445355
2.1825132516316033,22.66609691024935,-0.06939513278722201,2.226817966627481,-1.8807303704439409
2.169358202266458,22.246921382332946,-0.06907907105640934,2.185556011439911,-1.8062220702079421
2.1562741459130934,21.835477157784926,-0.06864783792637608,2.145435825907676,-1.7358847656153806
2.1432814667776956,21.431552271440257,-0.06811720560412858,2.106405082983565,-1.6693831193980757
2.1303977368800937,21.034944400833716,-0.06750100384431339,2.06841460761158,-1.6064155237551245
2.117638061279317,20.64546028994703,-0.06681137090070105,2.0314181385640837,-1.5467101449618168
2.105015378927047,20.262915216140257,-0.06605896964951201,1.9953721120335315,-1.4900214909536558
2.092540725271676,19.887132496357992,-0.0652531740912348,1.9602354646218874,-1.4361274254988095
2.0802234618258715,19.517943029120275,-0.06440223060144522,1.9259694536698517,-1.384826564733427
2.06807147714591,19.155184869174946,-0.06351339760867178,1.8925374931231067,-1.3359360019049638
2.056091363026873,18.798702832009873,-0.0625930668022493,1.859905003351314,-1.2892893145342095
2.0442885691737134,18.448348125706765,-0.06164686849416477,1.8280392735235487,-1.2447348151766582
2.0326675391476634,18.103978007867944,-0.06067976335899563,1.7969093353061196,-1.2021340127877893
2.021231829996637,17.765455465568877,-0.05969612244128189,1.7664858467893034,-1.1613602565767926
2.009984217646033,17.432648916485082,-0.05869979703875968,1.736740985671713,-1.1222975383333076
1.9989267898431593,17.105431929516698,-0.0576941798335953,1.7076483508375697,-1.0848394326655264
1.9880610282067352,16.783682963389374,-0.05668225844455046,1.6791828715553203,-1.0488881575047762
1.9773878807260576,16.46728512184888,-0.055666662404688746,1.6513207236077494,-1.0143537397010054
1.9669078258770751,16.156125924191265,-0.05464970442670467,1.6240392517355757,-0.9811532726290887
1.9566209293703218,15.850097089981599,-0.05363341669701528,1.5973168978398413,-0.9492102545082575
1.9465268944145977,15.549094336914603,-0.05261958283692273,1.571133134444341,-0.918453997656453
1.9366251062673427,15.253017190860348,-0.05160976608154945,1.5454684029688799,-0.8888191001996134
1.926914671745111,14.961768807219535,-0.05060533415246923,1.5203040564080907,-0.8602449728674395
1.9173944542832055,14.675255802786051,-0.04960748123600958,1.495622306049635,-0.832675414460852
1.908071091690608,14.393389774607066,-0.04853317763343671,1.4713885168870444,-0.8036598661733836
1.8989500217752249,14.116085373194434,-0.047478084633757314,1.4476051821932998,-0.7759209285222749
1.8900275745961728,13.843258491266493,-0.046442411987841416,1.424256732837667,-0.7493877070954849
1.8813000487119784,13.574827914576808,-0.04542628152999605,1.401328284948479,-0.7239939893380273
1.8727637267825255,13.310715195326434,-0.044429738780034485,1.3788056018975607,-0.6996778860840723
1.8644148890970529,13.050844532560767,-0.0434527631723075,1.3566750587936716,-0.6763815042018254
1.856249825273541,12.795142659092598,-0.0424952770751864,1.334923609292333,-0.654050647338637
1.8482648443456944,12.543538734527932,-0.041557153744253,1.3135387545462647,-0.6326345420751035
1.8404562834281797,12.29596424400313,-0.040638224334848996,1.292508514135838,-0.6120855870808605
1.8328205151283603,12.05235290227112,-0.03973828408430354,1.2718213988326728,-0.592359123116043
1.8253539538530767,11.812640562801136,-0.03885709776078688,1.2514663850619128,-0.5734132219450552
1.8180530611417158,11.57676513158096,-0.03799440446406421,1.2314328909399277,-0.5552084924268788
1.8109143501415736,11.3446664853331,-0.037149921853221426,1.2117107537743765,-0.5377079022217134
1.8039343893281043,11.11628639387687,-0.03632334986750753,1.1922902089227905,-0.5208766137099329
1.7971098055608223,10.891568446387353,-0.035514373998620605,1.1731618699142219,-0.5046818328584778
1.7904372865551919,10.670457981319618,-0.03472266816590956,1.1543167097461329,-0.4890926698938959
1.7839135828416355,10.452902019782549,-0.03394789723994866,1.1357460432756383,-0.474080010752054
1.7775355092746477,10.238849202161461,-0.033189719254657836,1.1174415106305462,-0.45961639837360996
1.7712999461478232,10.028249727802276,-0.03244778734349617,1.0993950615714105,-0.4456759230030015
1.7652038399642302,9.821055297582589,-0.031721751431167435,1.0815989407410838,-0.4322341207281638
1.759244203905945,9.617219059206594,-0.031011259708675784,1.0640456737430715,-0.41926787956945716
1.7534181180415633,9.416695555071534,-0.0303159599163954,1.046728053994405,-0.40675535249029426
1.747722729306089,9.219440672563302,-0.029635500457017475,1.029639130302781,-0.3946758767594946
1.7421552512836849,9.025411596648002,-0.028969531357765334,1.012772195121419,-0.3830098991471742
1.736712963820284,8.834566764634811,-0.028317705099083722,0.9961207734384858,-0.37173890648262553
1.7313987454049262,8.647066623470561,-0.027621436115210625,0.9775649230273149,-0.40296903785840665
1.726212540088713,8.463081804466846,-0.026970198792296604,0.9591173822749336,-0.43565506624614553
1.721145912750393,8.282591996542784,-0.02636272055843896,0.940775332715202,-0.46968993406663934
1.7161906729588927,8.105577413660729,-0.025797698299458847,0.9225360660432701,-0.5049685923891588
1.7113388803821339,7.9320187742254085,-0.025273802508529526,0.9043969806443044,-0.5413877665860274
1.7065828494466082,7.761897281106602,-0.02478968102331902,0.8863555785010412,-0.5788457253466409
1.7019151533235097,7.595194602213908,-0.02434396237771889,0.8684094624746813,-0.6172420520635525
1.697328627312356,7.431892851552959,-0.023935258792318663,0.8505563339563645,-0.6564774175957604
1.6928163716887124,7.271974570692624,-0.0235621688249844,0.8327939908892815,-0.6964533533990841
1.6883717540788212,7.1154227105725205,-0.02322327970018524,0.815120326164442,-0.7370720239901529
1.6839884114206631,6.962220613579255,-0.02291716933305891,0.7975333263962524,-0.7782359976786288
1.6796602515681713,6.812351995818307,-0.02264240806159145,0.7800310710874178,-0.8198480144613288
1.6753814545930403,6.665800929506354,-0.022397560097680923,0.7626117321963173,-0.861810749921277
1.6711464738367634,6.522551825405927,-0.022181184705233906,0.7452735741239773,-0.9040265739136724
1.6669500367642422,6.382589415220647,-0.021991837110777256,0.728014954142134,-0.946397302748484
1.6627871456695325,6.245898733864713,-0.021828069149326744,0.710834323288732,-0.9888239434949373
1.658653078284033,6.112465101514836,-0.021688429645405204,0.6937302277626171,-1.0312064289354737
1.654543388337739,5.982274105346136,-0.021571464526110532,0.6767013108552651,-1.0734433415847164
1.6504539061250623,5.8553115808457825,-0.021475716659959482,0.6597463154642467,-1.1154316250612943
1.646380739128242,5.731563592588792,-0.021399725411833347,0.6428640872409077,-1.157066280955753
1.6423202727535533,5.6110164143497165,-0.021342025900679337,0.6260535784335857,-1.1982400491748675
1.6382691712384394,5.493656508411238,-0.02130114794262316,0.6093138524977727,-1.2388430695601282
1.6342243787914026,5.379470503916114,-0.02127561465776484,0.5926440895561716,-1.2787625223747983
1.630183121031076,5.26844517409182,-0.021263940714094248,0.5760435928048064,-1.317882245028746
1.6261429067964601,5.160567412157594,-0.021264630176599193,0.5595117959765081,-1.3560823221627554
1.6221015304069353,5.055824205700727,-0.02127617392366174,0.5430482719904985,-1.3932386459443935
1.6180570744585032,4.9542026092826354,-0.021297046586148817,0.5266527429367676,-1.4292224431371818
1.6140079132518956,4.855689715004793,-0.02132570295708884,0.5103250915668516,-1.4638997651969254
1.6099527169588934,4.7602726207294985,-0.02136057381135559,0.4940653744888623,-1.4971309373294222
1.6058904566456205,4.667938395610072,-0.021400061065200857,0.47787383729458227,-1.5287699621221593
1.601820410285939,4.578674042538438,-0.021442532194606363,0.4617509318805328,-1.558663873054496
1.5977421699146421,4.492466457064758,-0.021486313819043423,0.44569733626345576,-1.5866520329200693
1.5936556500892418,4.409302382282515,-0.021529684343064577,0.4297139772338451,-1.6125653719977342
1.5895610978511239,4.329168359102599,-0.02157086553186236,0.4138020562389704,-1.636225560736701
1.5854591044021802,4.252050671260712,-0.02160801287806963,0.3979630789388069,-1.6574441118564793
1.5813506187422344,4.177935284312866,-0.021639204595043086,0.38219888893325055,-1.6760214072181376
1.5772369635463512,4.106807777773813,-0.02166242904583311,0.36651170621466544,-1.691745645768516
1.5731198536003457,4.038653269442975,-0.021675570385803176,0.3509041709520708,-1.704391710538419
1.569001417158622,3.973456330843284,-0.02167639215865857,0.33537939325518834,-1.7137199554457068
1.5648842206424574,3.911200892573298,-0.02166251853780927,0.3199410095867871,-1.7194749170329195
1.5607712971612422,3.851870138247701,-0.021631412843404297,0.3045932464721307,-1.7213839630108643
1.5566661794171814,3.795446385586555,-0.021580352883551434,0.28934099206624836,-1.7191558996834504
1.5525729376504398,3.741910953126091,-0.02150640255583384,0.2741898759386528,-1.7124795755975535
1.5484962234040076,3.691244010991962,-0.02140637898555804,0.2591463570521794,-1.701022541433226
1.5444413200472935,3.6434244142439844,-0.02127681424301224,0.24421781924234143,-1.684429859635128
1.5404142012129798,3.598429517539323,-0.02111391032870966,0.22941267238566393,-1.6623232065515003
1.5364215986026655,3.556234970377016,-0.02091348556933574,0.21474045563862834,-1.6343004820889344
1.532471081051566,3.5168144931452154,-0.02067090970539524,0.20021193627507036,-1.599936247446044
1.52857114739037,3.48013963584237,-0.02038102357035223,0.18583919322857212,-1.5587834649647834
1.5247313366342625,3.446179524051729,-0.02003803702025336,0.1716356677255505,-1.5103772355913183
1.5209623605822473,3.4149006010445184,-0.019635395106222153,0.15761615340299376,-1.454241544979724
1.517276266384219,3.3862663815014002,-0.019165596451972557,0.1437966838930008,-1.389900469401408
1.513686640623965,3.36023724220982,-0.01861993786648856,0.1301942560183629,-1.3168958841288967
1.510208872950574,3.3367702892375064,-0.017988142906048967,0.11682630158493751,-1.2348144589029155
1.5068605078534427,3.315819360163289,-0.01725780548480685,0.10370979393314764,-1.143327528931566
1.503661730346355,3.2973352430773097,-0.016413536695063444,0.09085985960346468,-1.0422479864387082
1.500636059085265,3.281266216045502,-0.015435634474306278,0.07828779336293606,-0.9316078561260669
1.4978113651579301,3.2675590164779607,-0.014297985813427548,0.06599851787435114,-0.8117570081623057
1.4952214078436534,3.2561603047506615,-0.012964722757905526,0.05398792136037711,-0.6834745629691628
1.4929082069400543,3.247018523328979,-0.011384760437874916,0.042241356762580805,-0.548066353421212
1.4909258430298662,3.240085656555028,-0.009482228090422092,0.030736188226384388,-0.40739399936397575
1.489347056379395,3.235317543671872,-0.007136578756642705,0.019454473701580238,-0.26375508722705976
1.4882772107731412,3.2326691393367675,-0.00412495394076472,0.008423466667939814,-0.11953684757035404
