x,y,v_x,v_y,omega
2.375,32.48,0.0,2.6153846153846154,-5.3061224489795915
2.3740975759889382,31.98816006954287,-0.009499200116441227,2.5618778104798596,-5.024517742454116
2.371502988596781,31.506315319647694,-0.01781224611679463,2.510172188416735,-4.764818413194094
2.367428315497114,31.034133284767346,-0.025079049669171755,2.4601650208500945,-4.524773695945562
2.3620607629502612,30.571300218568364,-0.031421503455590485,2.411761991770773,-4.302410069162068
2.3555658434456435,30.117519585816964,-0.036946070277229896,2.3648762477176577,-4.09599187201029
2.348090100996749,29.672510721475923,-0.04174595550060725,2.319427587451201,-3.9039882589637545
2.3397634561118887,29.236007632883897,-0.04590293802423629,2.275341766149055,-3.725045348463566
2.330701229623211,28.807757925139235,-0.04948891975132208,2.23254989432109,-3.5579626517600556
2.321005894277351,28.38752183319631,-0.05256724178404824,2.1909879156044023,-3.4016730467269065
2.3107685947040393,27.975071346899348,-0.05519380635607341,2.1505961506794287,-3.255225701555836
2.300070469654451,27.570189417373637,-0.057418036271166796,2.1113188969596304,-3.1177714639147798
2.288983804911929,27.172669234979757,-0.059283697860647355,2.0731040756075214,-2.988550319161266
2.2775730407724435,26.782313570497994,-0.06082960887077964,2.035902918937344,-2.8668805916257245
2.265895654275814,26.398934172414467,-0.0620902489884772,1.9996696924682158,-2.752149619659616
2.2540029332888607,26.022351214178443,-0.0630962877162924,1.964361446858358,-2.6438056810106545
2.2419406569783553,25.65239278613233,-0.06387504186797507,1.9299377957322867,-2.541350982393681
2.2297496950696996,25.288894427513213,-0.06445087295998249,1.896360716047893,-2.4443355576133405
2.2174665364907926,24.931698694512566,-0.0648455331337753,1.8635943681694374,-2.352351943621425
2.2051237564885957,24.58065476087875,-0.06507846688934951,1.8316049332391477,-2.265030524522029
2.1927504300292715,24.235618047970732,-0.06516707478774572,1.8003604657926566,-2.1820354506113055
2.1803724982115598,23.896449881534075,-0.06512694434606142,1.7698307598563319,-2.1030610537216465
2.1680130935046913,23.563017172781873,-0.0649720525683465,1.7399872270089745,-2.027828691963662
2.1556928288399995,23.23519212163196,-0.0647149439020922,1.7108027850953693,-1.956083966849096
2.143430054917544,22.912851940184964,-0.06436688686059878,1.6822517564519315,-1.887594264076433
2.131241089517396,22.595878594730195,-0.06393801208832715,1.6543097746509314,-1.8221465762456428
2.1191404221148016,22.284158564743414,-0.06343743425476903,1.6269536988941065,-1.7595455716643662
2.1071408966767056,21.977582617495678,-0.06287335983045285,1.6001615352926102,-1.6996118783983918
2.0952538751537317,21.676045597028562,-0.06225318251663897,1.5739123643612314,-1.6421805569547665
2.083489383867953,21.3794462263716,-0.06158356785997938,1.5481862741330996,-1.5870997385897
2.0718562447253204,21.08768692198393,-0.060870528378263004,1.5229642983687124,-1.5342294093072915
2.0603621929463425,20.80067361949669,-0.060119490347816475,1.498228359391723,-1.4834403222431147
2.0490224149607457,20.518319224456434,-0.05924659371109691,1.4739231673477842,-1.4316075243113686
2.0378497956219093,20.240539648204866,-0.058359925645075916,1.4500723721424402,-1.3820681924729448
2.0268466578305673,19.967250059790068,-0.05746257742168341,1.4266601374869787,-1.3346942461637468
2.0160147690490624,19.698368569989483,-0.056557304488895614,1.4036713340981632,-1.2893661121339655
2.0053554018677646,19.433816100785037,-0.05564656057739332,1.3810914996328045,-1.2459720690749754
1.9948693884302964,19.17351626219157,-0.05473252823806513,1.358906801351067,-1.2044076495200466
1.984557169358209,18.91739523594071,-0.053817146204959844,1.337104001289562,-1.164575093427819
1.9744188377452123,18.66538166556237,-0.052902133931845355,1.315670423745599,-1.126382848459883
1.964454178728745,18.41740655244179,-0.05198901360991571,1.294593924892129,-1.089745112495244
1.954662705091634,18.173403157462914,-0.05107912993862141,1.2738628643591847,-1.0545814143939687
1.9450436892978757,17.93330690787873,-0.050173667890413096,1.2534660786322185,-1.0208162294377807
1.9355961923234197,17.697055309076234,-0.04927366868280952,1.2333928561308587,-0.9883786262435081
1.9263190896045752,17.46458786092868,-0.04838004414713353,1.2136329138434137,-0.957201942271968
1.9172110943926999,17.23584597845026,-0.047493589662078055,1.1941763754030985,-0.9272234853451449
1.9082707787736506,17.010772916489316,-0.046614995801600057,1.1750137505015752,-0.898384258842795
1.8994965925836318,16.789313698214976,-0.04574485883017633,1.1561359155440842,-0.8706287084797049
1.8908868804291932,16.57141504716975,-0.04488369016391495,1.1375340954583195,-0.843904488770092
1.8824398969978209,16.357025322676456,-0.04403192490316191,1.119199846576333,-0.8181622474689563
1.8741538208265882,16.146094458402757,-0.043189929530866325,1.1011250405152335,-0.7933554264441213
1.8660267666793713,15.938573903899918,-0.04235800886088916,1.0833018489883308,-0.7694400775794691
1.8580567966679942,15.734416568945072,-0.04153641231150329,1.0657227294837412,-0.7463746924414123
1.8502419302391182,15.533576770527645,-0.04072533957139899,1.0483804117523468,-0.7241200445586852
1.8425801531365815,15.336010182331282,-0.039924945718460475,1.0312678850514605,-0.7026390432715649
1.8350694254380233,15.141673786572404,-0.03913534584531001,1.0143783860946158,-0.6818965982019863
1.8277076887549155,14.950525828065562,-0.03835661924003644,0.997705387661618,-0.6618594934818472
1.8204990148557343,14.76273254926814,-0.03752415864608295,0.9790659681007055,-0.6857372744616042
1.8134444421111975,14.578470068393557,-0.036734501822725314,0.9605390937370087,-0.7112517390722135
1.8065359397077803,14.397717284337368,-0.03598657610798028,0.9421217910649724,-0.73828789136555
1.7997656851271961,14.220453649527414,-0.03527926158238036,0.9238112069345557,-0.7667330600840897
1.7931260726302125,14.046659147430923,-0.03461139628060555,0.9056046046074726,-0.7964766464691919
1.7866097207958753,13.876314270771275,-0.03398178092294367,0.8874993602309345,-0.8274098765414432
1.780209479204343,13.709400000375819,-0.03338918319844784,0.869492959721235,-0.8594255568041786
1.7739184343457843,13.54589778457732,-0.03283234162848713,0.8515829960524379,-0.8924178323215676
1.7677299148326244,13.385789519092238,-0.03230996903635438,0.8337671669484225,-0.9262819461150565
1.7616374959878314,13.22905752729907,-0.031820755645677906,0.8160432729796558,-0.9609139988062875
1.755635003877874,13.075684540839415,-0.031363371827557184,0.7984092160693359,-0.9962107074105297
1.749716518855466,12.92565368046321,-0.030936470513580845,0.7808629984170212,-1.0320691621518168
1.743876378674205,12.778948437037691,-0.030538689289163857,0.7634027218515991,-1.0683865801288763
1.738109181234736,12.635552652636989,-0.030168652178933154,0.7460265876294806,-1.1050600546090468
1.732409787020086,12.495450501625847,-0.029824971133170508,0.7287328966983297,-1.1419862986650395
1.726773321276387,12.358626471646613,-0.0295062472215596,0.7115200504514942,-1.1790613817959426
1.7211951759942619,12.22506534441337,-0.029211071537651026,0.6943865520036946,-1.2161804580884634
1.7156710117458054,12.094752176210687,-0.028938025814522234,0.6773310080245385,-1.2532374843762781
1.7101967594322676,11.967672277986907,-0.02868568274903418,0.6603521311731627,-1.2901249267435906
1.70476862199837,11.843811194922893,-0.02845260602883485,0.6434487431848853,-1.3267334535927782
1.6993830761706157,11.723154685346742,-0.028237350052790218,0.6266197786693181,-1.3629516133544868
1.6940368742790806,11.605688698852692,-0.028038459331789303,0.6098642896890907,-1.398665494761085
1.6887270462250425,11.491399353468289,-0.027854467552820828,0.5931814511993582,-1.4337583674305707
1.6834509016604688,11.380272911697475,-0.02768389628479685,0.5765705674407935,-1.4681103003178528
1.678206032449938,11.272295755248262,-0.027525253299739014,0.5600310793930292,-1.5015977553844684
1.6729903154910932,11.167454358231808,-0.027377030477572287,0.543562573411748,-1.5340931536178912
1.6678019159763275,11.06573525859454,-0.027237701256804695,0.5271647911910922,-1.5654644103007795
1.6626392911861934,10.967125027516051,-0.02710571758671263,0.5108376412140386,-1.5955744361940827
1.657501194914183,10.871610236472389,-0.026979506329185138,0.4945812118771379,-1.6242806010642923
1.6523866826331632,10.779177421626294,-0.026857465049971694,0.4783957865028054,-1.6514341557671695
1.6472951175261075,10.689813045162701,-0.026737957129561816,0.4622818604823671,-1.6768796089172977
1.6422261775180549,10.60350345313837,-0.026619306113097506,0.44624016082639645,-1.7004540540532465
1.63717986346271,10.520234829358497,-0.026499789206322424,0.4302716684354317,-1.7219864431934002
1.6321565086561338,10.43999314473,-0.026377629810266968,0.41437764344349887,-1.741296802827567
1.627156789871942,10.362764101470201,-0.02625098897070209,0.39855965402804777,-1.7581953887906117
1.622181740137845,10.28853307147103,-0.026117955598738637,0.38281960912114804,-1.7724817772403854
1.617232763502901,10.217285028032492,-0.025976535295410292,0.36715979549504635,-1.783943890290548
1.612311652079323,10.149004470086549,-0.02582463758435514,0.35158291972541844,-1.7923569569834716
1.6074206056833273,10.0836753379354,-0.025660061320864326,0.3360921555498398,-1.7974824135929126
1.602562254447878,10.02128091943133,-0.025480477999654205,0.3206911971245666,-1.7990667522415142
1.597739684838706,9.961803745435574,-0.025283412623207532,0.3053843186202359,-1.796840334251421
1.5929564695770186,9.905225473323252,-0.025066221710346042,0.2901764404568389,-1.7905161955892772
1.5882167020631153,9.851526757269408,-0.02482606790968878,0.2750732022152132,-1.779788887758594
1.583525036012572,9.80068710408716,-0.024559890517081788,0.26008104180844,-1.7643334207416879
1.5788867311730521,9.752684713539065,-0.02426437095155073,0.24520727975044265,-1.7438044082651538
1.5743077062045225,9.707496302376583,-0.023935891875075953,0.23046020617041174,-1.717835564274932
1.5697946001094083,9.665096911985216,-0.023570488073493875,0.2158491663702948,-1.6860397694611586
1.5653548440411758,9.625459700580333,-0.02316378632895335,0.20138463789163646,-1.6480100269227906
1.5609967459791558,9.588555722639306,-0.022710930113363077,0.18707828780338523,-1.603321768850869
1.5567295917618744,9.554353700996426,-0.02220648270012626,0.17294299264796817,-1.5515371775250808
1.552563767527408,9.522819801222056,-0.02164429871530695,0.15899279445065082,-1.4922124635685512
1.5485109110508866,9.493917424153633,-0.02101734840597181,0.1452427536380228,-1.4249094225199648
1.544584103331903,9.467607041454414,-0.020317469688592455,0.13170864319585288,-1.3492130789217973
1.5407981179203083,9.443846111515477,-0.019535008328195238,0.11840640879295136,-1.2647578044516028
1.5371697552135166,9.422589129059858,-0.018658283322240846,0.10535130126620765,-1.1712648561270118
1.5337183043705702,9.403787880035257,-0.01767277818245906,0.09255658320327481,-1.0685945190222421
1.5304661997076998,9.387391988454514,-0.01655990247933459,0.08003174922559146,-0.9568152581490356
1.5274399764055477,9.373349840141692,-0.015295079648581891,0.06778033827778789,-0.8362891187174468
1.5246716910437232,9.361609921049048,-0.013844766265360145,0.05579775743424083,-0.7077648739940997
1.5222010777421344,9.352122462370719,-0.012161689540836393,0.044070228653428856,-0.5724558089339159
1.5200789320125208,9.344840955123193,-0.01017668656036275,0.0325772160573678,-0.4320581665140895
1.518372834107507,9.339722418270384,-0.00778223875557283,0.02130211923534742,-0.28864829557153004
1.5171787154044618,9.336723601012316,-0.004787431802795212,0.010264378217986047,-0.1444005561736926
1.5166569683592892,9.335781256707186,-0.0007046423569168252,-0.000344964479753844,-0.0011675285012194836
