x,y,v_x,v_y,omega
2.375,32.48,0.0,3.7948717948717947,-4.326530612244898
2.3733159477761543,31.620796937266956,-0.014643932381267353,3.6764591854155246,-3.9433116099316017
2.3686027076063514,30.788048248558084,-0.02634076474745354,3.5648337598790167,-3.6116787825235166
2.361472189751222,29.980262027028076,-0.03566373834062797,3.4593942534253945,-3.3228028336977053
2.3524182730922285,29.19607633730745,-0.04306597173757693,3.3596117441452615,-3.069619116986064
2.3418412774687885,28.434243877545477,-0.04890790324885863,3.2650183407414737,-2.8464304543776144
2.330066908410584,27.693618986434117,-0.05347791464857144,3.175198103705122,-2.6486086834085283
2.3173610315545283,26.973146543511806,-0.057007971056258426,3.0897796608367205,-2.4723681573150027
2.303941273287322,26.271852417450507,-0.059685579093361404,3.00843013100066,-2.314592280056398
2.2899861867928193,25.588835193888656,-0.06166299911970658,2.930850073885001,-2.1726995355636967
2.275642536854325,24.9232589709995,-0.06306439164981048,2.85676925558593,-2.044539205960465
2.261031121137254,24.27434705346306,-0.06399139719428273,2.785943070817878,-1.9283096028230577
2.246251445733709,23.641376407898537,-0.06452751935828198,2.718149499308405,-1.8224935085685576
2.2313854984504946,23.023672767874054,-0.06474158745228129,2.6531865009044777,-1.725806873916383
2.216500807638774,22.420606296257603,-0.06469050656267887,2.5908697740212063,-1.6371577984839112
2.2016529323196843,21.831587728258636,-0.06442145273375263,2.531030817274139,-1.5556135418045232
2.1868874973934,21.256064931005227,-0.06397363358176375,2.4735152457989873,-1.4803738453073256
2.1722418632554477,20.69351982561455,-0.06337970674825712,2.4181813228155877,-1.4107492437741005
2.1577465003074376,20.14346562596943,-0.06266692758226627,2.3648986740985043,-1.3461433440371278
2.143426124261461,19.605444355203304,-0.06185808151318103,2.313547158650406,-1.2860382752837616
2.1293006367778933,19.07902460651956,-0.06097224443088729,2.2640158733821654,-1.2299826880712537
2.1153859070846917,18.563799519657938,-0.06002540507521351,2.216202273240641,-1.1775818116653134
2.1016944232318764,18.059384948249352,-0.05903097625361559,2.170011391181843,-1.1284891815776263
2.0882358361068873,17.56541779661058,-0.05800021613759059,2.1253551448074948,-1.0823997285476779
2.0750174149478164,17.081554507332893,-0.05694257654998292,2.082151718476733,-1.0390439821537243
2.0620444295922553,16.607469683402062,-0.05586599175924386,2.040325011356577,-0.9981831908271531
2.049320471897948,16.142854830622223,-0.05477711862603637,1.9998041432507108,-0.9596051983519515
2.0368477265195626,15.68741720786064,-0.05368153683818648,1.9605230111978307,-0.9231209472772809
2.0246271994090264,15.240878774130977,-0.052583916296910546,1.9224198907992605,-0.8885615038216265
2.0126589109356194,14.802975222827932,-0.051488157384890994,1.8854370770532978,-0.8557755181518722
2.0009420593264693,14.373455094547591,-0.05039750878163238,1.8495205601670526,-0.8246270494180954
1.9894751591533453,13.952078960901638,-0.04931466663683591,1.8146197324064661,-0.7949936974169752
1.9782561587943213,13.53861867258177,-0.04824185822424272,1.7806871225489198,-0.766764992866297
1.9672825401446805,13.132856665671191,-0.047180912642197426,1.747678154934374,-0.7398410064858363
1.9565514033130618,12.734585320848332,-0.04613332067622711,1.7155509304817944,-0.7141311437765604
1.946059538594501,12.343606370696847,-0.04510028557212698,1.6842660273572199,-0.6895530978700154
1.9358034876442987,11.959730350836324,-0.04408276616876356,1.6537863192560325,-0.6660319373196251
1.9257795954714787,11.582776091029228,-0.04308151359488811,1.6240768095013323,-0.6434993094130905
1.9159840546167435,11.212570242809225,-0.042097102533242885,1.5951044793682536,-0.6218927426496298
1.9064129426680927,10.848946840520984,-0.041129957889808194,1.5668381492251273,-0.6011550345669312
1.8970622540902704,10.491746892967445,-0.04018037756951553,1.5392483512404462,-0.5812337132162463
1.8879279271958946,10.140818003132367,-0.039248551946794316,1.512307212542852,-0.5620805623472095
1.8790058669615666,9.796014013688044,-0.03833458052562429,1.4859883478425726,-0.5436512018390716
1.8703067778750602,9.457195778876859,-0.037309672400519495,1.4602571722546829,-0.5221431465380264
1.8618400927241572,9.12422967036747,-0.036313676737767524,1.4351002930443408,-0.5017280543585758
1.8535992305735793,8.796986192850767,-0.03534599413682023,1.4104951636226506,-0.4823363288964602
1.8455777526510477,8.475340905352574,-0.03440598779823765,1.386420379839902,-0.46390364556708497
1.8377693698417765,8.159174166786304,-0.03349299315194854,1.3628556076928904,-0.4463704895147409
1.830167948142222,7.848370897508097,-0.03260632597461311,1.3397815164654356,-0.42968173937532667
1.8227675123951546,7.542820355679183,-0.03174528921727542,1.3171797168294763,-0.41378629182430005
1.8155622485810126,7.242415927343512,-0.03090917873178765,1.2950327034807219,-0.3986367224576864
1.808546504900326,6.947054929221931,-0.030097288056790263,1.273323801924313,-0.38418897908854255
1.8017147918477328,6.656638423308401,-0.02930891240054068,1.2520371190629072,-0.3704021040059643
1.7950617814488088,6.3710710424298185,-0.028543351937930922,1.231157497272603,-0.3572379821483994
1.788582305805909,6.090260826000083,-0.027799914522066812,1.2106704716816157,-0.34466111249605197
1.782271355077793,5.814119065261501,-0.027077917896332276,1.1905622303930274,-0.33263840029565844
1.7761240749994522,5.542560157363393,-0.026376691480543526,1.1708195774166152,-0.3211389680009489
1.7701357640328472,5.27550146767944,-0.025695577794282946,1.151429898096021,-0.31013398304885403
1.7643018702257802,5.012863199812184,-0.025033933571517435,1.1323811268366346,-0.2995965007994185
1.7586179878445698,4.754568272775941,-0.024391130612920073,1.1136617169567742,-0.28950132115022387
1.7530798538362748,4.500542204888383,-0.02376655641573289,1.0952606125002433,-0.27982485749718017
1.7476833441676982,4.250713003936685,-0.02315961461536829,1.0771672218623476,-0.27054501685561594
1.7424244700810982,4.0050110632166955,-0.022569725268108434,1.0593713930940896,-0.2616410900811004
1.7372993743002534,3.7633690630733945,-0.02199632500010833,1.0418633907607007,-0.25309365124045946
1.7323043272151417,3.5257218775981976,-0.021438867044339865,1.024633874241024,-0.24488446528180124
1.7274357230688775,3.292006486163661,-0.020896821184046017,1.0076738773636524,-0.23699640323961504
1.722690076166569,3.0621618894991514,-0.020369673618635287,0.9909747892842496,-0.22941336428849898
1.7180683645700165,2.836228297516012,-0.019819122873124803,0.9736651410039114,-0.23943923639424797
1.7135699439804961,2.6142613411754425,-0.019297577905314157,0.9564823054358321,-0.25176914517059196
1.7091881097562094,2.3962322880189504,-0.01880532839283208,0.939422504620624,-0.26627675923539523
1.7049161065581218,2.182113256810954,-0.01834252550358229,0.9224821145793349,-0.2828398186012072
1.7007471587982068,1.971877182962519,-0.0179091941478519,0.9056576580157514,-0.3013398405967161
1.6966744983837299,1.765497785571288,-0.01750524423890439,0.8889457975601699,-0.32166183766135426
1.6926913899769593,1.5629495359564807,-0.01713048103736069,0.8723433295251118,-0.34369404581508944
1.6887911539730949,1.3642076275742205,-0.01678461464841791,0.8558471781467075,-0.36732766265706474
1.6849671873839818,1.1692479472041626,-0.016467268735172895,0.8394543902885637,-0.3924565937902344
1.6812129828012516,0.9780470473033702,-0.016177988505958796,0.8231621305879001,-0.41897720660476756
1.677522145599775,0.7905821194277003,-0.01591624802862132,0.8069676770266168,-0.4467880903809475
1.6738884095306816,0.6068309686246707,-0.015681456920016473,0.7908684169127709,-0.47578982169269113
1.6703056508425935,0.426771988704715,-0.015472966454663969,0.7748618432607268,-0.5058847341056828
1.6667679010600804,0.25038413830021256,-0.015290075132404282,0.7589455515610315,-0.5369766911694005
1.6632693585396336,0.0776469176232979,-0.015132033741047478,0.7431172369338893,-0.5689708616998663
1.6598043989155846,-0.09145965416534807,-0.014998049946335803,0.7273746916630045,-0.6017734963395548
1.6563675845413819,-0.25695506106418975,-0.014887292438037025,0.7117158031095616,-0.6352917043622136
1.6529536730253822,-0.41885831190285217,-0.01479889465761039,0.6961385520092709,-0.6694332296629725
1.649557624954852,-0.5771879616671782,-0.014731958129610125,0.6806410111587555,-0.7041062248375268
1.6461746108971318,-0.7319621325680714,-0.014685555415781154,0.6652213445011644,-0.7392190222077372
1.6428000177629403,-0.8831985349475602,-0.014658732707625593,0.6498778066248044,-0.7746799005939589
1.6394294546135084,-1.0309144881190946,-0.014650512070042993,0.6346087426928777,-0.8103968465659291
1.6360587579907282,-1.1751269412438958,-0.014659893345437163,0.6194125888271524,-0.846277308823113
1.632683996847697,-1.3158524943509917,-0.014685855724400036,0.6042878729736789,-0.8822279442609169
1.6293014771560368,-1.4531074196156908,-0.014727358985688485,0.5892332162845911,-0.9181543541698782
1.6259077462661466,-1.5869076830199447,-0.014783344404659456,0.5742473350567224,-0.9539608088894614
1.6224995970971698,-1.717268966528131,-0.014852735325574611,0.5593290432753456,-0.9895499590949409
1.6190740722349735,-1.8442066909240964,-0.014934437389175246,0.5444772558199873,-1.0248225317334916
1.615628468018919,-1.967736039469294,-0.015027338402602881,0.5296909923991386,-1.0596770084424194
1.6121603387017056,-2.0878719825587737,-0.015130307834035453,0.514969382292004,-1.09400928407691
1.6086675007712277,-2.204629303571025,-0.01524219590924968,0.5003116699884371,-1.1277123027453582
1.6051480375292773,-2.3180226261305137,-0.01536183228162409,0.485717221833193,-1.1606756684962136
1.601600304029202,-2.4280664430280865,-0.015488024240769808,0.4711855337978828,-1.192785227520921
1.5980229324834538,-2.534775147075095,-0.015619554417910155,0.4567162405239294,-1.2239226184335092
1.594414838262501,-2.638163064202665,-0.015755177938201245,0.4423091258027696,-1.2539647868609127
1.5907752266190638,-2.7382444891588733,-0.015893618961251528,0.4279641346859832,-1.2827834602338168
1.587103600286306,-2.8350337242043295,-0.01603356654099112,0.41368138744840294,-1.3102445783141
1.583399768115767,-2.928545121262033,-0.01617366972456461,0.3994611956620454,-1.336207674645683
1.579663854940806,-3.0187931280411746,-0.01631253179683695,0.3853040806783265,-1.3605252037928934
1.5758963128745258,-3.105792338728179,-0.01644870356212115,0.37121079486081604,-1.3830418089683525
1.5720979342780699,-3.189557549922668,-0.016580675537495634,0.3571823459608551,-1.4035935245026228
1.5682698666663653,-3.270103822592759,-0.01670686891210906,0.3432200250834219,-1.422006907647779
1.564413629854565,-3.3474465509335687,-0.016825625103546876,0.3293254387497228,-1.4380980945517658
1.5605311356904557,-3.421601539136546,-0.016935193714794,0.3155005456239976,-1.4516717760599918
1.556624710767085,-3.4925850872143727,-0.017033718662340935,0.30174769853102784,-1.4625200905459574
1.552697122567257,-3.5604140871761487,-0.01711922220572964,0.28806969244092095,-1.4704214336132522
1.5487516095593634,-3.625106131006504,-0.017189586558562547,0.2744698191273766,-1.4751391887908862
1.5447919158450416,-3.6866796320636865,-0.017242532696410497,0.26095192919596777,-1.4764203900639503
1.5408223310574507,-3.7451539616626945,-0.017275595891334764,0.24752050209974827,-1.4739943374236737
1.536847736330687,-3.8005496027288928,-0.01728609738487349,0.23418072456282496,-1.467571202329614
1.5328736573154453,-3.8528883224595916,-0.01727111144331309,0.22093857744323914,-1.4568406836295253
1.5289063254184927,-3.9021933658578405,-0.017227426791056717,0.2078009303676454,-1.4414708098875455
1.524952748717903,-3.948489671712487,-0.017151501040158557,0.19477564228146346,-1.4211070368453511
1.5210207943918408,-3.991804111946813,-0.01703940614299069,0.18187166410400554,-1.3953718671313073
1.5171192850612338,-4.032165754021342,-0.016886761949243295,0.16909913654404982,-1.363865335341155
1.5132581122951074,-4.069606143912708,-0.016688653408377743,0.1564694712069614,-1.3261668724155975
1.5094483718451681,-4.104159603588833,-0.016439524417182678,0.1439953955419733,-1.281839312675134
1.5057025272731481,-4.13586353111581,-0.01613303707864381,0.1316909307795551,-1.2304361661815308
1.502034612033656,-4.1647586825305964,-0.01576187804737275,0.1195712554360029,-1.1715137845532724
1.4984604856579442,-4.190889401078813,-0.015317481741426255,0.10765238411371553,-1.1046507298808854
1.4949981689228073,-4.214303739967342,-0.0147896203032425,0.09595056274303221,-1.0294775033075174
1.491668298213992,-4.23505339875657,-0.01416577716471832,0.0844812528154552,-0.9457206645200588
1.4884947646511446,-4.253193363086453,-0.01343016686004005,0.07325756744440665,-0.8532658178757242
1.485505645286083,-4.268781112459251,-0.012562175444841324,0.06228807927555062,-0.7522428020204688
1.482734602454649,-4.2818752685653365,-0.011533849176324707,0.051574147733895334,-0.6431312923710834
1.4802230442769724,-4.292533657914838,-0.010305787151299933,0.041107498783519186,-0.5268719687384226
1.478023562777566,-4.300811072303169,-0.008820138930493902,0.030870017636779844,-0.40494370462818946
1.476205717621593,-4.306757732155788,-0.006987210251879488,0.020840068038180837,-0.27933446497668846
1.4748671734418266,-4.310421142173908,-0.004652304354784601,0.0110156712498413,-0.15231405419394176
1.4741640420443445,-4.311860723186356,-0.0014618817102776743,0.001502424510595424,-0.025959067678706926
