x,y,v_x,v_y,omega
2.375,32.48,0.0,2.1025641025641026,-2.7346938775510203
2.3745952137213577,32.0633895499889,-0.0040478627864217335,2.063540397546902,-2.6083451850780426
2.373426232306387,31.654475184793437,-0.007641951363289965,2.0256032544076765,-2.490327719273088
2.371579122080238,31.2530447107836,-0.010829150898195278,1.9887014856907381,-2.379907629417135
2.369131096641025,30.858895843080926,-0.013651103493936601,1.9527871913359762,-2.276428734011712
2.3661515006839844,30.471835576023253,-0.016144856076468633,1.9178154792407323,-2.179303086805073
2.3627026730861647,30.09167960646721,-0.018343419901727512,1.8837442163197073,-2.0880028298247537
2.358840705600814,29.718251804242744,-0.02027625495178137,1.8505338059249448,-2.0020531387261733
2.354616111075379,29.35138372483448,-0.021969690302564987,1.818146988157692,-1.9210260981587126
2.3500744130698337,28.990914160003758,-0.023447289752889143,1.7865486601495335,-1.8445353713493204
2.3452566670416273,28.636688722605093,-0.024730170529174738,1.755705713837129,-1.7722315498760812
2.3401999218226033,28.288559462309077,-0.025837281661066577,1.7255868891230222,-1.7037980875669165
2.3349376288953674,27.94638450933479,-0.026785647611292266,1.696162640619822,-1.6389477373358072
2.3295000059441993,27.610027743629935,-0.027590581900387514,1.6674050164287708,-1.5774194221358546
2.323914360277911,27.279358487225466,-0.02826587476250032,1.6392875476159243,-1.5189754815244427
2.318205376973885,26.954251217741117,-0.028823958277759017,1.6117851472275346,-1.4633992439692862
2.3123953759531335,26.634585301234683,-0.0292760519297527,1.584874017836819,-1.4104928822722904
2.306504541648418,26.320244742776797,-0.029632291117404414,1.5585315667420345,-1.3600755155914466
2.3005511284570983,26.011117953298136,-0.02990184079579092,1.5327363280445672,-1.3119815266949202
2.2945516447655647,25.707097531400798,-0.030092996119546984,1.507467890928812,-1.2660590674456467
2.288521017982952,25.408080058953367,-0.03021327170657975,1.4827068335455222,-1.2221687292198016
2.2824781661887594,25.113967521706087,-0.03021524623534445,1.4584185389272786,-1.1782968427388245
2.276439636740892,24.824665447273546,-0.030170048243329924,1.4346022053981118,-1.1364323106838807
2.270414378047123,24.54008112607419,-0.030082538694359173,1.411241006595478,-1.0964595046492962
2.264410411935634,24.26012513677048,-0.029957122420532032,1.3883188864415923,-1.0582707165857026
2.2584349204607816,23.98471119667215,-0.029797792327991415,1.36582051454171,-1.0217655300030657
2.2524943243245112,23.713756020749656,-0.029608169034712955,1.3437312446832237,-0.9868502477847013
2.2465943537763082,23.447179188663142,-0.02939153644731599,1.3220370761819253,-0.9534373709201662
2.240740112759235,23.184903019260375,-0.029150873723418836,1.3007246178457579,-0.921445123096557
2.2349361369855605,22.926852452041018,-0.02888888401332614,1.2797810543477879,-0.8907970166427476
2.2291864465513496,22.672954935124316,-0.02860802032878032,1.2591941148192423,-0.8614214558095422
2.223494593633849,22.42314031929333,-0.028310508846227246,1.2389520434905814,-0.8332513737992742
2.2178637057575497,22.177340757721883,-0.027998369916763875,1.2190435722239332,-0.806223900338489
2.2122965250634743,21.93549061102009,-0.02767343702398953,1.1994578947940084,-0.7802800569234309
2.2067954439706954,21.697526357261985,-0.027337373903802836,1.1801846427870344,-0.755364477165628
2.2013625375786865,21.463386506683438,-0.026991690016283734,1.1612138629984305,-0.7314251499287395
2.195999593123183,21.23301152076159,-0.026637754538752414,1.1425359962200503,-0.7084131831821187
2.1907081367662538,21.00634373540789,-0.026276809030540343,1.1241418573169393,-0.6862825867048629
2.185489457972837,20.783327288026015,-0.02590997890362854,1.1060226165018259,-0.6649900719595814
2.180344631700591,20.563908048203526,-0.025538283818832264,1.0881697817230467,-0.6444948676204361
2.175274538607267,20.348033551822382,-0.025162647114403566,1.0705751820884075,-0.6247585493875709
2.170279883459569,20.135652938388176,-0.02478390436257859,1.0532309522536567,-0.6057448828519078
2.1653612119093575,19.92671689139182,-0.02440281113953724,1.0361295177098662,-0.5874196782922627
2.160518925786872,19.721177581529922,-0.02402005008531331,1.019263580909135,-0.5697506563924135
2.155753297046115,19.51898861262174,-0.023636237322258922,1.0026261081726968,-0.552707323960513
2.151064480484528,19.32010497007149,-0.023251928293609267,0.9862103173297753,-0.5362608588183185
2.146454737599677,19.124667188459465,-0.022845500554900436,0.9681674987904831,-0.5568115608188186
2.1419235960177305,18.932826630288105,-0.022465915264566063,0.9502380829231094,-0.5791071567432151
2.1374657075129626,18.74456092237652,-0.022112969783114906,0.9324189961927184,-0.6030355121852364
2.1330757733497214,18.559848294110246,-0.021786371849294696,0.9147072864700316,-0.6284870150806686
2.128748561436562,18.378667553600458,-0.021485747282300308,0.8971001186278638,-0.6553543362221003
2.124478922002486,18.20099806468363,-0.0212106470584606,0.8795947705404071,-0.683532194922429
2.1202618019161648,18.02681972468215,-0.020960553804753135,0.8621886294744343,-0.7129171288793809
2.116092257760918,17.856112942848295,-0.020734887747710942,0.8448791888640794,-0.743407267298788
2.1119654677708763,17.68885861941554,-0.0205330121527077,0.8276640454634825,-0.7749021063330781
2.107876742727085,17.525038125181766,-0.020354238285208524,0.8105408968742667,-0.8073022858831658
2.1038215359063313,17.36463328154958,-0.020197829922324922,0.7935075394476011,-0.8405093667964665
2.09979545217011,17.207626340948465,-0.020063007439887107,0.7765618665635179,-0.874425607470748
2.0957942562764,17.05399996756279,-0.01994895149721783,0.7597018672932404,-0.9089537388425994
2.091813880492795,16.903737218288107,-0.01985480633883216,0.7429256254535852,-0.943996736699947
2.0878504315859745,16.75682152383614,-0.019779682729369745,0.7262313190660751,-0.9794575902097196
2.0839001972595215,16.613236669905803,-0.01972266053516197,0.7096172202372963,-1.0152390654938068
2.0799596521097135,16.472966778333944,-0.01968279096291667,0.6930816954813185,-1.051243463018126
2.076025463167118,16.33599628813484,-0.019659098463037036,0.6766232065097385,-1.087372367480091
2.0720944950906097,16.202309936331847,-0.019650582302046114,0.6602403115202,-1.123526388788154
2.0681638150798625,16.07189273847781,-0.019656217805428786,0.6439316670201615,-1.159604892622386
2.0642306975724303,15.94472996875286,-0.0196749572688911,0.6276960302293619,-1.1955057189462612
2.060292628792288,15.820807139518728,-0.019705730532530632,0.6115322621119746,-1.2311248867058384
2.0563473112181683,15.70010998019773,-0.01974744520866524,0.5954393310979988,-1.2663562828023993
2.052392668042299,15.582624415331612,-0.019798986550030255,0.5794163175631764,-1.3010913332573524
2.048426847693229,15.468336541660513,-0.01985921694066909,0.5634624191478206,-1.3352186543031566
2.0444482285004577,15.357232604044967,-0.01992697498704569,0.5475769570076227,-1.3686236809307861
2.04045542358359,15.249298970033806,-0.020001074181627554,0.5317593831039855,-1.4011882702031166
2.036447286054893,15.144522102857607,-0.02008030110534351,0.5160092886580013,-1.4327902764057154
2.0324229146314767,15.042888532600696,-0.020163413128817767,0.5003264139111122,-1.4633030948544576
2.028381659762094,14.944384825273875,-0.020249135565013766,0.4847106593570877,-1.492595170917793
2.024323130383816,14.848997549474714,-0.020336158217762374,0.4691620986345338,-1.5205294705480643
2.020247201435895,14.75671324028156,-0.02042313126145131,0.45368099329701655,-1.5469629083631127
2.016154022272076,14.667518359980928,-0.02050866037673896,0.4382678097093072,-1.5717457290949595
2.012044026128871,14.581399255174656,-0.02059130105530856,0.4229232383534012,-1.5947208380542723
2.0079179408260277,14.498342109752635,-0.020669551973125814,0.40764821586682226,-1.6157230761883317
2.0037768008971097,14.418332893148154,-0.020741847316053597,0.3924439501779722,-1.634578435395918
1.9996219613731498,14.341357303215545,-0.020806547923545467,0.37731194914810623,-1.6511032100915268
1.9954551134713103,14.26740070298321,-0.02086193109484795,0.36225405317524567,-1.665103081708916
1.9912783024741467,14.19644805043978,-0.020906178876789874,0.3472724722590458,-1.676372134081214
1.9870939481243157,14.128483820407638,-0.02093736462151965,0.33236982806236337,-1.6846917996928166
1.9829048679057113,14.063491917448705,-0.02095343756452424,0.31754920152695415,-1.689829740043809
1.9787143036367618,14.001455578636552,-0.020952205124970476,0.3028141865945688,-1.6915386683444105
1.9745259518675375,13.942357264924027,-0.020931312567272823,0.28816895053066577,-1.6895551302504288
1.9703439986530484,13.886178539749459,-0.020888219577618595,0.27361830121500647,-1.6835982694966167
1.9661731593762335,13.832899933477556,-0.020820173190530283,0.2591677615040026,-1.6733686217263457
1.962018724424177,13.782500792296005,-0.020724176330036176,0.24482365031149073,-1.6585470039304246
1.9578866116933842,13.734959110336018,-0.020596950977890188,0.2305931692883755,-1.63879360213013
1.9537834271356942,13.6902513441328,-0.02043489459901022,0.21648449274380546,-1.613747411215444
1.9497165348895547,13.648352209208486,-0.02023402786238462,0.20250685649934977,-1.5830262552517291
1.9456941390269804,13.609234459723428,-0.019989930763358626,0.18867063835123093,-1.546227724084617
1.941725379674152,13.572868654064749,-0.019697662764924972,0.17498741823555755,-1.5029315165019148
1.9378204473800387,13.53922291230404,-0.019351660176208662,0.16146999937150652,-1.4527038998814754
1.9339907213532048,13.50826267619184,-0.01894560009212896,0.14813236175051275,-1.3951053037636758
1.9302489399563072,13.479950489471324,-0.018472213876848137,0.1349895054546525,-1.3297024837447247
1.9266094162836793,13.454245826633215,-0.0179230228494314,0.12205712292642028,-1.2560872361973319
1.9230883187895915,13.431105012587686,-0.017287952091445513,0.10935101752885922,-1.1739042888218811
1.9197040484424837,13.410481294251202,-0.01655475137963495,0.09688616583597143,-1.0828916077497004
1.9164777623618794,13.392325145836068,-0.01570810942640532,0.08467531831535531,-0.9829365785855307
1.9134341234286354,13.376584905688755,-0.014728279906034446,0.07272708315777263,-0.8741504786752378
1.9106024026004267,13.363207836019583,-0.013588928376052425,0.06104361353395776,-0.7569596790917913
1.9080181383989316,13.352141630093964,-0.012253713638899566,0.04961844572225181,-0.6322024612873782
1.9057256994728606,13.343336195689929,-0.010670675621809953,0.03843589831809984,-0.5012027214469471
1.9037824160783878,13.336745103528749,-0.00876215832291686,0.02747502329370658,-0.3657680027285348
1.902265928596877,13.332325146057709,-0.006402716492191955,0.016724551416705292,-0.22804206975882377
1.9012907256650426,13.33002963851196,-0.0033493128261514217,0.00623052404079409,-0.09015625639750374
