x,y,v_x,v_y,omega
2.375,32.48,0.0,3.0256410256410255,-5.795918367346939
2.3739573229909303,31.94126875744075,-0.011585300100775511,2.9602616694617074,-5.4634843481727335
2.3709685744849507,31.414089548191875,-0.021623016632330322,2.8972850999702535,-5.159316760734644
2.3662945916349334,30.89804309288761,-0.030310126145641426,2.8365644034104283,-4.880266471678442
2.3601632168383087,30.392735400264648,-0.037816260483519146,2.777965514622515,-4.6236028933294975
2.352773839849245,29.897795593254564,-0.04428792828385963,2.7213656743784247,-4.386950059839625
2.344301245450866,29.412873991091306,-0.049852009475901196,2.666652127435558,-4.168233724711305
2.334898884970217,28.937640408226258,-0.054618662531310216,2.6137210155094297,-3.965637356405578
2.3247016674587178,28.47178263818324,-0.05868375426312637,2.562476429412974,-3.7775653625052046
2.313828348652581,28.015005096236884,-0.06213089913839436,2.5128295922131816,-3.6026122198182877
2.3023835817544653,27.5670275993425,-0.06503317750733781,2.46469815105778,-3.4395364553898222
2.2904596828124975,27.127584265366277,-0.06745458851452615,2.4180055597891386,-3.2872386314712587
2.2781381543960846,26.696422516571985,-0.06945128277894992,2.3726805379252003,-3.1447426505339107
2.2654910039106344,26.273302174672306,-0.0710726115038275,2.3286565942934554,-3.01117982504484
2.2525818868969725,25.857994636669765,-0.07236202198130727,2.2858716057347985,-2.885775258869571
2.239467100749454,25.450282122285078,-0.07335782410223166,2.244267442983924,-2.767836168765733
2.22619645024469,25.04995698507011,-0.0740938481729235,2.2037896371823864,-2.656741839982448
2.21281400293209,24.656821080382812,-0.07460001085596553,2.16438708156537,-2.5519349629131702
2.1993587496653753,24.270685184305222,-0.07490280321863976,2.1260117637411624,-2.4529141407020494
2.1858651832454377,23.891368458345763,-0.07502571255844577,2.0886185246972877,-2.3592273927171066
2.172363806215281,23.518697955410232,-0.07498958777662747,2.0521648412530284,-2.270466507467896
2.1588815772297623,23.152508163072987,-0.0748129565069155,2.01661062916082,-2.1862621221073044
2.145442304061895,22.79264058064719,-0.07451230091383289,1.9819180644591374,-2.10627942509932
2.1320669901594513,22.438943326954707,-0.07410229800220604,1.948051421012926,-2.0302143947356406
2.118774140694467,22.091270776042414,-0.07359602938651102,1.9149769224569566,-1.9577904995641082
2.105580033224618,21.74948321839195,-0.07300516472292351,1.882662606992665,-1.8887557979475302
2.0924989573851485,21.41344654543069,-0.07234012238229208,1.8510782036879827,-1.8228803833014842
2.079543427433161,21.083031955379887,-0.0716102104175696,1.8201950190987488,-1.7599541293863314
2.0667243709562197,20.75811567867528,-0.07082375043733138,1.7899858331746308,-1.6997846966129886
2.054051296620712,20.438578721371307,-0.06998818662386638,1.7604248035361927,-1.6421957658764734
2.0415324434609015,20.12430662509459,-0.06911018181847434,1.7314873773162325,-1.587025471129324
2.0291749138876636,19.815189242249584,-0.06819570232861336,1.703150209850488,-1.534125005890858
2.0169847923185595,19.511120525300612,-0.06725009288365148,1.675391089582563,-1.4833573822747494
2.004967251091572,19.211998329062624,-0.06627814297176185,1.6481888686173087,-1.4345963240029591
1.9931266451178962,18.917724225029495,-0.06528414562464187,1.6215233984174584,-1.3877252773383844
1.9814665965499458,18.628203326854702,-0.06427194957480559,1.5953754701913367,-1.3426365259778477
1.9699900705852476,18.34334412617654,-0.06324500558850794,1.5697267595660318,-1.2992303977562671
1.9586994433917275,18.063058338049267,-0.06220640767282507,1.5445597751814235,-1.2574145525679337
1.9475965630222825,17.78726075530404,-0.061158929765454895,1.5198578108766703,-1.217103342250172
1.9366828040839492,17.515869111219587,-0.060105058438247316,1.495604901172806,-1.178217234330472
1.9259648885999665,17.24880662825896,-0.05898289138378289,1.471756020611929,-1.1385615496444983
1.9154480860134235,16.985999070560972,-0.057870470688917826,1.448327953810188,-1.1005819437063242
1.905130543207826,16.727371958854754,-0.056768893817720004,1.4253066207033485,-1.064188751669985
1.8950102238468836,16.47285329446025,-0.0556790990816413,1.4026785392355556,-1.0292980112854673
1.8850849354665842,16.222373454544712,-0.054601882921684566,1.3804307931593083,-0.9958310421002096
1.8753523536218777,15.975865092988855,-0.05353791535283215,1.358551001905795,-0.9637140598786497
1.8658100434005551,15.73326304650405,-0.0524877537729748,1.3370272923698157,-0.9328778229489942
1.8564554785826242,15.49450424566874,-0.05145185531514662,1.3158482724669551,-0.9032573075254445
1.8472860586931428,15.259527630576763,-0.05043058790131249,1.2950030063328004,-0.8747914093550241
1.8382991241696143,15.028274070812763,-0.049424240137894926,1.2744809910449602,-0.8474226693055784
1.8294919698412424,14.800686289490447,-0.0484330301773468,1.2542721347585555,-0.8210970207494817
1.8208618568962327,14.576708791108242,-0.04745711365609536,1.2343667361548394,-0.7957635568096129
1.8124060234945665,14.35628779299434,-0.04649659080686247,1.214755465110749,-0.7713743157233125
1.8041216941670242,14.13937116012896,-0.04555151283249624,1.1954293445045976,-0.7478840827489756
1.7960060881264028,13.92590834314636,-0.044621887618850574,1.1763797330798436,-0.7252502071910147
1.7880564266036876,13.715850319332624,-0.04370768485576406,1.1575983092950035,-0.7034324332541879
1.7802699393101773,13.509149536447673,-0.04280884062768189,1.1390770560933574,-0.6823927435595161
1.7726438701160927,13.305759859211463,-0.04192526152881537,1.1208082465311942,-0.6620952142628018
1.7651754820268337,13.105636518304937,-0.0410568283518391,1.1027844302079977,-0.6425058808144762
1.7578620615297176,12.908736061746058,-0.040203399393896444,1.0849984204462293,-0.6235926134873735
1.7507009223765535,12.715016308510393,-0.03936481341903941,1.0674432821722604,-0.6053250018781364
1.7436894088607506,12.524436304274069,-0.03854089231210184,1.050112320453573,-0.5876742476592289
1.7368248986416814,12.336956279164692,-0.03773144345533281,1.0329990696506244,-0.5706130649228307
1.7301048051636752,12.152537607413105,-0.036936261855849,1.0160972831447714,-0.5541155875159356
1.7235265797122339,11.9711427688055,-0.036155132049052234,0.9994009236064085,-0.5381572828184424
1.7170877131457687,11.792735311841621,-0.03538782980056231,0.9829041537700179,-0.5227148714634862
1.7107921470430132,11.617509756807536,-0.034562904674498615,0.9640464577198093,-0.5586093064057597
1.7046405961086255,11.445669339001011,-0.033787661263143,0.94529151790824,-0.5956912510254865
1.6986242713737139,11.277195790637013,-0.033060391346985116,0.9266367972472863,-0.6338560816147604
1.6927346917723511,11.11207129138143,-0.032379382001489765,0.9080798611480793,-0.6730005789799183
1.6869636847852734,10.950278450117743,-0.03174291785493018,0.8896183751151155,-0.7130226968248421
1.6813033867037723,10.791800287113151,-0.03114928305063605,0.8712501027136812,-0.7538213309821304
1.6757462425655072,10.636620216516775,-0.03059676293008914,0.8529729039127146,-0.7952960884583827
1.6702850058112193,10.484722029121873,-0.030083645450888014,0.8347847338084129,-0.8373470552333072
1.6649127377090291,10.33608987532277,-0.029608222351226086,0.8166836417371622,-0.8798745617171166
1.6596228065911043,10.190708248195335,-0.02916879007016024,0.7986677707899048,-0.9227789447261954
1.654408886946039,10.048561966627293,-0.028763650430566744,0.780735357743891,-0.9659603047826857
1.6492649584092542,9.909636158421467,-0.028391111089261914,0.7628847334319716,-1.0093182574787392
1.6441853046931554,9.773916243290909,-0.028049485756279375,0.7451143235742306,-1.0527516775698966
1.6391645124986458,9.641387915660054,-0.02773709418271545,0.7274226501019232,-1.0961584343735062
1.6341974704499553,9.51203712718003,-0.027452261913847295,0.7098083330094578,-1.1394351169462573
1.6292793680955864,9.38585006885928,-0.027193319801360846,0.6922700927766534,-1.1824767473987516
1.6244056950195727,9.262813152702407,-0.026958603265459836,0.6748067534108314,-1.2251764805734202
1.6195722401091923,9.142912992740438,-0.026746451294321245,0.6574172461666031,-1.2674252881639
1.614775091027874,9.026136385324484,-0.02655520516477062,0.640100614010653,-1.3091116251881059
1.610010633945274,8.912470288541666,-0.02638320686412072,0.6228560169095667,-1.350121076542703
1.6052755535805119,8.801901800597012,-0.026228797188791272,0.6056827380310282,-1.3903359811627705
1.600566833619372,8.694418136987572,-0.026090313490540463,0.5885801909627354,-1.4296350310868433
1.5958817575719997,8.590006606274677,-0.0259660870358163,0.5715479280694273,-1.4678928424846327
1.5912179101443749,8.488654584237018,-0.025854439937793378,0.5545856501267666,-1.5049794954439975
1.5865731792047135,8.390349486160346,-0.025753681614000885,0.5376932173917929,-1.5407600390382403
1.5819457584351073,8.29507873698866,-0.025662104714958382,0.5208706622935969,-1.5750939579099983
1.5773341507692904,8.202829739026278,-0.025577980460785295,0.5041182039551008,-1.6078345963227936
1.5727371727296333,8.113589836839427,-0.025499553313181947,0.48743626478770014,-1.6388285353597194
1.5681539597905094,8.027346278959357,-0.02542503489930514,0.4708254894353007,-1.6679149187120026
1.5635839729113237,7.944086175935698,-0.025352597091646993,0.454286766383134,-1.6949247223300732
1.5590270064010356,7.863796454228151,-0.025280364133776344,0.43782125258960863,-1.719679963153043
1.5544831972973157,7.78646380535595,-0.02520640368533343,0.4214304015459441,-1.741992842257487
1.5499530364679939,7.7120746296472475,-0.025128716640464805,0.4051159952174281,-1.7616648181723553
1.545437381670741,7.640614973844389,-0.025045225551231915,0.3888801803698862,-1.7784856069373296
1.5409374728396936,7.572070461726231,-0.024953761460405413,0.3727255098318809,-1.7922321069443679
1.5364549499059095,7.506426216806027,-0.024852048914975795,0.356654989281477,-1.8026672489957751
1.5319918735034228,7.443666776055689,-0.024737688890432104,0.3406721301667223,-1.8095387757687194
1.5275507489660174,7.38377599349861,-0.02460813930296045,0.3247810093564033,-1.812577960619052
1.523134554084233,7.326736932412135,-0.024460692716867738,0.3089863360488669,-1.8114982842874694
1.5187467711713736,7.272531744800215,-0.024292450759346933,0.2932935263057938,-1.8059941008914169
1.5143914240871619,7.221141536758424,-0.024100294620782732,0.2777087852696634,-1.7957393434823752
1.5100731209970757,7.172546218391549,-0.02388085082461859,0.26223919658451106,-1.780386347148709
1.5057971038183275,7.126724337111067,-0.023630451161472686,0.24689281764308035,-1.7595649080907532
1.5015693055421218,7.083652893517524,-0.023345085240812715,0.23167877784073942,-1.7328817559595464
1.4973964169620277,7.043307139784478,-0.023020343426901384,0.21660737474865235,-1.6999207021346614
1.4932859648379333,7.005660361691195,-0.02265134684081208,0.20169015962117084,-1.6602438499329453
1.4892464042784928,6.970683647473358,-0.02223265937519478,0.18693999835480213,-1.6133944296862266
1.4852872292865076,6.938345649867827,-0.021758173869083422,0.17237108615110464,-1.5589020728836152
1.481419107233923,6.908612352665983,-0.02122096004852635,0.1579988827582736,-1.4962916902182661
1.477654045928621,6.881446860478622,-0.020613054454827782,0.1438399193235055,-1.4250975934937282
1.4740056065741651,6.856809241093639,-0.01992516059468279,0.1299114071763214,-1.344885112126209
1.470489183382992,6.83465646450982,-0.01914620819612625,0.11623055486611886,-1.2552826631666858
1.4671223825875424,6.814942501428565,-0.018262689531094087,0.10281347937006544,-1.1560278708691647
1.4639255527526314,6.797618664324716,-0.01725764196791779,0.08967359956159555,-1.047031434547743
1.4609225487272886,6.782634288216862,-0.01610906942478064,0.07681946830343844,-0.9284609656467296
1.45814185997677,6.769937836255469,-0.014787472247647341,0.0642522201564987,-0.8008419618696365
1.45561831364823,6.759478436742185,-0.013251931402796185,0.05196332999109163,-0.665161481747778
1.4533957098306778,6.751207641283774,-0.011443666570006079,0.03993439732460699,-0.5229395604271952
1.4515310918509385,6.7450807189343,-0.009274310982651312,0.028142517669549484,-0.37620739721922725
1.450102466379462,6.741055777884807,-0.006599305367091032,0.01657904954703416,-0.22731606965662368
1.4492269903493904,6.739085703310106,-0.0031282060781461017,0.005310667949618821,-0.07852340366545787
