x,y,v_x,v_y,omega
2.375,32.48,0.0,2.4615384615384617,-6.530612244897959
2.373727459665945,31.968534999073054,-0.012119431752903665,2.4095567853848148,-6.171553930468393
2.370073040660806,31.467789824845266,-0.022684558772230367,2.35944487392743,-5.841636977123024
2.3643431964219306,30.977384104440087,-0.03188538635991636,2.3110857965980838,-5.537733760765169
2.3568071681448095,30.49696087855152,-0.03988631151742847,2.264373497578747,-5.257121192989509
2.3477019527005143,30.02618446596158,-0.04683002604728864,2.2192113842301895,-4.997419858892882
2.337236522029398,29.564738599830328,-0.05284074224905804,2.1755111503531914,-4.756543635928803
2.3255954221997923,29.112324791318045,-0.0580268751757555,2.133191787859038,-4.532657749173568
2.3129418553387326,28.668660884760047,-0.062483285405765095,2.0921787507885385,-4.324143665860165
2.299420328172464,28.233479775365474,-0.06629316379679247,2.052403243445489,-4.1295695708331035
2.285158935595966,27.806528265714785,-0.06952962264604544,2.013801610370594,-3.94766542363503
2.2702713355320587,27.387566041528,-0.0722570446292644,1.9763148104559394,-3.7773017978493546
2.2548584616122263,26.97636475052129,-0.07453223079771133,1.939887961036518,-3.6174718589159482
2.2390100123697905,26.572707170854834,-0.07640538103500788,1.9044699405487884,-3.467275958697627
2.2228057492726316,26.17638645784422,-0.07792093417602892,1.8700130405046878,-3.325908421537728
2.2063166307265547,25.787205459371812,-0.07911829007232608,1.8364726592325376,-3.192646173305732
2.1896058049132314,25.40497609187761,-0.0800324319593238,1.8038070311884264,-3.066838926395104
2.172729480803905,25.029518769997043,-0.08069446431997358,1.7719769867217507,-2.9479006831544754
2.155737693767754,24.66066188389638,-0.08113207888146161,1.7409457380464481,-2.8353023603455
2.1386749797587883,24.298241319175073,-0.08136995929916603,1.71067868787078,-2.7285653698836074
2.121580970027702,23.94210001488926,-0.08143013337784645,1.681143257708389,-2.6272560178445494
2.1044909165937926,23.59208755582719,-0.08133228027843428,1.652308733358927,-2.530980605689043
2.0874361572694777,23.24805979565447,-0.08109399900075341,1.6241461254288942,-2.4393811357942936
2.070444527809879,22.90987850796115,-0.08073104347161805,1.5966280430789235,-2.352131538414138
2.0535407277247937,22.57741106259608,-0.08025752876728914,1.5697285794455422,-2.268934349697558
2.036746645409582,22.250530124976915,-0.07968611232996237,1.5434232074036496,-2.189517780840098
2.020081647499917,21.92911337632507,-0.07902815347637258,1.5176886845186677,-2.1136331271943845
2.003562836712393,21.613043253000555,-0.07829385402385762,1.4925029661910372,-2.041052473522733
1.987229801265674,21.302214019591204,-0.07725886451632333,1.467775447231339,-1.9652574690675495
1.9711175484040433,20.99652379573506,-0.07619116273730255,1.44356001806525,-1.8930727441352322
1.955232336513784,20.69586705535262,-0.0750965695508796,1.4198375093865978,-1.8242821642343356
1.9395792688055136,20.400142199640353,-0.07398026576598281,1.3965896878730695,-1.7586850039699158
1.9241624206218029,20.109251366631728,-0.0728468597931667,1.3737991979233533,-1.6960946729420021
1.9089849533172052,19.823100252530203,-0.07170044786966898,1.351449507805463,-1.6363375612626487
1.8940492161803375,19.541597943929673,-0.07054466771954643,1.32952485981862,-1.5792519921288624
1.8793568376969927,19.264656760116864,-0.06938274640754813,1.3080102241129221,-1.5246872703481082
1.86490880730377,18.992192104720985,-0.06821754305171336,1.2868912558478203,-1.4725028169865564
1.8507055486506079,18.724122326039666,-0.06705158697840262,1.2661542554028546,-1.4225673814235527
1.836746985275429,18.460368585427176,-0.06588711183282453,1.2457861313827443,-1.3747583230709308
1.8230325994928376,18.200854733182638,-0.06472608609661828,1.2257743661842855,-1.3289609558713724
1.809561485209598,17.945507191422212,-0.0635702404104236,1.206106983915015,-1.2850679494420498
1.796332395300987,17.694254843461408,-0.06242109205253899,1.186772520473603,-1.2429787813918605
1.7833437841126698,17.447028929271603,-0.061279966883815366,1.1677599956197626,-1.2025992359243967
1.7705938455913972,17.203762946609405,-0.06014801903306639,1.1490588868773752,-1.1638409443544488
1.7580805474935133,16.96439255744876,-0.05902624856582706,1.1306591051287604,-1.1266209636219464
1.7458016620721755,16.728855499374312,-0.05791551735167697,1.112550971770766,-1.0908613892912942
1.7337547936015372,16.497091501620325,-0.056816563321067375,1.094725197314796,-1.056488999882504
1.721937403058297,16.26904220546334,-0.05573001328122225,1.0771728613231801,-1.0234349296989402
1.710346830247374,16.04465108869813,-0.054656394441852114,1.059885393583548,-0.9916343675997595
1.698980313628575,15.823863393946581,-0.053596144784805524,1.0428545564312246,-0.9610262794174337
1.687835008074474,15.606626060566896,-0.05254962239710967,1.0260724281372082,-0.931553151945772
1.6769080007660202,15.392887659947448,-0.05151711387387766,1.0095313872861116,-0.903160756624816
1.666196325411225,15.182598333984568,-0.05049884188607712,0.9932240980746314,-0.8757979312286461
1.6557059623112396,14.975863484821296,-0.049409378113785034,0.9756792272898738,-0.878621043403
1.6454403271851432,14.772800100380937,-0.04835857546808631,0.9582577673802081,-0.8837611004230662
1.6353913338468327,14.573382639233337,-0.04734612299201339,0.9409561483112153,-0.8910881238788303
1.6255509720095294,14.377586294003077,-0.046371608791827036,0.9237709491198476,-0.9004760196178556
1.6159113275210841,14.185386960754226,-0.04543452919336649,0.906698891345408,-0.9118022837895496
1.6064646007540582,13.996761209700178,-0.04453429715926166,0.8897368329788695,-0.9249477200166615
1.5972031233001664,13.811686257132312,-0.04367025002065909,0.8728817629055848,-0.9397961665001227
1.5881193731078604,13.630139938466169,-0.04284165657273049,0.8561307958195773,-0.956234231912478
1.5792059881919132,13.4521006823081,-0.04204772357915072,0.8394811675906151,-0.974151038976212
1.5704557790347755,13.277547485448924,-0.04128760172692109,0.8229302310682091,-0.9934379746565535
1.5618617397911678,13.10645988869426,-0.04056039106934257,0.8064754523095466,-1.0139884459240756
1.5534170583997704,12.938817953443529,-0.03986514599158597,0.7901144072212299,-1.035697640060746
1.5451151256989895,12.774602238931507,-0.039200879730135314,0.7738447786075463,-1.0584622884941113
1.5369495436375162,12.61379378004752,-0.03856656847437185,0.7576643536208978,-1.0821804331480196
1.528914132664759,12.45637406564796,-0.03796115507569644,0.7415710216129925,-1.1067511942946633
1.5210029383811936,12.302325017277806,-0.03738355238683312,0.7255627723884848,-1.132074538881601
1.51321023752419,12.151628968216087,-0.03683264625129493,0.7096376948659888,-1.1580510482886528
1.505530543360962,12.004268642758902,-0.03630729816040106,0.6937939761548182,-1.1845816844428718
1.4979586105568874,11.8602271356514,-0.035806347592690246,0.6780299010594778,-1.2115675531849015
1.490489439584609,11.719487891577224,-0.03532861404805533,0.6623438520278999,-1.2389096637365777
1.4831182807369907,11.582034684610104,-0.0348728987864047,0.6467343095637331,-1.266508683067228
1.4758406378052165,11.4478515975275,-0.034437986278113016,0.6311998531277342,-1.294264683894357
1.468652271482067,11.31692300088044,-0.034022645370930464,0.6157391625585384,-1.3220768849828566
1.4615492025497074,11.189233531706659,-0.03362563017534855,0.6003510200488932,-1.3498433823251588
1.4545277149111935,11.064768071765936,-0.03324568066764219,0.5850343127199077,-1.3774608696925157
1.4475843585253676,10.943511725166818,-0.032881523006889714,0.5697880358431187,-1.4048243469446693
1.4407159523059303,10.82544979524262,-0.03253186955917936,0.5546112967682988,-1.4318268143715638
1.4339195870472317,10.710567760521418,-0.032195418618904084,0.5395033196240813,-1.4583589512168234
1.427192628441831,10.598851249619667,-0.03187085381348212,0.5244634508687677,-1.4843087763993172
1.4205327202581484,10.490286014871515,-0.03155684317397042,0.5094911657802899,-1.5095612893078736
1.413937787750652,10.384857904485912,-0.03125203784980547,0.4945860759873561,-1.533998088397749
1.4074060413800915,10.282552833000597,-0.030955070441247,0.4797479381584959,-1.5574969651700128
1.400935980927377,10.183356749775825,-0.03066455291793937,0.46497666398217974,-1.5799314709729133
1.3945264000919368,10.087255605240792,-0.030379074086253198,0.4502723315895559,-1.601170453936984
1.3881763916739103,9.994235314571757,-0.03009719656161638,0.43563519859171645,-1.6210775632567622
1.3818853534494915,9.90428171844242,-0.02981745319475448,0.42106571692577627,-1.6395107179812372
1.3756529948603338,9.817380540443743,-0.029538342892461437,0.4065645497283013,-1.6563215375005298
1.3694793446514066,9.733517340721829,-0.029258325763988083,0.392132590480416,-1.6713547310576262
1.3633647596073162,9.652677465328349,-0.0289758175130646,0.3777709846955672,-1.684447443927428
1.3573099345552768,9.574845990718355,-0.02868918298254817,0.3634811544472309,-1.6954285584701432
1.3513159138240813,9.500007662765324,-0.028396728743122775,0.34926482605782927,-1.7041179491936258
1.3453841043732075,9.428146829593949,-0.028096694598532725,0.3351240612886113,-1.7103256924065444
1.339516290835453,9.359247367458924,-0.027787243856273344,0.3210612923783105,-1.713851233231999
1.333714652751365,9.29329259882601,-0.027466452182659768,0.30707936126848373,-1.7144825159902246
1.3279817843158768,9.230265201744835,-0.02713229482198936,0.2931815633141423,-1.7119950886872752
1.322320717009343,9.170147109549134,-0.026782631906903723,0.27937169569252823,-1.706151199181532
1.3167349455500865,9.112919399892068,-0.026415191514585334,0.26565411056524263,-1.6966989104124046
1.3112284576888407,9.058562172140622,-0.02602755002109022,0.25203377278187566,-1.6833712760936177
1.3058057684750013,9.00705441224294,-0.025617109158332735,0.23851632148175583,-1.6658856382259002
1.300471959772516,8.958373844388557,-0.025181068960573226,0.2251081342742865,-1.643943136097209
1.2952327260082217,8.912496769167337,-0.024716395461278087,0.21181639164208846,-1.6172285564978868
1.2900944274266293,8.869397888591593,-0.024219781506268127,0.1986491376507294,-1.5854107113569462
1.2850641525480968,8.829050119410997,-0.023687598289279042,0.18561533073588002,-1.548143608244301
1.280149792153527,8.791424397812307,-0.023115834039957157,0.17272487496592587,-1.5050687895319788
1.275360128060693,8.756489481118702,-0.022500014463224034,0.15998861735412256,-1.4558193678973979
1.2707049413918108,8.724211755838972,-0.02183509666898689,0.14741829007187132,-1.4000264910390507
1.266195147235986,8.69455506680432,-0.02111532386267812,0.13502636740101456,-1.3373292371946799
1.2618429660143233,8.667480589655433,-0.020334021105537097,0.12282579592170077,-1.2673892764735897
1.2576621471219256,8.642946778986158,-0.019483301679203636,0.11082954378567375,-1.1899120058547992
1.2536682685515363,8.620909436911756,-0.018553637086408985,0.09904990454196153,-1.1046761897927926
1.2498791486874337,8.601321960289734,-0.01753321876218854,0.08749749185825634,-1.0115741932467097
1.2463154254926196,8.584135834879,-0.016407002140802415,0.07617989300587565,-0.910664211500861
1.243001387270228,8.56930144107044,-0.015155266643881254,0.06510004802801615,-0.802233620602089
1.2399661841168446,8.556769197868313,-0.01375143005500869,0.05425464913510296,-0.6868673953263521
1.237245624594467,8.546490963604484,-0.01215866063430139,0.04363329623468712,-0.5655061918535291
1.23488491332761,8.538421376876062,-0.010324303811955366,0.03321991070264163,-0.4394656007084099
1.2329430782248556,8.532518359346383,-0.008169363833324624,0.022999303865722034,-0.3103763894720435
1.2315011862910719,8.528740969923845,-0.005562940297948423,0.0129758334917855,-0.1800061194608937
1.2306831691707016,8.527038753252445,-0.002227698943672983,0.0032357538548731107,-0.04995429893189399
