x,y,v_x,v_y,omega
2.375,32.48,0.0,3.333333333333333,-4.448979591836735
2.373753507820327,31.789075629577958,-0.011871354092123405,3.246898765924181,-4.128973046648968
2.3702198436429844,31.115882215376473,-0.021782590453998,3.164467083613765,-3.84369329481477
2.364777905919082,30.45960993707061,-0.030045387868880512,3.085745090727801,-3.5882920647423937
2.3577467738653746,29.81950743500522,-0.03691777454738131,3.0104692146568333,-3.3587179692281905
2.3493959098264514,29.194876005788004,-0.042614263918553455,2.938401539792876,-3.151567900157378
2.339953453562925,28.585064559246934,-0.04731389097217334,2.869326522503015,-2.963969266543098
2.3296129994282953,27.989465208848873,-0.05116662459573073,2.803048243192807,-2.793486033091507
2.3185391598860696,27.40750939415281,-0.05429851390165728,2.739388087245869,-2.6380432721539724
2.3068721526549427,26.838664453893603,-0.05681584068050044,2.6781827723656386,-2.495866222524171
2.294731598288818,26.282430583637442,-0.05880848661592566,2.61928265864543,-2.3654307929118383
2.2822196761672098,25.738338123860807,-0.06035267644701171,2.562550291608254,-2.245423151308809
2.269423756780251,25.205945133658563,-0.06151322247640449,2.507859138889294,-2.1347065701207244
2.256418604716531,24.684835212714543,-0.062345368606640195,2.45509248914898,-2.0322940975837414
2.243268228333516,24.174615540126517,-0.06289631123159795,2.404142487879842,-1.9373259319468308
2.2300274375412923,23.67491510350325,-0.06320645821815596,2.3549092894846186,-1.8490506102126267
2.216743159583037,23.18538309569395,-0.06331047471760674,2.307300308699166,-1.7668093054015528
2.203455553485123,22.70568745975776,-0.06323815478633495,2.2612295573598193,-1.6900226682055708
2.1901989564688984,22.235513565475458,-0.06301515013009115,2.2166170548525512,-1.6181797600706376
2.177002689675516,21.774563002957127,-0.06266358123545339,2.173388302464903,-1.5508287123194284
2.1638917457537525,21.322552480792197,-0.06220255135277239,2.1314738133915667,-1.487568815262937
2.15088737696476,20.879212817789465,-0.061648579970968446,2.090808691396353,-1.4280437964160149
2.138007599284515,20.44428801871555,-0.06101596936469515,2.0513322521647357,-1.3719360910271898
2.1252676253909457,20.017534425603422,-0.060317115335966884,2.0129876822365014,-1.3189619435346336
2.112680237295273,19.598719937200823,-0.05956277128948732,1.9757217311215758,-1.2688672071017808
2.1002561076264277,19.187623289988988,-0.05876227317570303,1.9394844328006662,-1.221423731489924
2.0880040771321706,18.784033394946626,-0.057923731531511306,1.904228853317075,-1.176426248299494
2.0759313947638853,18.387748724880996,-0.05705419578549123,1.8699108615936757,-1.133689677924633
2.0640439257182703,17.998576747711496,-0.05615979512512397,1.8364889209729856,-1.093046795099905
2.05234633198156,17.616333401583958,-0.055245859510214046,1.8039238992893032,-1.0543462002131099
2.0408422292308583,17.240842608125963,-0.054317023829803815,1.7721788955487363,-1.0174505520421988
2.0295343233686007,16.87193582053346,-0.0533773177155046,1.7412190815227298,-0.9822350245882695
2.0184245294805256,16.509451603513853,-0.0524302431233063,1.711011556759246,-0.9485859564932154
2.0075140755989347,16.153235242406904,-0.05147884146327434,1.6815252156878524,-0.9163996663686853
1.9968035933084154,15.803138379066997,-0.05052575177976649,1.6527306256445853,-0.8855814113988741
1.9862931969398772,15.459018672323158,-0.04957326125393023,1.6245999147729333,-0.856044469955797
1.97598255285196,15.120739481040513,-0.04862334910718661,1.59710666887132,-0.8277093317976482
1.9658709400893337,14.788169567991492,-0.04767772482258788,1.5702258363574368,-0.8005029818026256
1.9559573035291384,14.461182822910164,-0.04673786146498626,1.5439336406075992,-0.7743582651989115
1.9462403004748348,14.13965800325067,-0.04580502476647758,1.5182074990066334,-0.7492133239491494
1.9367183415269213,13.823478491303206,-0.044880298546983055,1.493025948112058,-0.7250110953862751
1.9274026028884876,13.512533558885796,-0.0438410218190524,1.4683543606251774,-0.698179852506772
1.9183028565714562,13.2067165614041,-0.042823228819342786,1.4441884725338385,-0.6726182450250103
1.9094145814766053,12.905923252297548,-0.041827010179236096,1.4205097094333172,-0.6482508103039053
1.900733247027126,12.610053193482784,-0.04085236553009103,1.397300374516826,-0.6250074222920194
1.892254330867416,12.319009576514524,-0.03989921694333696,1.3745435966094512,-0.6028228544599875
1.883973333921116,12.032699054274968,-0.03896742064047281,1.3522232818625168,-0.5816363832877657
1.8758857931483623,11.751031582454445,-0.03805677719527705,1.3303240688091316,-0.561391428108723
1.8679872922986582,11.473920270145989,-0.037167040420952535,1.3088312865094862,-0.5420352235940196
1.8602734709179636,11.201281238930857,-0.03629792510947371,1.2877309155393908,-0.5235185215789296
1.8527400318357796,10.933033489881442,-0.03544911376846834,1.267009551597892,-0.5057953192997011
1.8453827473294762,10.669098777953025,-0.03462026248203929,1.2466543715298997,-0.48882261143199224
1.8381974641382761,10.409401493276714,-0.033811006005580437,1.2266531015778122,-0.47256016360571895
1.831180107477688,10.15386854890334,-0.03302096219049668,1.2069939876924152,-0.4569703053212945
1.8243266841863246,9.902429274582097,-0.03224973582248815,1.1876657677480031,-0.44201774041305225
1.8176332851205874,9.655015316188965,-0.031496921946437474,1.1686576455199342,-0.42766937340083927
1.811096086898331,9.411560540448416,-0.030762108741719224,1.149959266294822,-0.41389415024355963
1.8047113530800578,9.172000944618045,-0.030044880003738558,1.131560693994419,-0.40066291216161437
1.798475434865209,8.936274570829703,-0.02934481728053651,1.11345238970409,-0.38794826133114124
1.7923847713714935,8.704321424802675,-0.02866150170723008,1.0956251915056956,-0.37572443737379024
1.786435889556779,8.47608339866468,-0.027994515575765,1.0780702955228236,-0.3639672036733024
1.7806254038356752,8.251504197634947,-0.0273434436728433,1.0607792380936767,-0.35265374264597027
1.7749500154364666,8.030529270340779,-0.02670787441485697,1.043743878993641,-0.3417625591775369
1.7694065115383673,7.813105742554701,-0.026087400805135753,1.0269563856356807,-0.3312733915154304
1.7639917642240759,7.599182354153815,-0.025481621235735007,1.0104092181822801,-0.3211671289735039
1.758702729278228,7.388709399116362,-0.02489014015329112,0.9940951155077586,-0.3114257358675668
1.7535413202644543,7.181775617149494,-0.02426613616836303,0.9767028079862325,-0.3281202627910809
1.7485073306819592,6.978482118536618,-0.023676621760162296,0.9594257502316338,-0.3467503590171847
1.7435935523320865,6.778805038651559,-0.023121267286246968,0.9422607248641632,-0.3672041491125078
1.738792855301436,6.582721175321932,-0.022599656815185342,0.9252046401799033,-0.38937282500524145
1.734098205243913,6.390207962990701,-0.02211129611360384,0.9082545248794403,-0.413150403869884
1.729502679054086,6.201243447941344,-0.02165561997998806,0.8914075232096773,-0.4384334937757599
1.7249994790640826,6.01580626450172,-0.02123199897242542,0.8746608905010401,-0.4651210661601906
1.7205819458867582,5.833875612145217,-0.020839745573520127,0.8580119890847137,-0.49311423421337636
1.7162435700191774,5.655431233410745,-0.02047811983201148,0.8414582845769321,-0.522316036281943
1.7119780023125148,5.4804533925656,-0.020146334517156278,0.8249973425196927,-0.5526312234117701
1.7077790634072532,5.308922854937222,-0.019843559818668186,0.8086268253696092,-0.5839660501581494
1.7036407522259918,5.14082086684137,-0.01956892762191565,0.7923444898289843,-0.6162280677924451
1.699557253610251,4.9761291360351905,-0.019321535385140462,0.7761481845155938,-0.6493259190291031
1.6955229451823333,4.814829812624186,-0.019100449642647517,0.7600358479701621,-0.6831691333848825
1.6915324035085584,4.656905470351994,-0.018904709155208987,0.7440055070031114,-0.7176679222632687
1.6875804096359999,4.5023390882012535,-0.01873332772629955,0.7280552753849074,-0.7527329728308284
1.6836619540712165,4.351114032232676,-0.01858529670021017,0.7121833528872553,-0.7882752397183475
1.6797722412663614,4.203214037587532,-0.018459587155551738,0.6963880246855548,-0.8242057335374305
1.6759066936754896,4.0586231905762205,-0.018355151805132443,0.680667661136458,-0.8604353051522451
1.6720609554418326,3.9173259107723375,-0.018270926610647737,0.665020717948141,-0.8968744245855671
1.6682308957753214,3.779306933027449,-0.018205832118032207,0.6494457367650646,-0.9334329533674461
1.6644126120786786,3.6445512893167837,-0.018158774516659492,0.6339413461936373,-0.9700199090527925
1.6606024328800344,3.513044290319911,-0.018128646422807974,0.6185062633003824,-1.0065432205400322
1.6567969206302249,3.384771506633264,-0.01811432738490282,0.6031392956200521,-1.0429094727156485
1.6529928744237892,3.2597187495027953,-0.018114684104961237,0.5878393437177356,-1.079023638827833
1.6491873327041948,3.137872050955,-0.018128570367366884,0.5726054043564991,-1.1147887988554868
1.645377576016055,3.019217643192853,-0.018154826662535543,0.5574365743306233,-1.1501058419853385
1.6415611298701274,2.903741937109544,-0.018192279489156377,0.5423320550342352,-1.1848731511389528
1.6377357677907491,2.791431499757092,-0.018239740314444763,0.527291157846257,-1.2189862673020928
1.6338995146201807,2.6822730305885756,-0.018296004167159142,0.5123133104253353,-1.2523375312008023
1.63005065016017,2.576253336271499,-0.018359847832943116,0.4973980640230122,-1.2848156996418152
1.6261877132380547,2.4733593038453705,-0.018430027615772032,0.48254510194013067,-1.3163055335905685
1.622309506293003,2.3735778719682408,-0.018505276622815772,0.4677542492706359,-1.3466873548006464
1.618415100587717,2.276895999964445,-0.018584301522766376,0.45302548409885096,-1.3758365675385331
1.61450384216228,2.183300634348228,-0.018665778719492605,0.4383589503413225,-1.4036231416748028
1.610575358660003,2.0927786724548483,-0.018748349873622033,0.4237549724527571,-1.4299110531496082
1.6066295671703885,2.005316922761299,-0.018830616694132985,0.40921407224769757,-1.454557677585375
1.6026666832519503,1.920902061422101,-0.018911134910040633,0.3947369881256039,-1.4774131326413942
1.5986872313179532,1.839520584481086,-0.01898840731850408,0.38032469702691324,-1.4983195646256242
1.594692056591581,1.7611587551466918,-0.01906087578980286,0.3659784394911345,-1.5171103749604111
1.5906823388640807,1.6858025454355285,-0.019126912091151256,0.3516997482342438,-1.5336093824314039
1.5866596083207045,1.6134375713963998,-0.019184807369575892,0.33749048070985227,-1.5476299178641857
1.5826257637355443,1.544049021024673,-0.01923276010813924,0.323352856163734,-1.5589738491618494
1.5785830933786702,1.4776215738659282,-0.019268862338280648,0.3092894977290703,-1.5674305367754608
1.5745342990286995,1.4141393111905565,-0.019291083851918134,0.2953034801315979,-1.572775723068879
1.5704825235430055,1.3535856155023076,-0.019297254107070113,0.2813983835660166,-1.5747703642609554
1.5664313825089646,1.295943058032055,-0.019285041455223043,0.26757835424590937,-1.573159421525273
1.5623850005870437,1.2411932727777604,-0.019251929229740925,0.2538481719854733,-1.5676706396259081
1.5583480532663843,1.1893168156057534,-0.019195188109871416,0.24021332489077962,-1.5580133589489056
1.5543258148954506,1.140293006964317,-0.01911184399425822,0.22668009074193288,-1.543877432543358
1.550324214039457,1.0940997569358082,-0.01899864034853732,0.21325562381530475,-1.5249323575727987
1.5463498974769887,1.0507133717578192,-0.018851993579733328,0.19994804454649387,-1.500826785834082
1.5424103045196922,1.0101083417137424,-0.018667939346900173,0.1867665273018679,-1.4711886585308644
1.5385137538852394,0.9722571116340717,-0.01844206669550787,0.17372137821881065,-1.4356263273416148
1.534669546180117,0.9371298374670474,-0.01816943525803875,0.16082409003856246,-1.3937311922685618
1.5308880863286138,0.9046941359119529,-0.017844468089609884,0.1480873533433044,-1.3450826269975327
1.527181032304047,0.8749148395775137,-0.017460808334837333,0.13552499269898213,-1.2892562990904937
1.5235614797500223,0.8477537783416693,-0.01701112075111149,0.12315178097571065,-1.225837449716161
1.5200441972978769,0.823169619491086,-0.016486807364559892,0.11098306522032826,-1.154441285870626
1.516645935849185,0.8011178156087126,-0.01587758738488628,0.09903411461181447,-1.0747433160546036
1.513385848812896,0.7815507299140165,-0.015170860579770615,0.08731908248054078,-0.9865230518213429
1.5102860824408313,0.7644180308498569,-0.014350723916083732,0.07584948003528086,-0.8897245192577743
1.507372631006402,0.7496674612814651,-0.013396432602292122,0.06463213490178438,-0.7845353880848476
1.5046766090751658,0.7372460686163684,-0.012279966742815113,0.05366684286105775,-0.6714811766747398
1.5022361901083976,0.7271018811003067,-0.010962118654975476,0.04294446681571082,-0.5515189611726394
1.5000996477293491,0.7191857449927532,-0.009385904002629146,0.03244730563717698,-0.4260943262172765
1.4983304028937787,0.7134524456966709,-0.007464046812326678,0.022155544801714548,-0.29710060058363497
1.4970165990956081,0.7098588883195021,-0.005048370313106548,0.012068811171333692,-0.16666843136313428
1.4962963203109,0.7083518755908145,-0.0018114276364962858,0.0022836910066484657,-0.03675246347294814
