x,y,v_x,v_y,omega
2.375,32.48,0.0,2.0,-4.081632653061225
2.374375089856468,32.063907813013444,-0.00595152517649306,1.9627827332052945,-3.893137642977961
2.3725699152875785,31.65552013675916,-0.011240613574835443,1.92662370731164,-3.7170923640279883
2.3697164297583315,31.25462024139493,-0.015935439084663824,1.8914705342524718,-3.5523953976577074
2.3659330730612402,30.861002010524103,-0.020096529459060625,1.857274521660182,-3.398063032746573
2.3613262763810328,30.47446920283052,-0.02377772463815259,1.8239903135168032,-3.253214707740577
2.3559917802587718,30.094834784394962,-0.02702700033576448,1.7915755763456633,-3.1170604977769885
2.350015791516437,29.72192032287145,-0.029887178162661652,1.7599907238782189,-2.988890324006817
2.343476001131293,29.355555436052235,-0.032396539791086754,1.7291986744000256,-2.8680646191453194
2.336442481690763,28.99557728846073,-0.03458935964253483,1.6991646359952968,-2.754006229026636
2.3289784802735602,28.641830130529982,-0.036496368140348366,1.669855915726104,-2.6461933669796225
2.32114112028225,28.29416487568728,-0.03814515558641759,1.6412417494424794,-2.5441534679976083
2.312982023809985,27.952438711302918,-0.039560525101818685,1.613293149456185,-2.447457814350208
2.304547864491477,27.61651473999637,-0.04076480174111332,1.5859827677490832,-2.35571682457313
2.2958808594104885,27.286261648244313,-0.04177810379211228,1.5592847727466637,-2.2685759145274242
2.287019207469263,26.961553399617614,-0.042618581362415545,1.5331747379838203,-2.1857118531165387
2.277997480633662,26.64226895029957,-0.043302626595692784,1.5076295412356224,-2.1068295468216425
2.268846973622335,26.328291984816353,-0.043845059226466226,1.482627272890251,-2.031659196888274
2.2596107170216424,26.019514782589926,-0.044119289351559864,1.4581079864090742,-1.9564532109274182
2.250326872303483,25.71583371060258,-0.04429827939281146,1.434092699184688,-1.8848206052448493
2.24101444512911,25.41714490037909,-0.04439150322026992,1.4105626362771266,-1.816547973896959
2.2316905451215465,25.12334833027741,-0.044407544470806616,1.3874999361198537,-1.7514370910839203
2.222370563638101,24.83434763965399,-0.0443541839429617,1.364887593626961,-1.689303657714304
2.2130683341568838,24.550049954521334,-0.04423847778291685,1.3427094076364303,-1.6299761656687632
2.2037962771010298,24.27036572382871,-0.04406682751093105,1.3209499322933258,-1.5732948673705105
2.194565530717546,23.995208565575886,-0.04384504280796529,1.299594432019292,-1.519110839717944
2.1853860694463614,23.724495122039905,-0.04357839786998123,1.2786288397519716,-1.4672851326962828
2.176266811055813,23.458144923458025,-0.043271682040000536,1.2580397181706924,-1.4176879940865936
2.1672157136805636,23.196080259566475,-0.04292924534332851,1.2378142236535992,-1.3701981626543442
2.158239863774368,22.938226058445476,-0.04255503947757976,1.217940072736864,-1.3247022230443948
2.149345555881021,22.684509772166848,-0.04215265474477404,1.198405510869133,-1.2810940163512095
2.140538365030387,22.43486126878178,-0.041725353356503035,1.1791992832743514,-1.2392741009856947
2.1318232124810943,22.189212730223815,-0.04127609949390479,1.160310607753871,-1.1991492590351733
2.1232044254558313,21.947498555735834,-0.04080758646098076,1.1417291492745565,-1.1606320438206288
2.114685791448084,21.709655270460612,-0.0403222612318492,1.1234449962037327,-1.123640364804123
2.1062706076195283,21.475621438862454,-0.03982234665915775,1.1054486380644335,-1.0880971063966502
2.0979617257542604,21.24533758267264,-0.03930986158148673,1.0877309446957246,-1.0539297775690475
2.089761593188831,21.01874610307472,-0.0387866390416524,1.07028314671302,-1.0210701894814924
2.0816722900949403,20.795791206866745,-0.03825434280492807,1.053096817172437,-0.9894541586253859
2.073695563454097,20.576418836356737,-0.037714482345959165,1.0361638543514478,-0.9590212332192178
2.0658328580299723,20.36057660276546,-0.03716842645522895,1.019476465565498,-0.9297144408209774
2.058085344614168,20.148213722926652,-0.03661741560004844,1.003027151946956,-0.9014800553169532
2.0504539457942634,19.939280959089746,-0.03606257316094969,0.9868086941188081,-0.8742673816231363
2.0429434735406438,19.733888786951557,-0.03546573401637899,0.9693072310068003,-0.877888104610536
2.035556158872308,19.53215910027165,-0.03488964377729578,0.9519278802304001,-0.883748589267409
2.0282875958872153,19.334066622917955,-0.03433476560453961,0.9346671421857442,-0.8917233632660158
2.021133295634387,19.139586798572726,-0.033801427279535584,0.9175216611021576,-0.9016905143851414
2.014088713408393,18.948695761170583,-0.03328983201564751,0.9004882189182484,-0.9135314181897985
2.0071492738601093,18.76137030657197,-0.032800068444195474,0.8835637296399828,-0.9271304750194123
2.0003103940909654,18.57758786537304,-0.03233211983336787,0.8667452341593543,-0.9423748552289233
1.993567504886142,18.39732647675722,-0.03188587259352081,0.8500298955151007,-0.9591542516622199
1.9869160702314375,18.22056476329727,-0.03146112411795134,0.8334149945796753,-0.9773606383653811
1.9803516052486203,18.047281906619666,-0.031057590004117928,0.8168979261593892,-0.9968880345685465
1.9738696926750627,17.877457623845714,-0.030674910696429643,0.8004761954973152,-1.0176322729799099
1.9674659980051867,17.711072144725513,-0.03031265758810315,0.7841474151712344,-1.0394907714433987
1.9611362834037385,17.548106189382466,-0.029970338616164743,0.7679093023816231,-1.062362307013
1.9548764204940965,17.38854094658651,-0.029647403380426336,0.7517596766274657,-1.0861467914913512
1.9486824021186646,17.232358052474716,-0.029343247814162487,0.7356964577705642,-1.1107450474679543
1.9425503531628978,17.07953956963714,-0.029057218431235272,0.7197176644920421,-1.136058583872981
1.9364765405296076,16.930067966484945,-0.028788616171529616,0.7038214131479351,-1.1619893700358488
1.9304573823459035,16.783926096815822,-0.028536699863749137,0.6880059170341907,-1.188439607203213
1.9244894564814148,16.64109717948935,-0.028300689321856302,0.6722694860750821,-1.2153114964283633
1.9185695084533068,16.50156477812139,-0.028079768088695695,0.6566105269530655,-1.242507001692793
1.912694458791047,16.36531278070256,-0.027873085837588865,0.6410275437025075,-1.2699276070604615
1.90686140993191,16.23232537904037,-0.02767976043990677,0.625519138794567,-1.2974740665954876
1.9010676527168227,16.102587047918618,-0.02749887970378192,0.6100840147459095,-1.325046145694213
1.8953106725553759,15.976082523859855,-0.027329502786186805,0.594720976289935,-1.3525423523922773
1.889588155328684,15.852796783368039,-0.027170661277544663,0.5794289331559355,-1.379859657106166
1.883897993099286,15.732715020518206,-0.027021359954817338,0.5642069035091483,-1.4068931991563935
1.8782382896984928,15.61582262374786,-0.026880577195593804,0.5490540181131868,-1.4335359782960113
1.8726073662635416,15.502105151690955,-0.02674726504203784,0.533969525285923,-1.4596785293338996
1.86700376679967,15.391548307879205,-0.026620348899596236,0.5189527967307351,-1.4852085777981514
1.8614262638458505,15.284137914117064,-0.026498726851064715,0.5040033343372677,-1.5100106744325523
1.8558738643274897,15.179859882315387,-0.026381268561895137,0.48912077805965876,-1.5339658061615629
1.8503458156850103,15.07870018454457,-0.026266813747432442,0.47430491499573535,-1.556950981000889
1.844841612373994,14.980644821040162,-0.026154170167009126,0.4595556898081368,-1.5788387842386276
1.8393610028406011,14.885679785862287,-0.026042111103398328,0.4448732166478304,-1.5994969030763992
1.8339039970854585,14.793791029874242,-0.02592937227891273,0.4302577927621334,-1.618787616815857
1.8284708749402878,14.704964420664936,-0.0258146481512843,0.4157099139931503,-1.636567249625172
1.8230621951944692,14.619185698993832,-0.025696587523178382,0.4012302923983253,-1.6526855829535354
1.8176788057237392,14.536440431285527,-0.025573788388534663,0.38681987625220593,-1.6669852248234758
1.812321854790655,14.456713957643785,-0.025444791926552857,0.3724798727167499,-1.67930093358332
1.8069928037067098,14.37999133479153,-0.02530807553959216,0.35821177349521577,-1.6894588943337245
1.801693441069595,14.306257273274522,-0.025162044813882706,0.34401738380961905,-1.6972759472775012
1.7964258988167514,14.235496068193179,-0.02500502426082016,0.32989885506031874,-1.7025587688568586
1.7911926703689773,14.167691522650887,-0.024835246670360002,0.31585872153292244,-1.7051030089849464
1.7859966311767568,14.102826863032032,-0.024650840874597894,0.30189994150378696,-1.704692391299859
1.7808410620289528,14.040884645154101,-0.02444981767591702,0.28802594304793155,-1.701097788664576
1.7757296755412693,13.98184665028504,-0.024230053635354375,0.27424067475264285,-1.6940762938065497
1.7706666463143037,13.925693769993494,-0.02398927233574508,0.2605486613573171,-1.6833703160273092
1.7656566453440237,13.87240587882761,-0.023725022619303964,0.24695506403204417,-1.6687067507176323
1.7607048793900693,13.821961693930621,-0.023434653132643195,0.23346574451071006,-1.6497962909670274
1.7558171361732664,13.77433862094776,-0.02311528226547841,0.22008733151655258,-1.6263329826418955
1.7509998365046469,13.72951258603231,-0.022763762197565807,0.2068272867258299,-1.597994169815234
1.7462600947778584,13.687457854525586,-0.02237663520041929,0.19369396571916267,-1.5644410417350674
1.7416057897382449,13.648146838120805,-0.02195007946256591,0.1806966667073319,-1.525320082894611
1.7370456481590912,13.611549894243112,-0.02147984033889787,0.1678456559373551,-1.4802658537400633
1.7325893451416579,13.577635124289468,-0.020961140779513856,0.1551521531449708,-1.4289057028551246
1.728247626421267,13.546368181671934,-0.020388561319448054,0.1426282527363279,-1.370867244852068
1.7240324606389308,13.51771210678541,-0.01975587470279998,0.1302867461829382,-1.3057897414715178
1.7199572335466506,13.49162721458812,-0.019055811890345498,0.11814079855314406,-1.2333408931332248
1.7160370023588014,13.468071071765795,-0.01827972323202865,0.10620341880232186,-1.1532409445663188
1.7122888381677466,13.44699861407316,-0.017417078587541233,0.09448665446087631,-1.065296307096917
1.7087322993508778,13.428362468217912,-0.01645471966835102,0.08300044892244032,-0.9694448043257967
1.7053901019879132,13.41211355040748,-0.015375731407504171,0.07175114927215522,-0.8658135458650631
1.702289088969175,13.398202001592779,-0.014157725913808658,0.06073979182022735,-0.7547872477515271
1.699461656524954,13.386578460812135,-0.012770202126392963,0.049960596566843984,-0.6370780527357136
1.696947898542299,13.377195527548025,-0.01117035008936846,0.039400672615164965,-0.5137764678057194
1.69479895237789,13.370008949320084,-0.009295803857386263,0.02904292955569825,-0.38634863136822195
1.6930826741370966,13.364977436442548,-0.00704970319778846,0.01887624070656512,-0.25653548643411855
1.6918952814381423,13.36205832903564,-0.004258798697013189,0.008924782216360283,-0.12611760604282904
