x,y,v_x,v_y,omega
2.375,32.48,0.0,3.8974358974358974,-2.612244897959184
2.374122921890925,31.673544348639506,-0.00835312484833213,3.7830941155211555,-2.3949874341346473
2.371658890076637,30.8904603704997,-0.015113844811557673,3.6748485334293988,-2.2051911348635462
2.367911504236237,30.129520031376458,-0.02057554414462806,3.5722023153633713,-2.038433512635399
2.3631288679246194,29.389593994144743,-0.02497337310887477,3.4747123249386815,-1.8911240028624592
2.3575144960847445,28.66964110797993,-0.02849683488993476,3.381981829011906,-1.7603279195474282
2.3512358891121115,27.96869930266713,-0.03129942199228442,3.293654412062381,-1.6436314540042638
2.3444313148177964,27.285877659068465,-0.03350604747738328,3.2094088603058513,-1.539037315307395
2.3372152042907497,26.62034947146411,-0.03521881468496447,3.1289548311641924,-1.444883449339934
2.3296824685657347,25.971346151877253,-0.03652152555327327,3.0520291649011253,-1.3597792835075324
2.321911969810098,25.338151853353192,-0.03748322450041195,2.9783927258042,-1.282555383234067
2.3139693262378707,24.720098710393202,-0.03816099999698866,2.9078276833385606,-1.2122234467538662
2.305909189061706,24.116562611704644,-0.038602211204578615,2.8401351613144104,-1.1479443238286098
2.297777098885258,23.526959434108257,-0.038846266666353824,2.7751331967464266,-1.0890023026589148
2.2896110054230707,22.95074167757025,-0.038926052021145775,2.712654960758395,-1.0347843236894834
2.281442516429819,22.387395450446167,-0.038869081247916555,2.6525472023281034,-0.9847630887861913
2.2732979278514676,21.836437761549256,-0.03869842902210176,2.5946688824043926,-0.9384832674805794
2.265199076466275,21.297414081905153,-0.03843348893211155,2.5388899713489743,-0.8955501787478009
2.257164047914284,20.76989614427327,-0.0380905925154211,2.485090387049888,-0.8556204616352278
2.2492077664609234,20.253479952895837,-0.037683516564204086,2.4331590546399475,-0.8183943515635642
2.2413424876840775,19.74778397963027,-0.03722390035813836,2.3829930716988224,-0.7836092590327318
2.2335782111974307,19.252447525750647,-0.036721589990879516,2.3344969652499397,-0.7510344095048638
2.225923027285395,18.767129231366695,-0.036184923457076495,2.287582028882954,-0.7204663516609342
2.2183834087425924,18.29150571668216,-0.035620967426760033,2.2421657300173625,-0.6917251792182736
2.2109644571425116,17.82527034126319,-0.035035714478770026,2.1981711787347487,-0.6646513414483474
2.2036701110966996,17.368132069162538,-0.03443424786229725,2.1555266507952755,-0.6391029412604292
2.196503322723147,16.91981442919096,-0.033820879504871046,2.1141651584578485,-0.6149534385968988
2.189466207454674,16.480054560877562,-0.03319926590916084,2.0740240635745097,-0.5920896919755269
2.1825601714335567,16.048602337746082,-0.032572505720523025,2.035044728153875,-0.5704102831252384
2.175786020016964,15.625219560478222,-0.031943222056551056,1.9971721982067017,-0.5498240794219843
2.169144050327012,15.209679213358822,-0.03131363213346835,1.9603549172161405,-0.53024899672782
2.1626341302941885,14.801764778117981,-0.030685606274374333,1.9245444660299706,-0.5116109316492264
2.1562557662433353,14.401269599916635,-0.030060718019467598,1.8896953263637963,-0.49384283745795093
2.1500081607413417,14.00799630077698,-0.029440286761421255,1.8557646654424464,-0.476883922193576
2.1438902621522926,13.621756236247556,-0.02882541408666491,1.8227121395997028,-0.46067895097679445
2.1379008071186867,13.242368991523964,-0.028217014804820244,1.7904997149107047,-0.44517763745287137
2.132038356998202,12.869661913627322,-0.027615843485511098,1.75909150315256,-0.4303341116729529
2.1263013291275357,12.503469676580238,-0.02702251718750155,1.7284536115815663,-0.41610645370022664
2.120688023652654,12.143633876819852,-0.026437534954230152,1.6985540051840113,-0.4024562838734139
2.115196646553871,11.790002656353991,-0.02586129455798987,1.6693623802051407,-0.3893484020320428
2.1098253294009104,11.442430351403956,-0.02529410689877714,1.640850047890431,-0.37675046915515054
2.1045721462944975,11.100777164489305,-0.024736208400394907,1.612989827487216,-0.36463272582698997
2.0994351283846413,10.764908858099364,-0.024187771693470427,1.585755947655066,-0.35296774275207843
2.0944122762995936,10.434696468265784,-0.023648914830793934,1.5591239555218863,-0.3417301992237036
2.089501570771814,10.11001603650238,-0.02311970924329473,1.533070632701015,-0.3308966860262075
2.0847009817068174,9.79074835871511,-0.02260018661381901,1.5075739176539518,-0.3204455297395639
2.080008475906303,9.476778749807732,-0.02209034481965267,1.4826128338448838,-0.31035663582940237
2.0754281937565673,9.16799713911794,-0.02153138993973395,1.4581644108197935,-0.29893620619187306
2.0709637184619076,8.864297525261673,-0.020987422390360153,1.4342128640018146,-0.2880520707136841
2.0666119369188825,8.565577466604104,-0.020458116114637694,1.410740075594063,-0.27767258917487425
2.062369805749724,8.271738237237642,-0.01994313311544419,1.3877287755151062,-0.2677683422437408
2.058234353445714,7.982684654172086,-0.019442126922747084,1.3651624917759118,-0.25831195093389364
2.0542026818374897,7.698324914583811,-0.018954745536533615,1.343025504302916,-0.24927791268824415
2.050271966994761,7.418570442429317,-0.018480633918022165,1.3213028019303599,-0.2406424523830557
2.04643945964374,7.143335743784057,-0.018019436091702912,1.2999800423102221,-0.23238338673802375
2.0427024851783417,6.872538270317861,-0.017570796912091333,1.2790435145107069,-0.2244800007874611
2.0390584433306986,6.606098290364304,-0.017134363541651973,1.2584801040946083,-0.2169129352161953
2.0355048075574276,6.343938767083213,-0.01670978667997765,1.238277260487213,-0.20966408349444227
2.032039124190252,6.085985243253759,-0.016296721578834845,1.2184229664599453,-0.2027164978610289
2.028659011392812,5.832165732270521,-0.015894828872977895,1.1989057095709057,-0.1960543033058971
2.025362157959628,5.582410614946795,-0.015503775252581205,1.1797144554169527,-0.18966261879255314
2.0221463219881444,5.336652541758774,-0.015123233999645432,1.160838622564211,-0.18352748504052382
2.019009329450371,5.09482634019086,-0.014752885407720214,1.1422680590349676,-0.17763579825822476
2.0159490726868836,4.856868926867097,-0.014392417101684313,1.1239930202389616,-0.17197524927905683
2.0129635088426387,4.622719224176155,-0.014041524272075692,1.1060041482462113,-0.16653426760898943
2.0100506582612363,4.392318081118088,-0.013699909836519638,1.0882924523068065,-0.1613019699432071
2.007208602851794,4.165608198120154,-0.013367284539120172,1.0708492905306561,-0.15626811275331703
2.004435484440478,3.9425340555864956,-0.01304336699722236,1.053666352647049,-0.15142304858578223
2.0017295031168825,3.723041845962687,-0.012727883703689958,1.0367356437701625,-0.1467576857472127
1.9990889155838614,3.5070794091110713,-0.012420568991747325,1.0200494691023727,-0.14226345108340227
1.996512033518037,3.294596170806514,-0.012121164968483995,1.0036004195124524,-0.13793225558696712
1.9939972219470052,3.0855430841750007,-0.011829421422295214,0.9873813579305168,-0.13375646259350152
1.9915452841287644,2.8800091251885362,-0.011522367322855368,0.9700849181310615,-0.15550538752252635
1.9891549731385212,2.6780957080086765,-0.01124249925088966,0.9529000073914181,-0.17902435384245902
1.986820589993563,2.47977973306277,-0.01098972117728375,0.9358235635219906,-0.2042088912487093
1.9845364654734465,2.2850387316391263,-0.010763845680967703,0.9188526405126999,-0.2309572151228272
1.9822969784686317,2.093850841982121,-0.010564601983935582,0.9019844038397138,-0.25917000665889156
1.980096572709381,1.9061947863340016,-0.010391643342260334,0.8852161261423684,-0.28875019914174904
1.9779297720053695,1.7220498488471918,-0.01024455383880393,0.8685451832558352,-0.3196027695456316
1.9757911941172517,1.5413958542936683,-0.010122854619460012,0.8519690505872537,-0.35163453463691874
1.9736755633730378,1.3642131475003616,-0.010026009611147269,0.8354852998251922,-0.3847539507744544
1.9715777221344486,1.1904825734414004,-0.009953430756368124,0.8190915959744319,-0.41887091660483206
1.9694926412114573,1.02018545791951,-0.009904482795931905,0.8027856947102296,-0.45389657784829757
1.9674154293169035,0.8533035887698546,-0.00987848762838897,0.7865654400484103,-0.4897431333632185
1.965341341647383,0.68981919752013,-0.009874728271806944,0.770428762329917,-0.5263236416631755
1.9632657876715178,0.5297149414408047,-0.009892452450718096,0.7543736765208157,-0.5635518270403379
1.9611843382022154,0.37297388591883873,-0.009930875828353383,0.7383982808312626,-0.6013418844214938
1.959092731825567,0.21957948708729447,-0.009989184901629627,0.7225007556596154,-0.6396082820484487
1.9569868807556525,0.06951557464160629,-0.010066539573746616,0.7066793628707575,-0.6782655610319225
1.9548628761816604,-0.07723366522900932,-0.010162075416655257,0.6909324454208491,-0.7172281307769216
1.9527169931714414,-0.22068370686933747,-0.010274905633049355,0.6752584273441675,-0.756410059217073
1.9505456951938585,-0.3608497022232342,-0.010404122724884059,0.6596558141215221,-0.7957248567247486
1.9483456383211117,-0.4977464980186639,-0.010548799872703357,0.644123193453983,-0.8350852524819881
1.9461136751716182,-0.6313886531607267,-0.010707992027234693,0.6286592364704403,-0.8744029620031859
1.9438468586540254,-0.7617904564274269,-0.010880736711745486,0.6132626994028894,-0.9135884443930241
1.941542445573588,-0.888965944570522,-0.0110660545305152,0.5979324257694355,-0.9525506478009106
1.9391979001634654,-1.0129289209330707,-0.011262949375414767,0.5826673491119484,-0.9911967413947965
1.9368108976055565,-1.133692974705859,-0.011470408318954775,0.5674664963432077,-1.0294318320212077
1.934379327608354,-1.251271500957479,-0.01168740117821168,0.5523289917674481,-1.0671586635430963
1.9319012981130226,-1.3656777215871685,-0.011912879729707181,0.5372540618486087,-1.104277296651193
1.9293751392035974,-1.4769247073665923,-0.012145776550532452,0.5222410408125511,-1.1406847667265267
1.926799407302943,-1.5850254012561535,-0.012385003455699173,0.5072893771832845,-1.1762747170905712
1.9241728897430381,-1.6899926432041568,-0.012629449495776508,0.4923986413691085,-1.2109370047144656
1.9214946098063967,-1.7918391966633678,-0.012877978472237473,0.47756853443288994,-1.2445572751701852
1.918763832345162,-1.8905777770900087,-0.013129425920475885,0.4627988982017966,-1.2770165032959622
1.9159800700957983,-1.9862210827252866,-0.013382595502034224,0.4480897268961142,-1.3081904957193198
1.9131430908205893,-2.078781828000274,-0.013636254738050758,0.43344118048471253,-1.3379493510404872
1.9102529254225573,-2.1682727799518773,-0.013889130005111246,0.4188536000067432,-1.3661568731380394
1.9073098771982724,-2.2547067980918314,-0.01413990070236325,0.4043275251356679,-1.3926699327354763
1.9043145324136348,-2.3380968782329035,-0.014387192484661186,0.3898637143030843,-1.4173377720901827
1.90126777241151,-2.418456200848084,-0.014629569440338839,0.3754631677462324,-1.4400012474774093
1.8981707874875517,-2.495798184620348,-0.014865525073548493,0.3611271538944061,-1.4604920041054077
1.8950250928022387,-2.5701365459336003,-0.01509347192943309,0.3468572395651337,-1.478631578308329
1.8918325466337738,-2.641485365160378,-0.015311729674994461,0.3326553244993857,-1.4942304224607093
1.888595371318969,-2.7098591607192546,-0.015518511418385127,0.31852368082325255,-1.5070868492467655
1.88531617727867,-2.775272972003698,-0.015711908013033057,0.3044649980762191,-1.5169858940008576
1.8819979905822257,-2.8377424524225603,-0.015889870048341942,0.29048243448440125,-1.5236980972546648
1.878644284574051,-2.8972839739358776,-0.016050187172370396,0.2765796751662444,-1.5269782150308773
1.875259016167492,-2.9539147446093708,-0.01619046431866598,0.26276099791461777,-1.52656387276566
1.8718466675113796,-3.007652940832294,-0.01630809431097505,0.24903134706561111,-1.5221741914240832
1.8684122938595822,-3.0585178559207904,-0.016400226182336306,0.23539641568199754,-1.51350843345627
1.864961578634015,-3.1065300668218967,-0.016463728346872302,0.22186273575710042,-1.5002447447629446
1.8615008968836038,-3.151711620476803,-0.016495145466569574,0.2084377752420385,-1.482039111262551
1.8580373886326247,-3.194086240993329,-0.016490647399897945,0.19513003920107883,-1.4585247115262148
1.8545790440260626,-3.233679557957501,-0.01644596790069425,0.181949169981491,-1.4293119398114227
1.8511348027906573,-3.2705193547392852,-0.016356329579355476,0.16890603746410454,-1.3939895104074789
1.8477146714613235,-3.30463583315003,-0.016216349747633058,0.1560128045430103,-1.3521272538165745
1.8443298632805392,-3.3360618867479275,-0.016019918640790134,0.14328294400837238,-1.3032815040004966
1.8409929680120447,-3.364833368693951,-0.0157600362972509,0.1307311697632488,-1.2470043861781295
1.8377181627075816,-3.3909893303058567,-0.015428585650016936,0.11837322654061352,-1.182858879940662
1.8345214807123758,-3.4145721921257604,-0.015016004780515537,0.10622545745848715,-1.1104422686257973
1.831421166530471,-3.43562778936721,-0.014510796951911485,0.09430404007911429,-1.0294214409485714
1.8284381612827256,-3.4542052082696273,-0.013898776836137113,0.08262375899149786,-0.9395842462443792
1.8255967917304536,-3.4703563033581233,-0.01316188556645389,0.07119619423227637,-0.840911046843757
1.8229257823029124,-3.4841347718512807,-0.012276299457748201,0.06002731522633484,-0.7336682160281202
1.8204597868233887,-3.495594694924762,-0.011209371775810826,0.049114809283002395,-0.6185176770199541
1.8182417728517253,-3.504788607114449,-0.009914570811459054,0.03844625919017651,-0.49661962138030236
1.8163268751381971,-3.511765551771134,-0.008322550269762564,0.028000832778240815,-0.36967747029797304
1.814789127439055,-3.5165704650782814,-0.0063226659125425735,0.017760246337459817,-0.23984421186132507
1.81373569167943,-3.5192485537921314,-0.003710055607696465,0.0077453604611163775,-0.10940509472030113
