x,y,v_x,v_y,omega
2.375,32.48,0.0,3.846153846153846,-5.673469387755102
2.373151068757067,31.68408201483996,-0.017608868980313157,3.7340174410846165,-5.207039651401895
2.3679495084216238,30.911081782990617,-0.03192980088105364,3.6278895289090918,-4.798856084867041
2.360023429859216,30.159790687238164,-0.04355666161806399,3.527263763971441,-4.439632491350311
2.3498884098937043,29.429100214825837,-0.05296733805347709,3.431693116145952,-4.12181879433495
2.337969240214996,28.717990474116604,-0.060548563648505326,3.3407806048943507,-3.839233662113528
2.3246170741724987,28.025520462083293,-0.06661492247051877,3.254171890661011,-3.586783511646596
2.3101230373199177,27.350819740368763,-0.07142352374453999,3.171549268524964,-3.3602455748202664
2.294729098023356,26.69308125962017,-0.07518542193700051,3.0926267386045154,-3.1560989980246434
2.278636799171859,26.05155513087224,-0.07807456712487344,3.0171459161376557,-2.971392313111218
2.2620143087770623,25.425543186089058,-0.08023486520652627,2.9448726056069496,-2.8036386969114635
2.245002140990855,24.814394202295272,-0.08178578037639922,2.8755939067148186,-2.650732636778621
2.2277178194769665,24.217499688211195,-0.08282680547015653,2.809115751228771,-2.510883210895146
2.2102596949269455,23.634290151119934,-0.08344104738718675,2.7452607924974957,-2.3825603554809645
2.192710082699044,23.064231776344883,-0.08369811668806725,2.6838665863125373,-2.264451350027074
2.1751378514103963,22.506823463263423,-0.08365646701333715,2.6247840144632884,-2.155425391659753
2.157600566166081,21.961594170987276,-0.08336529721823678,2.567875911976182,-2.0545046105274962
2.140146269011925,21.42810053425181,-0.0828661042499196,2.5130158664568305,-1.9608402420828905
2.1228149627084036,20.905924716081053,-0.08219395578361285,2.46008716374087,-1.8736929496621737
2.105639850964958,20.394672468733596,-0.0813785370111082,2.4089818586158516,-1.7924165038000988
2.088648378039431,19.893971378513974,-0.0804450146605776,2.3595999529996114,-1.7164441892763562
2.0718631024850156,19.40346927342792,-0.079414752524334,2.3118486668675766,-1.6452774387586058
2.0553024333517547,18.922832775501604,-0.0783059058876746,2.26564178957351,-1.5784762918251483
2.0389812519650614,18.451745981978167,-0.07713391684273506,2.2208991011259123,-1.515651356643716
2.0229114382354814,17.98990926163146,-0.07591192820088334,2.177545854556996,-1.456457013558628
2.0071023170896374,17.537038154161596,-0.07465113033096434,2.1355123118226773,-1.4005856490093986
1.9915610378866844,17.09286236211102,-0.0733610525543032,2.094733326754245,-1.3477627473959244
1.976292897468462,16.65712482600566,-0.07204980857162599,2.055147969487264,-1.297742699882148
1.961301615683415,16.22958087451635,-0.07072430366691511,2.01669918755378,-1.2503052143567708
1.9465895707442389,15.80999744237926,-0.06939041003952487,1.9793334994661274,-1.2052522311344782
1.93215800056372,15.398152349632952,-0.0680531154892267,1.9430007171653676,-1.1624052654858106
1.9180071752120305,14.993833636442599,-0.06671664976495816,1.90765369417134,-1.1216031115105993
1.9041365448115584,14.596838948404471,-0.06538459214429969,1.8732480966679632,-1.0826998528326561
1.890544866500039,14.206974967769067,-0.06405996320350225,1.8397421950977813,-1.045563134575876
1.877230313523403,13.82405688649986,-0.06274530324065215,1.8070966741327625,-1.0100726584668893
1.8641905690454865,13.447907917506072,-0.06144273940617033,1.7752744591414298,-0.9761188690009825
1.8514229068656993,13.078358840759602,-0.060154043258469916,1.744240557491614,-0.9436018036487582
1.8389242609041587,12.715247581335035,-0.058880680184775415,1.7139619132185504,-0.912430084265083
1.8266912850355688,12.35841881670293,-0.05762385189703495,1.6844072737538938,-0.8825200303452835
1.814720404619087,12.007723610865384,-0.056384533021836394,1.6555470675560617,-0.8537948776820561
1.8030078608741487,11.663019073153045,-0.055163502644244,1.627353291609075,-0.8261840884118962
1.7915497490855574,11.32416803970792,-0.053961371532815446,1.5997994078682831,-0.7996227404845926
1.7803420514800896,10.991038775859693,-0.05277860566211747,1.5728602478291436,-0.7740509863107006
1.76938066549718,10.663504697767088,-0.05161554655606711,1.546511924481371,-0.749413571794792
1.7586614280745758,10.341444111842925,-0.05047242889730827,1.5207317509868374,-0.7256594081916603
1.7481801364832408,10.024739970613187,-0.049349395782072016,1.4954981654868766,-0.7027411902654591
1.7379467832094055,9.713281231966384,-0.04811111158778713,1.4707755359112458,-0.6767269611879585
1.727970069934705,9.406960947674907,-0.046905205314123774,1.446560504959952,-0.6519433336816485
1.7182432625764532,9.105674481903215,-0.04573105524065394,1.422834407151417,-0.628317178439341
1.7087597615108672,8.809321025847982,-0.044588002526831906,1.3995794600412608,-0.6057805378065699
1.6995131084420723,8.517803417796653,-0.043475360033119935,1.3767787118761703,-0.5842702021559257
1.690496991553987,8.231027973791154,-0.04239241985340643,1.3544159929380954,-0.5637273255770131
1.6817052491972464,7.948904328153571,-0.04133845973460056,1.3324758702769803,-0.5440970768143043
1.6731318723289357,7.671345283190867,-0.04031274853502391,1.3109436055582786,-0.5253283218483926
1.6647710058932537,7.398266667450702,-0.03931455085242379,1.2898051157766244,-0.5073733349219139
1.6566169493056175,7.129587201950152,-0.038343130934586855,1.269046936609573,-0.4901875351673935
1.648664156180615,6.865228373844559,-0.037397755970198676,1.24865618820558,-0.4737292463070928
1.6409072334250816,6.605114317045018,-0.03647769884440535,1.2286205432186106,-0.4579594771702342
1.6333409398010406,6.349171699330654,-0.035582240432175685,1.208928196918189,-0.4428417210156296
1.625960184048921,6.0973296155362995,-0.03471067149277113,1.18956783921851,-0.4283417718619224
1.6187600226490613,5.849519486427578,-0.03386229422018141,1.1705286284836105,-0.4144275562169785
1.6117356572887482,5.605674962904143,-0.03303642349708579,1.1518001669776943,-0.40106897876554787
1.6048824320927273,5.365731835198215,-0.03223238789358959,1.13337247784066,-0.38823778072286885
1.5981958306670152,5.129627946759673,-0.03144953044652548,1.1152359834788037,-0.37590740969373343
1.59167147299884,4.897303112541081,-0.030687209250379807,1.097381485269679,-0.36405289999370793
1.5853051122494355,4.668699041416495,-0.02994479788680538,1.0798001444882817,-0.3526507624934785
1.5790926314711278,4.443759262486463,-0.02922168571612639,1.0624834643691636,-0.3416788831401925
1.5730300402755633,4.222429055038987,-0.02851727805115499,1.04542327322586,-0.33111642939254665
1.5671134714759414,4.004655381951977,-0.027830996230958395,1.0286117085551836,-0.3209437638803916
1.5613391777226528,3.7903868263374285,-0.02716227760988543,1.0120412020595728,-0.3111423646658136
1.5557035281487255,3.5795735312409604,-0.02651057547513557,0.9957044655258214,-0.3016947515419046
1.550208467381103,3.3723026375711704,-0.02582333659746015,0.9783040456150204,-0.31843677657591374
1.5448538416734134,3.1686737140564922,-0.025173098713870044,0.9610190354771535,-0.33712234269261254
1.5396319269838314,2.968662863261123,-0.024559422139291062,0.943846210193033,-0.35763917237880405
1.5345351001322203,2.772246851738629,-0.02398178597129077,0.9267824709735916,-0.37987809290868724
1.529555855043059,2.579403084103177,-0.02343959583024607,0.9098248398402478,-0.40373279202282575
1.5246868174301778,2.3901095781741546,-0.022932190959099936,0.8929704547218869,-0.4290995815823885
1.5199207580529006,2.2043449411085803,-0.022458850729253257,0.876216564950246,-0.4558771682454879
1.5152506046638305,2.0220883464393182,-0.022018800595224187,0.8595605271379604,-0.48396643024025426
1.5106694527599416,1.8433195119401091,-0.021611217537049338,0.8429998014259293,-0.5132701993306985
1.5061705752408248,1.6680186782410367,-0.021235235025970325,0.8265319480890319,-0.543693047086505
1.5017474310707972,1.4961665881200723,-0.02088994754571896,0.8101546244915783,-0.5751410745766693
1.4973936730351376,1.327744466397899,-0.020574414698659258,0.7938655823862616,-0.6075217046092943
1.4931031546748486,1.1627340003642992,-0.020287664923140106,0.7776626655527894,-0.6407434756357628
1.4888699364791271,1.0011173206648962,-0.02002869884563497,0.7615438077748696,-0.674715836426712
1.4846882914100354,0.8428769825770672,-0.019796492288571454,0.7455070311568233,-0.7093489406094846
1.4805527098297586,0.687995947603298,-0.01958999895216041,0.7295504447838329,-0.7445534401316829
1.476457903897252,0.5364575653090569,-0.019408152785998455,0.7136722437327573,-0.7802402766826688
1.472398811498032,0.38824555533054195,-0.01924987006371558,0.6978707084435813,-0.8163204700638625
1.46837059976834,0.24334398947514302,-0.019114051171446416,0.6821442044649866,-0.8527049024488664
1.4643686682729067,0.1017372738342388,-0.018999582118394337,0.6664911825912678,-0.8893040974151357
1.4603886518940787,-0.03658986917609752,-0.018905335775204868,0.6509101794119543,-0.9260279925593434
1.456426423489142,-0.1716524189358637,-0.01883017284324031,0.63539981830009,-0.9627857044278915
1.4524780963723143,-0.30346507499875486,-0.01877294255512019,0.6199588108702686,-0.9994852844012534
1.4485400266781037,-0.43204227582918264,-0.01873248310402845,0.6045859589433035,-1.0360334640649762
1.4446088156635741,-0.5573982180096309,-0.018707621796251697,0.5892801570609439,-1.0723353884801268
1.4406813120085606,-0.6795468760391827,-0.01869717491816284,0.5740403956014635,-1.1082943356306267
1.4367546141750913,-0.7985020228556508,-0.018699947305356034,0.5588657645553738,-1.1438114201731693
1.4328260728902573,-0.9142772512271264,-0.018714731597822304,0.5437554580301407,-1.1787852794462288
1.4288932938205943,-1.0268859961744852,-0.01874030716087421,0.5287087795637708,-1.213111739507216
1.424954140510776,-1.1363415586043502,-0.018775438646919357,0.5137251483397302,-1.2466834587606044
1.4210067376652016,-1.2426571303530807,-0.018818874168074918,0.4988041064100756,-1.2793895465149252
1.4170494748579414,-1.3458458208664084,-0.018869343043927313,0.48394532705021515,-1.3111151535638592
1.4130810107646792,-1.4459206857673834,-0.018925553082379167,0.4691486243876458,-1.34174103162858
1.4091002780198694,-1.5428947575972956,-0.01898618734438234,0.45441396446868443,-1.371143058229379
1.405106488813502,-1.6367810790514596,-0.019049900335305223,0.4397414779519267,-1.3991917232818267
1.4010991413548544,-1.7275927390741685,-0.019115313556576495,0.42513147464528134,-1.4257515734480497
1.3970780273456187,-1.8153429122261215,-0.019181010340908067,0.410584460135212,-1.4506806100352918
1.3930432406221493,-1.9000449017935281,-0.019245529882609337,0.3961011547924841,-1.473829636049137
1.3889951871465713,-1.9817121871719579,-0.019307360360990098,0.3816825154782794,-1.4950415479182493
1.3849345965495452,-2.0603584761305385,-0.019364931039258876,0.3673297603177313,-1.5141505674710154
1.3808625354540882,-2.1359977626440667,-0.019416603203190032,0.3530443969539519,-1.5309814100493924
1.3767804228405889,-2.2086443910722338,-0.019460659782515915,0.3388282547428505,-1.5453483853186154
1.3726900477488024,-2.278313127566662,-0.01949529347259366,0.3246835213945293,-1.5570544285575938
1.3685935896541568,-2.345019239696697,-0.019518593143079226,0.3106127846057859,-1.5658900622610576
1.3644936419045088,-2.4087785854017696,-0.01952852828214026,0.29661907925202036,-1.5716322911381573
1.3603932386613897,-2.4696077124969946,-0.01952293117613595,0.28270594070248284,-1.57404343861486
1.3562958858594918,-2.527523970071563,-0.019499476460986424,0.2688774647695714,-1.5728699405542201
1.3522055967835906,-2.582545633212561,-0.019455657595214813,0.25513837466852546,-1.567841123283432
1.3481269329692755,-2.6346920425381057,-0.019388759683975906,0.24149409509859693,-1.5586680098807812
1.3440650512720076,-2.683983759997325,-0.01929582790905136,0.22795083308446917,-1.5450422235314432
1.3400257581327115,-2.730442742235475,-0.019173630560434703,0.2145156644217268,-1.5266350932414423
1.3360155723205906,-2.7740925324440155,-0.01901861526928747,0.20119662327863946,-1.5030971205600936
1.3320417977927093,-2.814958470886559,-0.01882685642482142,0.18800279045985835,-1.4740580437537134
1.328112608836364,-2.8530679230139455,-0.01859399077846662,0.17494437265812854,-1.4391278488054178
1.3242371504548769,-2.8884505219609906,-0.018315136664266676,0.16203276017084547,-1.3978992395283478
1.3204256581857992,-2.92113841882648,-0.017984789707901336,0.14928054331003351,-1.3499523117099894
1.3166896034760314,-2.951166528877671,-0.017596683718458704,0.136701457177476,-1.2948625027957659
1.3130418738318,-2.9785727538971116,-0.017143598607553916,0.12431020967430581,-1.2322133339969652
1.3094970019522374,-3.0033981493657222,-0.016617085959708098,0.1121221281219871,-1.1616160383174055
1.3060714661449706,-3.0256869892154867,-0.016007064585690865,0.10015253711387721,-1.0827388419988009
1.3027840974353206,-3.045486660485274,-0.015301208839547218,0.08841576069361856,-0.9953492799301139
1.2996566499530058,-3.0628472979743364,-0.014484005277737164,0.07692364396410509,-0.8993730332137266
1.2967146251888195,-3.0778210538898563,-0.01353527819070401,0.0656835552312997,-0.7949713627891987
1.293988495514136,-3.0904609118924355,-0.012427861568186316,0.05469604479323824,-0.6826343222954367
1.2915155640485052,-3.1008190453167828,-0.011123866675917278,0.04395284496247322,-0.5632756476941332
1.289342871533076,-3.1089449689230477,-0.009568442994837448,0.03343690366861969,-0.43829529886630925
1.2875319817933555,-3.114884284556908,-0.007678125954882008,0.02312800713004387,-0.30955078711162193
1.286167890112992,-3.118680050338483,-0.005313223381912821,0.013022143170661488,-0.17916511724312037
1.2853814140293423,-3.1203832081072918,-0.002177025033798644,0.0031984070084767075,-0.04912878994944572
