x,y,v_x,v_y,omega
2.375,32.48,0.0,2.769230769230769,-4.081632653061225
2.373877503316753,31.85082981581598,-0.009760840723886006,2.701814310630225,-3.8114741665281784
2.3706818316744314,31.23683729493625,-0.018027608339782834,2.6372510883239775,-3.5680520618064016
2.3657314430759806,30.637388539693287,-0.025019249038047656,2.5753467833539405,-3.34793588858021
2.359298439141189,30.05189222908991,-0.030919915612313296,2.5159254827624147,-3.148215809234487
2.3516158673574776,29.479795653741576,-0.035885056419960086,2.458827346353525,-2.966412609981909
2.3428837578063524,28.92058124358229,-0.04004633098113176,2.4039066550315553,-2.8004050932790645
2.3332741356601856,28.373763509406132,-0.04351560072466353,2.3510301638915494,-2.64837114230004
2.322935200228718,27.83888633490406,-0.04638818563592678,2.3000757013438853,-2.5087396162864657
2.3119948224118656,27.315520567829427,-0.04874553451061406,2.2509309688703025,-2.3801508821451773
2.3005634821737027,26.803261868229008,-0.05065742408210912,2.203492505915936,-2.2614242740195123
2.288736743978463,26.301728778982977,-0.05218377761562513,2.1576647918756615,-2.1515311417198735
2.276597349470273,25.8105609896951,-0.05337617462950504,2.1133594628015153,-2.0495724314226194
2.2642169918801422,25.32941776961939,-0.05427910876293651,2.0704946248133775,-1.9547599599098522
2.2516578248406773,24.857976549064734,-0.05493103940632197,2.0289942495749083,-1.8664007128033102
2.2389737488252064,24.395931631781515,-0.05536527377168747,1.9887876398443827,-1.7838836294758103
2.2262115108028464,23.942993023351065,-0.05561070903144155,1.9498089552030162,-1.7066684412988538
2.2134116465293334,23.498885362683524,-0.05569245856432628,1.9119967897321306,-1.634276212104522
2.2006092898767826,23.06334694546785,-0.055632381892636536,1.8752937947519916,-1.566281295100124
2.1878348695114735,22.636128829876846,-0.055449534327442505,1.8396463408219432,-1.5023044726911265
2.1751147098748707,22.21699401606216,-0.055160549469103946,1.80500421408839,-1.4420070875808932
2.162471550665775,21.805716692020447,-0.05477996539259913,1.7713203427960484,-1.3850860073078228
2.1499249967468486,21.402081539305115,-0.05432050346762898,1.7385505503807637,-1.3312692917403168
2.1374919085162145,21.00588309282397,-0.05379330723353762,1.7066533320639254,-1.2803124552911416
2.125186741221934,20.616925149623444,-0.05320814749933757,1.6755896522885059,-1.2319952337622697
2.113021840395811,20.235020222130895,-0.05257359881477496,1.645322760690179,-1.1861187805963236
2.1010076994962668,19.85998903182299,-0.05189719161604367,1.6158180245959533,-1.1425032295285156
2.0891531849401006,19.491660039720323,-0.051185543654965915,1.5870427762968282,-1.1009855707088576
2.077465732939029,19.129869010487027,-0.050444473745653855,1.558966173557895,-1.0614177957008852
2.0659515219139153,18.774458607246117,-0.04967910038577234,1.5315590720152337,-1.0236652736820433
2.0546156237170825,18.42527801451343,-0.0488939274127719,1.504793908268983,-0.9876053269305823
2.0434621364342953,18.08218258691118,-0.04809291852450967,1.4786445926201748,-0.953125978492496
2.032513888541609,17.74503595514219,-0.04710923706406796,1.4530652488493052,-0.9154461348609089
2.021791087999998,17.413707116456347,-0.046132506776028204,1.4280550875493148,-0.879682239619108
2.0112919274968366,17.088067728804294,-0.045164541077547284,1.4035917615989704,-0.8457122185703466
2.001014215299003,16.767994459481937,-0.04420686933839694,1.3796540585954369,-0.8134232481967828
1.990955436466598,16.45336873244727,-0.043260772682517906,1.3562218286625476,-0.7827109445423008
1.9811128063466108,16.144076491611248,-0.04232731531737095,1.333275917737632,-0.7534786326119748
1.9714833173083979,15.840007978898338,-0.04140737197143556,1.3107981058528775,-0.725636687383194
1.962063779558486,15.541057525978012,-0.04050165194084058,1.2887710499760408,-0.699101938607139
1.9528508567647933,15.247123358663625,-0.039610720178227914,1.2671782310186144,-0.6737971325192894
1.943841097127436,14.958107413060816,-0.03873501579879215,1.2460039046579785,-0.6496504443945587
1.9350309604527935,14.673915162624908,-0.03787486832853247,1.2252330556542699,-0.6265950365938896
1.9264168417176735,14.394455455356752,-0.0370305119768606,1.2048513553731652,-0.6045686573695027
1.9179950915497739,14.119640360429745,-0.03620209817878792,1.1848451222529781,-0.583513276237996
1.9097620339979031,13.849385023598092,-0.0353897066200884,1.165201284978788,-0.5633747522048677
1.9017139819194866,13.583607530788498,-0.034593354931359205,1.1459073481481004,-0.5441025315398781
1.893847250272868,13.322228779324778,-0.033813007213149934,1.1269513602320689,-0.5256493721678017
1.886158167566972,13.065172356277895,-0.03304858153377193,1.108321883653859,-0.5079710920602225
1.8786430856903766,12.812364423473227,-0.03229995652357919,1.0900079668215112,-0.4910263392968396
1.8712983883151497,12.563733608722561,-0.031566977174046704,1.0719991179668775,-0.47477638171421155
1.8641204980474329,12.319210902881043,-0.030849459936533624,1.0542852806550298,-0.4591849142802278
1.8571058824762798,12.0787295623591,-0.030147197203927483,1.0368568108401124,-0.4442178825275277
1.8502510592542873,11.842225016746767,-0.02945996124818257,1.0197044553540824,-0.4298433205517628
1.8435526003277896,11.609634781232756,-0.02878750767788618,1.0028193317242633,-0.4160312022337639
1.8370071354205255,11.380898373523681,-0.028129578472235246,0.986192909224224,-0.40275330448072005
1.830616873678715,11.156066615003368,-0.02743791493481284,0.9688658605176155,-0.4091371982006114
1.8243821550125614,10.935205304388994,-0.02677702998826077,0.951667275259553,-0.417916936405847
1.8182958719540812,10.718285339133995,-0.026147170520264103,0.9345932921752016,-0.4289611688944956
1.8123508763191158,10.505278486350708,-0.02554844369682497,0.9176402102881788,-0.442142830867131
1.8065400099195643,10.296157346821275,-0.02498082934275562,0.9008044812721111,-0.45733883282521176
1.8008561325434358,10.090895320701737,-0.024444191319230694,0.8840827023760572,-0.47442976331672343
1.7952921474246564,9.889466574790887,-0.023938287974502804,0.8674716098921943,-0.49329960324143685
1.789841024407768,9.691846011242454,-0.023462781737570607,0.8509680731376577,-0.5138354504868331
1.784495820997291,9.498009237605164,-0.023017247918752134,0.8345690889257508,-0.5359272537155659
1.7792497014674282,9.307932538080635,-0.022601182775707655,0.8182717765049256,-0.5594675541666168
1.7740959541949022,9.121592845893662,-0.02221401089843075,0.8020733729470158,-0.5843512343653243
1.769028007365948,8.938967716673297,-0.02185509196204128,0.7859712289692166,-0.6104752726624024
1.7640394431977526,8.760035302746449,-0.021523726891830502,0.7699628051772756,-0.6377385025389919
1.7591240108048898,8.584774328248223,-0.021219163480890132,0.7540456687203276,-0.6660413756237209
1.754275637832459,8.413164064955044,-0.020940601496769136,0.7382174903508061,-0.695285727368577
1.749488440969691,8.24518430874782,-0.02068719730991108,0.7224760418859317,-0.7253745443229577
1.7447567354506446,8.080815356612835,-0.02045806807309916,0.7068191940704588,-0.7562117319292835
1.7400750436422976,7.920037984087706,-0.02025229547774399,0.6912449148436873,-0.7877018817386601
1.7354381028147576,7.762833423058694,-0.02006892910955984,0.6757512680172884,-0.8197500369108205
1.7308408721835182,7.609183339813665,-0.019906989422956937,0.6603364123742745,-0.8522614548183707
1.7262785393095939,7.4590698132522135,-0.019765470350298825,0.6449986012035582,-0.8851413655205569
1.7217465259400244,7.312475313150568,-0.019643341559001725,0.6297361822890285,-0.9182947248055857
1.71724049336862,7.169382678373971,-0.01953955036625314,0.6145475983770379,-0.9516259604220653
1.7127563473949465,7.029775094923167,-0.019453023317863184,0.5994313881516946,-0.9850387100284287
1.7082902429584368,6.8936360736940685,-0.01938266743439545,0.5843861877535227,-1.0184355492831436
1.7038385885241967,6.760949427820755,-0.019327371124213084,0.5694107328839895,-1.0517177083769529
1.6993980502975843,6.631699249461278,-0.01928600475937381,0.5545038615462449,-1.084784775170107
1.6949655563460242,6.505869885873107,-0.019257420906365494,0.5396645174813274,-1.1175343829413151
1.6905383007088572,6.3834459146102915,-0.01924045419943529,0.5248917543692462,-1.1498618805797958
1.6861137475793604,6.264412117657095,-0.019233920839668767,0.5101847408759479,-1.1816599828563534
1.681689635647534,6.148753454292709,-0.019236617697951354,0.4955427666404607,-1.2128183981932061
1.6772639826979119,6.036455032458207,-0.01924732099441406,0.48096524931173595,-1.2432234311152155
1.6728350905636575,5.927502078369706,-0.01926478452084036,0.46645174276217766,-1.2727575563080764
1.6684015505467067,5.821879904090192,-0.019287737365688732,0.45200194662488885,-1.301298960934131
1.6639622494238715,5.7195738727359995,-0.019314881093748525,0.43761571732462506,-1.3287210515681356
1.6595163761708467,5.620569360951816,-0.019344886323858317,0.4232930807986997,-1.3548919218210989
1.6550634295501854,5.524851718239557,-0.019376388638413657,0.409034247134001,-1.3796737764324014
1.650603226725819,5.432406222670426,-0.01940798374738087,0.3948396273801872,-1.4029223073478674
1.646135913085918,5.343218032445421,-0.019438221816976874,0.380709852837264,-1.4244860170932192
1.6416619734782065,5.257272132695945,-0.01946560085877294,0.36664579715817436,-1.4442054846417673
1.6371822450877378,5.174553276832608,-0.019488559058346355,0.3526486016534688,-1.4619125690264703
1.6326979322171573,5.095045921655462,-0.019505465903223614,0.3387197042347494,-1.477429546254027
1.628210623264379,5.01873415533273,-0.019514611947023554,0.3248608724846543,-1.49056817578064
1.623722310233239,4.945601617237092,-0.019514197019412188,0.31107424139047374,-1.5011286941072046
1.6192354111603078,4.875631408500322,-0.019502316658249433,0.2973623563205738,-1.5088987352401018
1.6147527958972328,4.808805992010871,-0.019476946498925948,0.28372822184855584,-1.5136521812712518
1.6102778157550168,4.74510708044043,-0.019435924302949412,0.27017535702484574,-1.5151479517830635
1.6058143375978071,4.684515510754441,-0.019376929238005575,0.256707857635932,-1.5131287490933718
1.6013667830738896,4.627011103554555,-0.019297457926495072,0.24333046584133414,-1.507319788856688
1.5969401737981397,4.57257250554548,-0.01919479664524303,0.23004864728104019,-1.4974275641824013
1.5925401834646449,4.521177013458487,-0.019065988863407515,0.2168686752145611,-1.4831387190716832
1.5881731980889744,4.472800377968106,-0.01890779701198698,0.20379772035395755,-1.4641191477803919
1.5838463858860747,4.427416586615003,-0.018716656926272123,0.19084394358607776,-1.440013496748795
1.5795677787300164,4.384997625661619,-0.018488622691626152,0.17801658644334015,-1.4104453337552836
1.5753463677946415,4.345513222408858,-0.018219298485546834,0.1653260505371936,-1.375018377414417
1.5711922169698131,4.308930572164581,-0.01790375216513363,0.15278395158694272,-1.3333193663528915
1.567116599202696,4.275214058321335,-0.01753640233153792,0.14040312531085014,-1.2849234143021122
1.56313216338657,4.244324980631216,-0.017110865634776342,0.12819755025539017,-1.2294030727146172
1.5592531434070263,4.216221316756602,-0.016619742882995853,0.116182135610829,-1.1663428333054233
1.5554956274392413,4.190857556668416,-0.01605430901078582,0.10437229993861921,-1.0953614573184007
1.5518779161715714,4.168184669356581,-0.01540404983851767,0.09278324190341276,-1.0161452592513023
1.5484210158790537,4.1481502861528945,-0.01465595270511538,0.08142878595473281,-0.9284960715634766
1.5451493402444823,4.130699210282689,-0.013793400638983445,0.07031969987314095,-0.8323974571733768
1.542091739978136,4.1157743740485735,-0.012794427764028754,0.05946148477132746,-0.7281004481878671
1.5392830528379355,4.10331832980517,-0.011628938672496246,0.048851943432199695,-0.616223150669011
1.536766493696816,4.093275211296479,-0.010254184293762075,0.03847952186074935,-0.4978435814204664
1.5345974637713409,4.0855927202532705,-0.0086069454929773,0.028324748080182642,-0.37454074996196074
1.5328500684411188,4.080222861872272,-0.00658779650895276,0.01836967262414242,-0.24831330455151454
1.5316304038774318,4.077118072289924,-0.004017982305717163,0.008628497657137035,-0.12130105371955072
