x,y,v_x,v_y,omega
2.375,32.48,0.0,3.333333333333333,-5.551020408163265
2.3734542663886242,31.78909990698333,-0.014721272489291462,3.246667552539664,-5.1515370177189395
2.369071533268851,31.11597394016126,-0.02701904293712564,3.1640559410038565,-4.795445842896409
2.3623203424496086,30.45980267448522,-0.03727801248422774,3.0851942082917865,-4.476676117610334
2.353595408332679,29.81982720540504,-0.04581659815319497,3.009810259138486,-4.190159281289621
2.343230215571588,29.195342871662575,-0.052899523381008236,2.9376595860278525,-3.9316405999001036
2.3315072498290776,28.585693856183887,-0.058747769404804556,2.868521513769196,-3.697530382299339
2.318666351812138,27.99026850635039,-0.06354649742319188,2.802196103692694,-3.4847855838462247
2.304911572978135,27.408495250052674,-0.06745139623397753,2.738501575333165,-3.2908149412334557
2.290416827559679,26.839839010033,-0.07059379822750665,2.6772721391399057,-3.113402478645642
2.2753305721290147,26.283798038684537,-0.07308482492167818,2.6183561594168827,-2.9506454640594573
2.2597796954186884,25.73990111047779,-0.0750187627957153,2.561614585409316,-2.8009038095307894
2.2438727637019573,25.20770502077191,-0.07647582498267512,2.506919602265704,-2.662758592251854
2.2277027379535412,24.686792348821967,-0.0775244202403359,2.454153463924208,-2.5349778876820808
2.2113492562451076,24.176769449943905,-0.07822302460189154,2.4032074777716588,-2.4164884970294116
2.1948805568942866,23.677264647505144,-0.07862173112021231,2.3539811168831832,-2.306352450795606
2.178355103673138,23.18792660000586,-0.07876353765263334,2.306381240252841,-2.203747401099724
2.1618229630581665,22.708422822252672,-0.07868542058518649,2.26032140501565,-2.1079501948999653
2.145326974436662,22.238438342689715,-0.07841923295295504,2.21572125748869,-2.018323060442461
2.128903746889591,21.777674481482286,-0.07799245797152915,2.1725059921058634,-1.9343019494818687
2.1125845102771996,21.32584773605337,-0.07742884309886496,2.1306058691219225,-1.8553866649338961
2.096395843571228,20.882688762536805,-0.07674893505324389,2.0899557834167783,-1.7811324728317144
2.0803602994824075,20.447941443096845,-0.07597053245933244,2.0504948779161656,-1.711142952714279
2.064496941247337,20.021362030323402,-0.07510906977943409,2.0121661961166413,-1.6450638848926842
2.0488218048261517,19.602718360985598,-0.07417794375566474,1.974916369005318,-1.5825780087420604
2.033348297611657,19.191789132345242,-0.07318879162047778,1.9386953323314116,-1.523400515046746
2.018087542974469,18.788363235022338,-0.07215172873369118,1.9034560707438455,-1.4672751588820416
2.00304867849741,18.392239137087614,-0.07107555200020589,1.8691543857773458,-1.413970898638459
1.9882391145300213,18.003224314649174,-0.0699679143558751,1.8357486850649183,-1.3632789824415088
1.9736647586756328,17.621134724715887,-0.06883547473353845,1.803199790490213,-1.3150104160683966
1.9593302109725512,17.245794316570077,-0.06768402720057244,1.7714707632793998,-1.268993757048809
1.9452389338182385,16.877034578276643,-0.06651861236431043,1.740526744277106,-1.2250731883871024
1.931393400086836,16.514694115302092,-0.06534361364904821,1.710334807861479,-1.1831068325986789
1.9177952223865544,16.158618258522463,-0.06416284063934719,1.680863828135006,-1.1429652727877395
1.9044452659783153,15.808658699168873,-0.06297960134388257,1.6520843561848926,-1.1045302525271377
1.8913437475174628,15.464673148498413,-0.061796764949949665,1.6239685073432852,-1.0676935305116582
1.87849032147561,15.126525020190236,-0.060616816401032246,1.5964898574964872,-1.032355869487931
1.8658841558407997,14.794083133655509,-0.05944190393049299,1.5696233475961638,-0.9984261419346657
1.8535239984738245,14.467221436618182,-0.058273880516888005,1.5433451956164825,-0.9658205374716583
1.8414082353106,14.145818745473946,-0.057114340085251306,1.5176328152809928,-0.9344618590933895
1.8295349414398987,13.829758502069339,-0.05596464915952264,1.4924647409533642,-0.9042788971173054
1.817918104021842,13.518930866265485,-0.05467189767911366,1.4677984571785878,-0.8708144684060971
1.806569957649483,13.213230026408151,-0.053405686819542705,1.4436381128912452,-0.8389336695136528
1.7954849153986876,12.91255168964446,-0.05216614414041293,1.4199650943820286,-0.8085423525421827
1.7846573755314439,12.616795379395064,-0.050953283166672,1.39676166989794,-0.7795530301129656
1.7740817436867506,12.325864255650046,-0.04976702011611913,1.3740109371974756,-0.7518843295915221
1.763752451783806,12.039664945888006,-0.04860718848335503,1.3516967748219546,-0.725460497982875
1.753663974058834,11.758107385870144,-0.04747355175447287,1.3298037967767513,-0.7002109522521149
1.7438108406031185,11.481104669622365,-0.04636581449043648,1.308317310344955,-0.6760698704231216
1.7341876487231147,11.208572907974066,-0.04528363198578968,1.287223276781712,-0.6529758193317224
1.7247890724029602,10.94043109507263,-0.04422661868234989,1.2665082746605523,-0.6308714153687317
1.7156098701144187,10.676600982338584,-0.04319435549423624,1.2461594656636803,-0.6097030149517607
1.7066448911885779,10.417006959368084,-0.04218639618043679,1.2261645626267899,-0.5894204318197076
1.6978890809368454,10.161575941327374,-0.04120227288368298,1.2065117996656762,-0.56997667855673
1.6893374846854334,9.910237262418644,-0.040241500939288924,1.187189904226981,-0.551327730028662
1.6809852508671352,9.662922575028318,-0.03930358304450387,1.1681880709189907,-0.5334323066589343
1.6728276332963707,9.419565754197802,-0.038388012867539636,1.1494959369906836,-0.5162516756871085
1.6648599927378978,9.180102807083255,-0.037494278165534876,1.1311035593383203,-0.4997494687446383
1.657077797865946,8.944471787095196,-0.03662186347210042,1.113001392928924,-0.4838915142524254
1.6494766256985793,8.712612712431053,-0.03577025240758227,1.0951802705391154,-0.46864568329578266
1.642052161581627,8.484467488734264,-0.03493892965863054,1.0776313837160305,-0.45398174776681777
1.6348001987873364,8.259979835632251,-0.034127382667946626,1.0603462648745745,-0.4398712496839917
1.6277166377848429,8.039095216922949,-0.03333510307008638,1.0433167704520985,-0.4262873807054253
1.6207974852324767,7.821760774195457,-0.03256158790482931,1.0265350650478131,-0.41320487094792263
1.6140388527357103,7.607925263685043,-0.031806340635801074,1.0099936064799289,-0.400599886308982
1.607436955409089,7.397538996176287,-0.031068871998687624,0.993685131698695,-0.3884499335654239
1.6009943124460924,7.190693238861233,-0.030289632410805976,0.9762744617780013,-0.40337692185301083
1.5947112585676801,6.987491518494842,-0.02954897595502491,0.9589800179019012,-0.4202913575037673
1.5885797430604076,6.787909770076375,-0.02884640982852321,0.9417985384644342,-0.43907857140560685
1.5825918271370027,6.591924600001718,-0.028181360870572058,0.9247268908180121,-0.45962709657332
1.5767396999998482,6.399513259555825,-0.027553183292802545,0.9077620658095553,-0.48182841667207554
1.5710156933485266,6.21065361950739,-0.026961165767404077,0.8909011727469788,-0.5055767229318031
1.5654122944613507,6.02532414571737,-0.026404537919987255,0.8741414347770303,-0.5307686784625314
1.5599221579714104,5.843503875676689,-0.0258824762699192,0.857480184658045,-0.5573031890114089
1.5545381164490555,5.665172395891659,-0.02539410965727108,0.8409148609136756,-0.5850811792261172
1.5492531898948738,5.4903098200383305,-0.02493852419207792,0.8244430043561182,-0.6140053735068088
1.5440605942400765,5.318896767809111,-0.02451476775837314,0.8080622549697893,-0.6439800805395921
1.5389537489446954,5.150914344376652,-0.024121854102399237,0.7917703491488718,-0.6749109806089335
1.5339262837781373,4.986344120401135,-0.023758766531487462,0.7755651172846368,-0.7067049147840263
1.5289720448613626,4.82516811250764,-0.023424461247319256,0.7594444817010215,-0.7392696750650415
1.5240851000452604,4.667368764160372,-0.023117870334607885,0.7434064549396114,-0.7725137945589726
1.5192597436956436,4.512928926859924,-0.02283790442364689,0.7274491383979911,-0.8063463367312069
1.5144905009516836,4.36183184158865,-0.0225834550426397,0.7115707213284166,-0.840676682747601
1.5097721315215173,4.214061120427434,-0.02235339667322863,0.6957694802069818,-0.875414315882249
1.5050996330762119,4.069600728264572,-0.022146588520157544,0.6800437784869386,-0.9104686019177419
1.5004682443012272,3.9284349645143095,-0.021961876003505305,0.6643920667536496,-0.9457485644068999
1.495873447663023,3.7905484447583753,-0.02179809197939086,0.6488128833028646,-0.9811626535969982
1.4913109719474802,3.655926082218862,-0.02165405769244702,0.6333048551686874,-1.0166185077385939
1.486776794626404,3.5245530689647033,-0.021528583460658748,0.6178666996328248,-1.0520227054103357
1.4822671441085502,3.3964148567467376,-0.02142046909033034,0.6024972262525754,-1.0872805073876624
1.4777785019323908,3.2714971373477972,-0.02132850401594889,0.5871953394516348,-1.1222955864660986
1.4733076049592828,3.149785822324219,-0.02125146715650923,0.571960041725288,-1.1569697435179664
1.4688514476278256,3.0312670220034548,-0.02118812647641535,0.5567904375200695,-1.1912026079138238
1.4644072843330926,2.915927023588793,-0.02113723823532617,0.5416857378576654,-1.2248913202760268
1.4599726319981259,2.8037522682064306,-0.021097545907215975,0.5266452657838885,-1.257930195350946
1.4555452729097051,2.6947293267118226,-0.02106777874441043,0.5116684627361867,-1.290210362588439
1.4511232578960183,2.5888448740510768,-0.021046649957369278,0.49675489593758343,-1.3216193818027462
1.4467049099305735,2.4860856619487777,-0.02103285447543753,0.48190426694144733,-1.352040831059643
1.4422888282546558,2.38643848966554,-0.02102506624758846,0.4671164214703319,-1.3813538636935818
1.43787389311996,2.2898901725362286,-0.02102193503522868,0.4523913607136033,-1.4094327311111539
1.4334592712639238,2.1964275079626354,-0.02102208264130576,0.43772925427298387,-1.4361462677922499
1.4290444222429206,2.106037238491833,-0.021024098511105732,0.4231304549727518,-1.4613573346714128
1.4246291057630966,2.018706011562543,-0.021026534630074593,0.4085955157823776,-1.4849222168896072
1.4202133901655238,1.9344203354463296,-0.021027899632524737,0.39412520913393434,-1.5066899717815192
1.4157976622418076,1.8531665308470338,-0.021026652021915566,0.37972054895459295,-1.5265017229503979
1.4113826385787493,1.7749306775503833,-0.021021192388161875,0.36538281577542225,-1.5441898964467256
1.406969378656581,1.6996985554353117,-0.02100985448963212,0.35111358532050835,-1.5595773955034329
1.4025592999552905,1.627455579069231,-0.020990895046466482,0.3369147610230994,-1.5724767111259534
1.3981541953584196,1.55818672501157,-0.020962482066591775,0.3227886109546205,-1.582688967287817
1.3937562531844634,1.4918764508446962,-0.020922681494895935,0.3087378096822846,-1.5900029018267692
1.3893680802240846,1.4285086048418982,-0.020869441937281134,0.2947654855824656,-1.5941937877837589
1.3849927282187213,1.3680663250736096,-0.020800577161417085,0.2808752741155169,-1.5950223054709975
1.3806337242857456,1.3105319266549493,-0.02071374600978149,0.26707137749076476,-1.5922333838529985
1.3762951058813877,1.2558867757651768,-0.020606429269816682,0.25335863098326644,-1.5855550421156894
1.3719814610017005,1.2041111490473142,-0.020475902917680318,0.23974257585352565,-1.5746972803764627
1.3676979744640116,1.1551840770625326,-0.02031920696507008,0.2262295382872663,-1.5593510949449163
1.3634504813025052,1.1090831706885496,-0.020133108858801554,0.21282671289353783,-1.539187732120548
1.3592455285771112,1.0657844298056922,-0.019914059954474313,0.19954224789556801,-1.5138583505816279
1.355090447275574,1.0252620344463956,-0.019658142917307827,0.18638532695486443,-1.482994343625484
1.3509934365505458,0.9874881199997958,-0.019361006844865556,0.173366239203234,-1.4462086895792357
1.3469636633847082,0.9524325403648568,-0.019017785210730755,0.16049642398665995,-1.4030988662159447
1.343011382093732,0.9200626265650378,-0.018622988989044045,0.1477884693449608,-1.3532521019157369
1.3391480801482407,0.890342953868771,-0.018170362872776732,0.13525603252423093,-1.2962540648120031
1.335386660093557,0.8632351386653916,-0.017652685267066166,0.12291363607937374,-1.231702531537811
1.3317416726350537,0.8386976980762135,-0.017061481004395328,0.11077627429373899,-1.1592281324614868
1.328229624464897,0.8166860211688416,-0.01638659680662065,0.09885874387170698,-1.0785248883752176
1.3248693980716009,0.7971525202761569,-0.015615559320010028,0.08717459796339933,-0.9893937435378282
1.3216828426137974,0.7800470509251873,-0.014732587897165712,0.07573463395060297,-0.8918021667432721
1.3186956296721866,0.7653176990100974,-0.013717059165795544,0.06454490809786992,-0.7859610625991642
1.3159385233113214,0.7529120100817366,-0.012541096651968096,0.053604510267481406,-0.672414759727375
1.313449307421597,0.7427786303041941,-0.011165721345407902,0.04290386856624688,-0.5521280626883263
1.311275794969857,0.7348690593519045,-0.009534397242590961,0.032425378598410645,-0.426534868399025
1.3094808024512705,0.7291386399547726,-0.0075607696010905456,0.02215004423142226,-0.2974907672572168
1.308151571070995,0.7255446021830707,-0.0050985768777233615,0.012078886927637197,-0.16706412613242944
1.307424579192117,0.7240338393598869,-0.0018251553020664463,0.0023093304360197325,-0.0371394335542895
