x,y,v_x,v_y,omega
2.375,32.48,0.0,4.0,-3.836734693877551
2.373683549937091,31.652611086028347,-0.012537619646751144,3.8798944187776265,-3.5096329817450407
2.369990086475905,30.849751045493697,-0.02263822284073463,3.7663916815523484,-3.2249403619000105
2.364383291390233,30.07009189521476,-0.030759825594238344,3.6589335591994625,-2.9756597908134794
2.3572404018513713,29.31241621423311,-0.0372676938234939,3.5570253072924207,-2.756142623135301
2.348869538793262,28.57560478511517,-0.04245481149182867,3.460226398592707,-2.561796066177824
2.3395232522121194,27.858626003898426,-0.04655744166191247,3.3681429463286983,-2.3888606733652713
2.3294091803795087,27.160526743110267,-0.04976705198199987,3.2804214421299585,-2.234239605797608
2.318698490148765,26.480424420887047,-0.05223952164412948,3.19674353142449,-2.0953665394165295
2.3075325990527253,25.81750008016543,-0.05410229831815272,3.1168216183051944,-1.9701026865572782
2.296028558031264,25.17099232041391,-0.05545999712433611,3.040395141233139,-1.8566559378659273
2.2842833835937744,24.540191953919674,-0.05639880704223128,2.9672273968071807,-1.7535169438012566
2.2723775611325325,23.92443728164543,-0.056989978302928346,2.8971028153284717,-1.6594082644843562
2.2603778907158723,23.323109901799516,-0.05729259709383838,2.829824611775474,-1.5732436716127793
2.248339808569722,22.73563097871402,-0.05735580429806696,2.765212750943536,-1.494095388790806
2.2363092884185574,22.161457911261397,-0.05722057809397754,2.7031021771766923,-1.4211675779342814
2.2243244045958916,21.600081349493962,-0.05692117259807668,2.6433412682274704,-1.3537747692073263
2.2124166216653074,21.051022515933965,-0.056486283883680086,2.5857904799629465,-1.2913242255550736
2.200611861975194,20.513830794330666,-0.05593999887930266,2.5303211543542057,-1.2333014555808264
2.1889313921838665,19.988081554006587,-0.055302570561913705,2.476814467779872,-1.1792582585160145
2.1773925616495373,19.473374182348387,-0.054591053574552836,2.4251605003934498,-1.1288028156181984
2.166009419165436,18.96933030172168,-0.05381982722641392,2.375257410337112,-1.0815914432367368
2.1547932294437113,18.475592150233485,-0.05300102726620278,2.3270106990742754,-1.037321701193872
2.143752906715766,17.99182110843289,-0.05214490347613099,2.280332556169479,-0.995726611384252
2.1328953795942045,17.517696356312175,-0.05126011672921829,2.235141273551631,-0.9565697895972034
2.1222258987581153,17.052913646913442,-0.050353986471632285,2.191360720722024,-0.9196413315244838
2.11174829694408,16.597184184513424,-0.04943269747155938,2.148919873563861,-0.8847543240124256
2.101465209045375,16.150233596795434,-0.04850147299230084,2.107752390416975,-0.8517418765884324
2.0913782587596876,15.711800991658684,-0.04756472020471731,2.0677962299330375,-0.8204545874678704
2.081488217117343,15.281638090391002,-0.046626152579520005,2.0289933059496605,-0.790758373652349
2.071795137317155,14.85950842986631,-0.04568889313655553,1.9912891752378907,-0.7625326071561376
2.0622984695559428,14.445186627243373,-0.044755561732133735,1.9546327545043696,-0.7356685094594916
2.0529971589288305,14.038457701354886,-0.04382834900226718,1.9189760634812234,-0.7100677644664827
2.043889728975727,13.639116445600191,-0.04290907912253058,1.8842739913254105,-0.6856413169173382
2.0349743530347,13.246966847703142,-0.0419992631729587,1.8504840838845755,-0.6623083286680438
2.0262489152193495,12.861821552179226,-0.04110014459228668,1.8175663496765313,-0.6399952697376806
2.0177110625517094,12.483501361781677,-0.04021273795666851,1.785483082681089,-0.6186351247229355
2.009358249544366,12.111834774572685,-0.03933786211327029,1.754198700261706,-0.5981666982378748
2.001187776326777,11.746657553599071,-0.038476168530432134,1.7236795947250831,-0.5785340055741552
1.9931968212444773,11.387812326447634,-0.03762816558670698,1.6938939971933749,-0.5596857368876664
1.9853824687202828,11.035148212218331,-0.03679423940562166,1.6648118526094877,-0.5415747849789517
1.9777417330492453,10.688520473687834,-0.03597467174711604,1.6364047048238313,-0.5241578282086774
1.9702715787001854,10.347790192644883,-0.035169655386787985,1.6086455908233301,-0.5073949613262676
1.9629689376130899,10.012823966565868,-0.034379307347457005,1.5815089432625318,-0.49124936803050656
1.9558307239109634,9.683493624966179,-0.0336036802918433,1.5549705005440266,-0.4756870299588575
1.948853846384782,9.359675963912927,-0.032842772338454965,1.5290072237726506,-0.46067646754479546
1.9420352190592722,9.041252497319281,-0.0320965355235422,1.5035972199763536,-0.4461885088120399
1.9353717701039104,8.728109223761798,-0.031364883098950594,1.4787196710473032,-0.43219608270968807
1.9288691140887269,8.420137034157975,-0.030565174188512,1.4543488013700585,-0.416319660920734
1.9225321003128673,8.117230837319521,-0.0297873379625325,1.4304721209009303,-0.4011872111416893
1.9163561897579466,7.819288743642147,-0.029030857798615316,1.407071628407408,-0.38675492387432203
1.9103369531328083,7.526212555416755,-0.028295205297942588,1.3841301642153756,-0.37298205911980703
1.9044700728868054,7.237907595273505,-0.027579844663990008,1.36163136095842,-0.35983069727533373
1.8987513443751778,6.954282544609278,-0.026884236399128684,1.339559597748514,-0.34726551293454205
1.8931766763097446,6.675249291308926,-0.026207840414520407,1.3178999574929209,-0.3352535692441605
1.8877420906095046,6.4007227861259075,-0.02555011863538491,1.2966381871072499,-0.32376413073406446
1.8824437217496968,6.130620907137949,-0.02491053717230911,1.2757606603971128,-0.31276849277026997
1.8772778156940577,5.864864331739138,-0.024288568119490955,1.2552543434010937,-0.302239825984447
1.8722407284831069,5.603376415671395,-0.023683691032421402,1.2351067620059903,-0.2921530342130816
1.8673289245410207,5.346083078636283,-0.02309539413030208,1.2153059716617396,-0.2824846246376258
1.8625389747547976,5.092912696062779,-0.022523175262300115,1.1958405290382932,-0.27321258895658435
1.8578675543717582,4.843795996638342,-0.02196654267140849,1.1766994654801415,-0.26431629454386385
1.8533114407548263,4.598665965239661,-0.02142501558508559,1.1578722621263309,-0.255776384656891
1.8488675110293142,4.357457750926038,-0.020898124657885524,1.139348826574833,-0.24757468685476078
1.8445327396500097,4.120108579682768,-0.02038541228787131,1.1211194709801078,-0.2396941288725275
1.8403041959130901,3.8865576716242707,-0.019886432825649475,1.1031748914817685,-0.23211866127403505
1.8361790414337043,3.6567461623872823,-0.01940075269231167,1.0855061488705016,-0.2248331862735458
1.8321545276068738,3.4306170284633666,-0.018927950420360523,1.0681046504048863,-0.2178234921768794
1.8282279930666083,3.2081150162373966,-0.018467616629785678,1.0509621326995935,-0.21107619294668584
1.8243968611557517,2.989186574514715,-0.018019353949800566,1.0340706456116657,-0.20457867244461847
1.8206586374170146,2.7737797903344763,-0.01758277689531618,1.017422537057265,-0.19831903294620964
1.817010907113878,2.5618443278803333,-0.017157511705984622,1.0010104386964618,-0.19228604756277043
1.81345133278852,2.353331370312226,-0.016743196154566892,0.9848272524283858,-0.1864691162391489
1.809981111398554,2.148333460198806,-0.01630653136891843,0.9675337962708348,-0.20736920861781602
1.806599325128882,1.9469554471389046,-0.015900956913671483,0.9503520423948971,-0.23005784555281075
1.8032994738484804,1.7491741962962095,-0.015526198137772158,0.9332789180117278,-0.25442907673236315
1.8000751238721415,1.5549672057734867,-0.015181896874979062,0.9163114679189764,-0.28037969769715937
1.7969199246983445,1.364312582419526,-0.014867619065945567,0.8994468497378091,-0.30780902442264146
1.7938276242117517,1.1771890185964828,-0.014582861758747715,0.8826823295292735,-0.33661867436659565
1.790792082476202,0.9935757698295262,-0.014327059532200571,0.8660152777750884,-0.36671235311819167
1.787807284235155,0.813452633263573,-0.014099590382534386,0.8494431657101831,-0.39799564580212377
1.7848673502283898,0.6367999268543691,-0.013899781110466946,0.8329635619965297,-0.4303758124031456
1.7819665474263406,0.46359846922307923,-0.013726912242382443,0.8165741297300161,-0.46376158618205676
1.7790992982766913,0.29382956010512373,-0.013580222516183689,0.8002726237743385,-0.4980629743539906
1.776260189051755,0.1274749613249142,-0.013458912959398394,0.7840568884181575,-0.5331910601935084
1.7734439773796702,-0.035483121771171966,-0.01336215058426711,0.7679248553541063,-0.5690578057183001
1.7706455990375334,-0.19506205849132385,-0.013289071721796272,0.7518745419806834,-0.605575854083927
1.7678601740802642,-0.3512788106525093,-0.013238785014100703,0.7359040500306382,-0.6426583307956366
1.7650830123751988,-0.5041499501816062,-0.013210374081762217,0.7200115645322118,-0.680218642809389
1.7623096186091747,-0.6536916765343079,-0.013202899880369923,0.7041953531125577,-0.7181702745523101
1.759535696832161,-0.7999198340049958,-0.013215402757858628,0.688453765655892,-0.7564265798421994
1.7567571545993075,-0.9428499290037706,-0.013246904221697938,0.6727852343324635,-0.7949005686257464
1.7539701067716793,-1.0824971473806073,-0.013296408422378702,0.6571882740183441,-0.8335046873849102
1.7511708790348481,-1.2188763718812226,-0.013362903356965647,0.641661483130401,-0.8721505919795669
1.7483560111940277,-1.3520021998250158,-0.013445361793703611,0.6262035449056919,-0.9107489116009754
1.7455222603045357,-1.481888961101916,-0.013542741915745003,0.610813229160029,-0.9492090024037118
1.7426666036970908,-1.608550736593223,-0.013653987678969859,0.5954893945666779,-0.9874386892622228
1.7397862419588654,-1.7320013771305653,-0.013778028875555213,0.5802309915032382,-1.0253439939607207
1.7368786019333382,-1.8522545231183045,-0.013913780891370702,0.5650370655228161,-1.0628288479704007
1.7339413398048995,-1.969323624957255,-0.014060144141380185,0.5499067615148274,-1.09979478779451
1.7309723443379443,-2.0832219644226058,-0.014216003162956138,0.5348393286313459,-1.1361406306683242
1.7279697403448924,-2.193962677165935,-0.014380225342298632,0.5198341260670544,-1.1717621281864328
1.7249318924633397,-2.3015587765314294,-0.01455165924391909,0.5048906297948283,-1.2065515951931427
1.72185740932946,-2.406023178899268,-0.014729132507315678,0.4900084403750469,-1.2403975110130794
1.718745148243006,-2.5073687307960455,-0.014911449268435193,0.4751872919752308,-1.27318408981904
1.715594220428922,-2.6056082380430254,-0.015097387056173967,0.46042706275788337,-1.3047908166351494
1.7124039970119056,-2.7007544972485817,-0.015285693105889,0.4457277868188588,-1.3350919451600654
1.7091741158334228,-2.792820329992658,-0.01547508002251956,0.4310896678865967,-1.363955953275468
1.7059044892559536,-2.881818620098329,-0.015664220715281663,0.4165130950245511,-1.3912449517925574
1.702595313116902,-2.9677623544405307,-0.015851742513780485,0.40199866061546485,-1.4168140417044204
1.6992470770149946,-3.0506646678045968,-0.01603622036152922,0.38754718094706586,-1.440510614986422
1.695860576135505,-3.130538892379292,-0.016216168966942817,0.37315971976434664,-1.4621735938675473
1.6924369248477613,-3.207398612550918,-0.016390033773473988,0.35883761520354707,-1.4816326035530976
1.6889775723396885,-3.2812577257578113,-0.01655618058912309,0.3445825105763746,-1.4987070737168635
1.6854843205903467,-3.352130510268765,-0.01671288369032302,0.3303963895279634,-1.513205264850777
1.6819593450234276,-3.4200317008644348,-0.016858312185096435,0.31628161614505845,-1.5249232169843925
1.6784052182336908,-3.4849765735264313,-0.01699051438382585,0.3022409806358401,-1.533643620690294
1.6748249372359276,-3.5469810403723017,-0.01710739988058701,0.28827775122957716,-1.5391346141495332
1.6712219547545055,-3.6060617562097477,-0.017206718990099026,0.2743957329366062,-1.5411485160578289
1.6676002151540836,-3.6622362382108946,-0.01728603910915599,0.2605993337410173,-1.539420513324751
1.6639641957135176,-3.7155230003097586,-0.017342717467664682,0.24689363862912023,-1.5336673363435154
1.6603189540726617,-3.765941703975713,-0.01737386958810562,0.2332844915228063,-1.5235859752716068
1.6566701828472423,-3.8135133269675947,-0.017376332558744816,0.21977858459036873,-1.5088525214634578
1.653024272628596,-3.8582603514563942,-0.01734662190455534,0.20638355339822928,-1.4891212636223812
1.6493883848926232,-3.900206972408597,-0.017280880342803836,0.19310807471798608,-1.4640242352234423
1.6457705367845883,-3.93937932617726,-0.017174815924196323,0.17996196117406218,-1.4331715081854295
1.6421797004040966,-3.975805737595479,-0.017023625794771135,0.16695624280895377,-1.3961526717203552
1.6386259202221571,-4.009516981121784,-0.016821899747510097,0.15410321934632118,-1.352540144292824
1.6351204538444346,-4.040546547189862,-0.01656349432603848,0.14141645749248516,-1.3018952664508374
1.631675943868144,-4.068930898084027,-0.016241362591013192,0.12891069388048235,-1.243778543707645
1.6283066326938567,-4.0947096873837125,-0.015847315259344078,0.11660158516411412,-1.1777659801243061
1.6250286388936153,-4.117925902162554,-0.015371673314383596,0.10450522225343999,-1.1034741683137284
1.6218603248226509,-4.1386258669,-0.014802746409086163,0.09263729905558263,-1.0205976010553472
1.6188228033797865,-4.156859023291133,-0.01412602923724203,0.08101180943137211,-0.9289622504363375
1.6159406616338705,-4.172677376270279,-0.013322939771480177,0.06963917132238687,-0.8285990528378439
1.6132430277091274,-4.1861344898550925,-0.012368811892740274,0.058523815199652156,-0.7198378675103235
1.6107651880867087,-4.197283964800228,-0.011229660701722953,0.04766166046828153,-0.6034137630967172
1.6085511068656353,-4.206177508247777,-0.009856827118024051,0.037038753317895544,-0.480559461108406
1.606657510982053,-4.212863143824443,-0.008177419392285171,0.026633966459894846,-0.35303007798719843
1.6051611260277983,-4.217385073659834,-0.006073865886330248,0.016432031972373258,-0.22298064047115046
1.6041745949203878,-4.2197894053510225,-0.0033216684699587913,0.006466365086586538,-0.09262150668777039
