x,y,v_x,v_y,omega
2.375,32.48,0.0,2.1538461538461537,-7.63265306122449
2.3738789918812095,32.053370838171716,-0.01121008118790664,2.112445464436657,-7.271052608420213
2.3706427468894105,31.63489228359554,-0.02115236873008225,2.0723400813250787,-6.934221142219828
2.3655313218687697,31.224312818695502,-0.029961881476323754,2.033454567675306,-6.619863407073279
2.358759380185199,30.821395344425277,-0.037757535359387334,1.99572017502695,-6.32594548787003
2.3505191898497295,30.42591592512912,-0.044644367995306994,1.9590740179346056,-6.0506595694277845
2.3409832125571475,30.03766268568624,-0.05071540493050966,1.9234583764942237,-5.792394229980662
2.3303063486213325,29.656434837676002,-0.05605323442764089,1.8888201036081647,-5.549709270413089
2.3186278908336786,29.28204181546156,-0.06073134344889833,1.8551101185362318,-5.321314284806591
2.3060732308245093,28.914302506414792,-0.06481525664279433,1.8222829719314375,-5.1060503353226725
2.2927553539813,28.553044562179853,-0.06836351178929978,1.7902964704179747,-4.9028742171084945
2.278776152934699,28.19810378003593,-0.07142849867671112,1.759111351021254,-4.710844895228141
2.2642275847358935,27.84932354517928,-0.07405718331134298,1.7286909975452376,-4.5291117718139535
2.2491926928686925,27.5065543261832,-0.07629173536066547,1.6990011924155546,-4.356904502327486
2.233746511977448,27.16965321707688,-0.07817007355178225,1.6700098986476344,-4.193524128489662
2.217956870501921,26.838483520460304,-0.07972634120348958,1.6416870675181343,-4.038335334710319
2.2018851041794703,26.51291436688229,-0.08099132202101615,1.6140044682620323,-3.8907596667201263
2.1855866915152418,26.19282036638378,-0.08199280462126769,1.5869355367230469,-3.7502695771197767
2.169111820762969,25.878081288673506,-0.08275590290145882,1.5604552403796887,-3.616383183901421
2.1525058966475608,25.568581768878015,-0.08330333825262294,1.5345399575752323,-3.488659645591004
2.135809993952002,25.26421103620904,-0.08365568870296605,1.5091673691145346,-3.3666950712330617
2.119061264150069,24.964862663230825,-0.0838316093163643,1.4843163606675902,-3.2501188955635647
2.1023112080711335,24.67044615115279,-0.08366895147299223,1.4598487601127617,-3.1330625913436934
2.085604938376593,24.380874363094968,-0.08339374547241286,1.4358691204654839,-3.0213917659210074
2.0689637939451497,24.09605152756653,-0.08301769884201549,1.4123592348189042,-2.914793615764538
2.05240688102765,23.815885424349528,-0.08255143033298412,1.3893017973511,-2.812977033225327
2.0359512805547366,23.540287210121868,-0.08200457439615072,1.366680344925498,-2.715670852070603
2.0196122356260764,23.269171255288633,-0.08138587489045165,1.3444792034068653,-2.622622255262656
2.003403321213664,23.00245499112477,-0.08070326923366868,1.322683438231706,-2.533595328039799
1.9873365978847215,22.740058766419118,-0.07996396405575916,1.301278808824857,-2.4483697413361827
1.9714227511505378,22.481905712886622,-0.07917450328607933,1.2802517265000781,-2.3667395522997823
1.9556712178725193,22.227921618684363,-0.07834082949410366,1.259589215522523,-2.2885121101703914
1.9400903010024808,21.978034809427513,-0.07746833920628138,1.2392788770459828,-2.2135070570929067
1.9246872737981224,21.73217603615607,-0.07656193283730274,1.219308855668449,-2.1415554145917834
1.909468474534345,21.490278369751582,-0.07562605980047188,1.1996678083764434,-2.0724987474425203
1.8944393926245395,21.252277101346714,-0.07466475929758327,1.1803448756722246,-2.0061883975643076
1.879604746971542,21.018109648309608,-0.07368169723239097,1.1613296546988499,-1.9424847813406585
1.8649685572840673,20.78771546542007,-0.07268019964235659,1.1426121741965014,-1.8812567444657504
1.850534209019838,20.561035960886443,-0.07166328299993698,1.1241828711398139,-1.8223809690251507
1.8363045125502007,20.33801441688042,-0.07063368169643669,1.1060325689204222,-1.765741428060729
1.8222817570817842,20.11859591429319,-0.06959387298772685,1.0881524569518326,-1.7112288833496534
1.8084677598178773,19.902727261439487,-0.06854609965134281,1.0705340715851859,-1.65874042255394
1.7948639107949311,19.690356926457497,-0.06749239057811782,1.0531692782347288,-1.608179032276655
1.7814712137873032,19.48143497317193,-0.06643457949816058,1.0360502546209645,-1.559453203899173
1.7682903236354603,19.275913000205065,-0.06537432202026958,1.0191694750476543,-1.5124765693758353
1.755321580318886,19.07374408313668,-0.06431311114547383,1.0025196956362086,-1.467167564432179
1.7425650400644366,18.874882719528294,-0.06325229139902132,0.9860939404476167,-1.4234491168543792
1.730030094829473,18.679491260846504,-0.062097160950615,0.9678206463702773,-1.421427643864787
1.717722877010941,18.48774180542533,-0.060975017234701855,0.9496739078414648,-1.421750509706585
1.7056368075938972,18.299609402487924,-0.05988567693573523,0.9316501215325971,-1.4242770708409225
1.6937653553745209,18.11506980613977,-0.05882884525802903,0.9137458419489739,-1.4288704648668507
1.6821020583122184,17.93409944443293,-0.05780412536499647,0.895957775119385,-1.4353972928925927
1.6706405430685323,17.75667538963627,-0.0568110270718644,0.8782827728472555,-1.4437273122039262
1.6593745428769555,17.582775329601347,-0.05584897484390297,0.8607178275019663,-1.4537331379239293
1.648297913877778,17.412377540117895,-0.05491731514787243,0.8432600673325669,-1.46528995240023
1.6374046500429578,17.245460858155674,-0.054015323200331554,0.8259067522896094,-1.4782752210889074
1.6266888968076603,17.082004655892284,-0.05314220915264125,0.8086552703443258,-1.4925684137285733
1.6161449635175058,16.921988815428065,-0.052297123748904065,0.7915031342978691,-1.5080507296141226
1.6057673347936479,16.765393704090584,-0.05147916348967535,0.7744479790768981,-1.5246048257872964
1.5955506809115763,16.612200150231352,-0.05068737533103905,0.7574875595154344,-1.5421145469606141
1.5854898672839193,16.46238941941714,-0.04992076094553315,0.7406197486267082,-1.560464655982411
1.5755799631325247,16.3159431909172,-0.04917828056841271,0.7238425363726818,-1.5795405636336317
1.5658162494307009,16.172843534385617,-0.048458856449825775,0.7071540289431508,-1.5992280565216075
1.5561942261926556,16.03307288663522,-0.04776137593062597,0.6905524485608171,-1.6194130218022023
1.54670961918392,15.896614028395781,-0.047084694156728536,0.6740361338335789,-1.639981167419386
1.5373583861238362,15.763450060944368,-0.04642763644410971,0.657603540680544,-1.660817736500432
1.528136722449053,15.633564382489912,-0.04578900030372499,0.6412532438640218,-1.6818072144855853
1.519041066705405,15.506940664186903,-0.04516755713275288,0.6249839391660584,-1.7028330275033856
1.5100681056345673,15.383562825644791,-0.04456205357562658,0.6087944462550466,-1.7237772304272085
1.501214779021478,15.263415009789725,-0.04397121255526557,0.5926837122956347,-1.7445201829657306
1.4924782843687787,15.146481556923792,-0.04339373397172638,0.5766508163636999,-1.7649402120510131
1.4838560814653943,15.032746977813659,-0.042828295062118334,0.5606949747376235,-1.7849132586945404
1.4753458969179793,14.922195925625136,-0.04227355041203222,0.5448155471476188,-1.8043125073864652
1.4669457287162904,14.814813166502724,-0.04172813160485617,0.5290120440765135,-1.8230079960204173
1.45865385090669,14.710583548573247,-0.04119064649114621,0.5132841352182668,-1.840866204241126
1.4504688184520147,14.609491969129955,-0.0406596780556078,0.4976316592146647,-1.8577496180427813
1.4423894723610395,14.511523339727876,-0.040133782854143714,0.48205463480611127,-1.8735162684037483
1.4344149451768524,14.416662548892347,-0.03961148898772771,0.46655327354917164,-1.88801924174368
1.4265446669207362,14.324894422110294,-0.03909129357343518,0.4511279942713628,-1.9011061600541295
1.41877837159683,14.236203678737926,-0.03857165966562564,0.4357794394523124,-1.91261862871375
1.4111161043730884,14.15057488541877,-0.03805101257179026,0.4205084937392346,-1.9223916502960547
1.4035582295661466,14.06799240556257,-0.03752773549762838,0.40531630482275627,-1.930253003169375
1.3961054395719787,13.988440344388799,-0.037000164444051784,0.3902043069149631,-1.9360225844550412
1.3887587649011333,13.911902488989021,-0.03646658226440093,0.37517424708281305,-1.9395117180611432
1.3815195854974651,13.83836224281141,-0.0359252117722832,0.36022821469329963,-1.9405224301976616
1.3743896435434577,13.767802553920404,-0.035374207767788685,0.34536867421675127,-1.9388466972143343
1.3673710579846328,13.700205836338352,-0.03481164782046139,0.3305985016037888,-1.9342656740755122
1.3604663410417441,13.635553883739117,-0.034235521608424045,0.31592102438856023,-1.9265489166975038
1.3536784170248848,13.573827774744288,-0.03364371856016946,0.3013400655597202,-1.9154536182779276
1.3470106438216412,13.515007769082533,-0.03303401347226704,0.2868599910578165,-1.9007238894094407
1.340466837507135,13.459073193929779,-0.032404049672796004,0.2724857604697156,-1.8820901252490143
1.334051300624673,13.406002319877846,-0.031751319151822416,0.2582229800496174,-1.8592685217631113
1.327768854823093,13.355772226219432,-0.031073138863978188,0.2440779565345342,-1.831960829079533
1.3216248787277505,13.30835865564142,-0.03036662208944757,0.23005774924559033,-1.7998544659497167
1.3156253521922836,13.263735859062276,-0.029628643265221737,0.21617021654584967,-1.762623168874906
1.3097769084670745,13.221876432338913,-0.02885579398686818,0.2024240506877865,-1.7199284173002767
1.3040868963876135,13.182751148049395,-0.028044326807741382,0.18882879220739157,-1.671421968372921
1.2985634555230325,13.146328787724347,-0.027190081838068758,0.17539481104309423,-1.616749958054914
1.2932156084707485,13.112575982999527,-0.026288388684772165,0.16213323620511622,-1.5555591869252667
1.2880533763474455,13.08145707848712,-0.025333932548257443,0.14905580891895323,-1.4875064133157154
1.2830879263244448,13.052934035007521,-0.024320567681750872,0.1361746258770367,-1.412271719456974
1.2783317642529162,13.02696639936293,-0.023241053033535415,0.1235017305688771,-1.3295772727207231
1.2737989916994497,13.003511375856078,-0.022086672501130507,0.11104850449965056,-1.2392130024462897
1.269505656034312,12.982524044103911,-0.02084668415024511,0.09882481302201257,-1.14107069190366
1.2654702359607735,12.963957774229762,-0.019507516585140335,0.08683788571946638,-1.0351874254679367
1.2617143250899623,12.947764887396385,-0.018051592122970913,0.07509098261428872,-0.921797678154378
1.2582636064081676,12.933897583861011,-0.01645559469497641,0.06358205273946345,-0.801389785313513
1.2551492588790238,12.922309090384516,-0.014687880596460666,0.05230288202547666,-0.6747562981403361
1.252410027701424,12.912954830591485,-0.012704431179536377,0.0412397159048221,-0.5430189521294411
1.2500954013781345,12.905793142621707,-0.010441832053360486,0.030377163792936788,-0.4076003728341906
1.2482709702730534,12.900784517268683,-0.007802478997450249,0.019709089737313154,-0.2701125037541099
1.2470295048039046,12.89788676726361,-0.004612175694038156,0.0092684103133935,-0.13214364701933692
1.2465272661114577,12.897033965939595,-0.00041021123043078964,-0.000740397073226982,0.004966746742177425
