x,y,v_x,v_y,omega
2.375,32.48,0.0,2.1025641025641026,-4.326530612244898
2.3742951320656007,32.042679221658176,-0.006713027946661277,2.062395691167508,-4.118480973818636
2.372261553996759,31.613667604542666,-0.012654382232780335,2.023429233742132,-3.9248570692970826
2.3690526407746426,31.192719260883468,-0.017906696073092428,1.9856026106311897,-3.744324709328558
2.3648054280601705,30.77960086575795,-0.022542948826642643,1.948858295326125,-3.5756984313418716
2.359642507164496,30.374090741730004,-0.026627726370255227,1.9131428858923802,-3.4179223266644145
2.3536736747262146,29.975978035352213,-0.030218296851475503,1.8784066986580428,-3.270053673916072
2.3469973726759568,29.58506197351682,-0.03336553219859538,1.8446034140599756,-3.1312489172111757
2.3397019482787167,29.20115118956464,-0.03611470015607424,1.8116897664369778,-3.0007516123172433
2.3318667593103686,28.82406311062753,-0.0385061471615282,1.7796252710592928,-2.8778820313579083
2.3235631455321926,28.453623398964126,-0.040575888821097805,1.7483719828779094,-2.7620281707384056
2.3148552844090866,28.089665441106437,-0.04235612187515184,1.717894282433398,-2.652637950615812
2.3058009463434734,27.732029879511845,-0.04387566922592343,1.6881586851341481,-2.5492124296471133
2.2964521624653775,27.380564182145328,-0.04516036770832382,1.6591336707374382,-2.4512998876292245
2.286855816148643,27.035122246028592,-0.04623340673676691,1.6307895303743356,-2.35849065231587
2.2770541678492435,26.695564031307445,-0.04711562468608665,1.6030982288746811,-2.2704125661858936
2.267085321532131,26.36175522282417,-0.04782576881022279,1.576033280489846,-2.1867270050541183
2.2569836398262892,26.033566916551464,-0.04838072362636383,1.5495696363930485,-2.107125373797392
2.2467801140895647,25.71087532856022,-0.048795711961489525,1.5236835825711792,-2.031326015621793
2.236502694747744,25.393561524463923,-0.049084472246327115,1.4983526469173702,-1.9590714806269391
2.2261936818698556,25.08151556940622,-0.04909660278118067,1.4735135917274214,-1.8860753055919834
2.2158906203409696,24.77463168606218,-0.04902779273201991,1.449190059168194,-1.816572726899333
2.205609602474963,24.472803641354155,-0.04888666313470583,1.4253627475749016,-1.750353704300209
2.1953649977950276,24.175929156550367,-0.048681000483731716,1.4020132981754698,-1.6872232349321845
2.185169619523237,23.883909715431045,-0.04841784019998736,1.3791242362942415,-1.627000104376071
2.175034874477719,23.596650384332257,-0.04810354118589855,1.3566789170275535,-1.5695157555836579
2.164970898141413,23.314059643170964,-0.047743852493204536,1.3346614749847836,-1.5146132632169422
2.1549866764644974,23.03604922663573,-0.04734397300123212,1.3130567777317474,-1.4621464023987003
2.145090155785578,22.76253397479971,-0.04690860489323862,1.291850382611295,-1.411978802145649
2.1352883421014,22.493431692477337,-0.04644200162273791,1.2710284966493652,-1.3639831748654194
2.12558739077826,22.228663016704314,-0.04594801097859964,1.2505779392842111,-1.3180406142694945
2.1159926876780455,21.968151291772806,-0.045430113785348114,1.230486107682545,-1.2740399549051342
2.1065089225658253,21.711822451301046,-0.04489145871198383,1.2107409444294175,-1.2318771872563306
2.0971401555722764,21.45960490685905,-0.04433489360753108,1.1913309073991198,-1.191454923020795
2.08788987740149,21.211429442710717,-0.04376299373329297,1.17224494163262,-1.1526819057487345
2.078761063901442,20.96722911626765,-0.043178087219543276,1.1534724530632783,-1.115472562539838
2.0697562255494724,20.72693916388156,-0.0425822780373094,1.1350032839471018,-1.0797465929462018
2.060877452347506,20.4904969116311,-0.041977466743321555,1.1168276898667708,-1.0454285916283896
2.0521264545705664,20.257841690785106,-0.04136536922753653,1.098936318190314,-1.0124477016659046
2.0435045997665995,20.02891475764817,-0.04074753366738611,1.0813201878757583,-0.9807372957376803
2.035012946365109,19.803659217516355,-0.0401253558706173,1.0639706705224834,-0.9502346826676134
2.0266522742159587,19.582019952490754,-0.03950009316890885,1.0468794725784794,-0.9208808370788809
2.018423112347484,19.363943552914876,-0.03887287700704186,1.0300386186203563,-0.8926201501224801
2.0103257642042607,19.149378252218604,-0.038244724356990674,1.01344043562986,-0.8654001994432814
2.0023603305991493,18.938273864966792,-0.037616548072639436,0.9970775381969054,-0.8391715367236884
1.9945316390738317,18.730731842147556,-0.036942418835148115,0.9795131553196231,-0.8423078845907668
1.986842029733363,18.526865351533388,-0.036291955835981084,0.9620724695772529,-0.8477402546768957
1.9792864921456172,18.32664879124703,-0.035665544999694335,0.9447519141023023,-0.8553415262637919
1.9718599488731796,18.130057293051877,-0.03506343854732958,0.9275480687086969,-0.864988291156064
1.9645572824102007,17.93706669221882,-0.034485765861994276,0.9104576535108956,-0.8765605753760944
1.9573733599251495,17.747653498681267,-0.0339325435194446,0.8934775230372607,-0.8899415708481306
1.9503030559785786,17.56179486937682,-0.033403684543135775,0.8766046608146045,-0.9050173759857619
1.9433412733730189,17.379468581678893,-0.03289900693838575,0.8598361744037356,-0.9216767441366882
1.9364829622811273,17.200653007825295,-0.03241824155582042,0.8431692908686302,-0.9398108388713128
1.9297231377881061,17.025327090254308,-0.031961039330094115,0.8266013526645885,-0.9593129951274093
1.9230568959751688,16.853470317761516,-0.031526977935975246,0.810129813933426,-0.9800784852420649
1.916479428662368,16.68506270239288,-0.031115567900221613,0.7937522371964347,-1.002004288914348
1.9099860369214023,16.52008475699121,-0.03072625820421479,0.777466290438541,-1.024988866147703
1.9035721434620096,16.35851747331428,-0.030358441409049808,0.761269744579835,-1.0489319322198727
1.897233303989235,16.20034230064338,-0.03001145833165932,0.745160471333471,-1.0737342337200682
1.8909652176231666,16.04554112480092,-0.02968460229756494,0.729136441451878,-1.099297324677966
1.8847637364676606,15.89409624749501,-0.029377122992967776,0.713195723366315,-1.12552334178667
1.8786248744101095,15.745990365907598,-0.029088229936090802,0.6973364822280952,-1.152314777691712
1.872544815230401,15.601206552440498,-0.028817095584943275,0.6815569793633325,-1.1795742512801415
1.8665199200939053,15.459728234530875,-0.02856285809596696,0.6658555721568923,-1.2072042738573294
1.86054673450057,15.321539174443934,-0.028324623745320042,0.6502307143854,-1.2351070100438444
1.854621994760019,15.186623448945973,-0.028101469021831086,0.6346809570237538,-1.263184032160137
1.8487426340609492,15.054965428755239,-0.02789244239788419,0.6192049495546664,-1.291336066792289
1.8429057882020983,14.926549757661274,-0.027696565781648544,0.6038014418164124,-1.3194627321472217
1.8371088010516585,14.801361331195373,-0.027512835651109128,0.5884692864302704,-1.3474622647100587
1.8313492298022302,14.679385274725291,-0.027340223867256423,0.5732074418562322,-1.3752312336094255
1.8256248500893144,14.560606920836367,-0.027177678160514175,0.5580149761335169,-1.402664240978122
1.819933661042957,14.44501178584835,-0.02702412228098489,0.5428910713714138,-1.4296536064669279
1.8142738903445244,14.332585545302411,-0.026878455799326795,0.527835029066116,-1.456089033928753
1.8086439993637908,14.22331400823575,-0.026739553540992625,0.5128462763306725,-1.4818572581400922
1.8030426884556157,14.117183090041525,-0.026606264632101903,0.4979243731381277,-1.5068416692688162
1.7974689025005617,14.014178783689307,-0.026477411130318033,0.4830690206925328,-1.5309219126351645
1.7919218367799665,13.914287129055399,-0.026351786208682712,0.46828007105895897,-1.553973461151681
1.78640094328335,13.817494180082988,-0.026228151854332728,0.4535575382021016,-1.5758671576758214
1.7809059375547307,13.723785969458383,-0.026105236037279617,0.4389016106036597,-1.596468724377913
1.7754368061946484,13.633148470451594,-0.025981729296838927,0.4243126656514822,-1.6156382361343302
1.769993815146588,13.545567555526251,-0.025856280684687406,0.40979128601845977,-1.633229554926065
1.7645775189103583,13.461028951275324,-0.025727492993691377,0.3953382782760842,-1.6490897222918153
1.7591887708410383,13.379518189184655,-0.025593917190308183,0.38095469401599796,-1.6630583071028542
1.7538287347107664,13.30102055166589,-0.025454045955137297,0.3666418537817569,-1.6749667063658573
1.748498897732318,13.225521012734024,-0.02530630622056341,0.35240137414078226,-1.6846373975208673
1.743201085268716,13.15300417263295,-0.025149050575644743,0.3382351982503939,-1.6918831419277565
1.7379374774828094,13.083454185636459,-0.024980547385372427,0.324145630287621,-1.6965061411281337
1.7327106282158766,13.016854680174337,-0.024798969442557932,0.3101353741135545,-1.698297150316387
1.7275234864263918,12.953188670357896,-0.024602380933487114,0.29620757651919866,-1.697034557657594
1.722379420571184,12.892438457913123,-0.024388722449443918,0.2823658753357694,-1.6924834442233436
1.7172822463744832,12.834585523483522,-0.024155793709611146,0.26861445256517774,-1.6843946481890517
1.712236258510341,12.779610406255692,-0.02390123356793452,0.25495809246178713,-1.6725038696952863
1.7072462668276325,12.727492570914205,-0.023622496743574545,0.24140224412379913,-1.6565308710443805
1.70231763788496,12.678210261087674,-0.023316826519972224,0.2279530875574359,-1.636178852974568
1.697456342751813,12.63174033876276,-0.022981222367143533,0.2146176012512497,-1.6111341248491544
1.6926690122981265,12.588058109703365,-0.0226124010012996,0.20140362788584432,-1.5810662392098112
1.6879630015775167,12.547137135843283,-0.0222067487187929,0.18831993268637495,-1.545628835445733
1.683346465474107,12.508949037102262,-0.02176026178986859,0.1753762457995416,-1.5044615416121
1.6788284486306821,12.473463287360886,-0.021268470052272996,0.16258327554690272,-1.4571934283640164
1.6744189939681706,12.44064701276427,-0.020726336257362123,0.14995267299230847,-1.4034487072694348
1.6701292760985078,12.410464805554959,-0.020128119644188123,0.13749691947733414,-1.3428556301747008
1.6659717690269868,12.382878573785991,-0.019467185798868147,0.12522909736998503,-1.2750598836534677
1.661960462364241,12.357847457027994,-0.01873573479871089,0.11316249080142977,-1.1997441692679771
1.658111147789503,12.335327850711067,-0.017924404008318077,0.10130995031216194,-1.1166560505396799
1.6544418091926494,12.315273596124353,-0.01702167786647775,0.08968295051370091,-1.025646349516857
1.6509731679733193,12.297636405866001,-0.01601300041285634,0.0782902900420216,-0.9267199796492521
1.6477294627619532,12.282366596884238,-0.014879430171581486,0.06713646216524688,-0.8200993076789894
1.6447395861251095,12.2694141765576,-0.013595585417406773,0.05621992189796477,-0.7062956362594914
1.642038772331631,12.258730237345667,-0.01212645071095865,0.04553188012046112,-0.5861756390271203
1.6396711672898965,12.25026840665359,-0.010422168734131893,0.03505698361359614,-0.46099617420840666
1.6376939473052112,12.243985677098074,-0.008408497786680985,0.024778535962741273,-0.332366749501561
1.6361847432441952,12.239841039933278,-0.005964874222996578,0.01469419894009051,-0.20209464418537076
1.6352591287821259,12.23778727654907,-0.0028505016062332178,0.004865452338081017,-0.07188981079250431
