x,y,v_x,v_y,omega
2.375,32.48,0.0,2.051282051282051,-5.061224489795919
2.3743681417437963,32.093769610370394,-0.0066511395389868555,2.014300997450643,-4.840576306289495
2.372539717180747,31.714471474498943,-0.012595434808900841,1.9783109590908967,-4.633521215296793
2.3696424952069535,31.341921841316992,-0.01790163859945123,1.9432641270349085,-4.438927272568254
2.365791876775288,30.975945725637402,-0.02263118699702446,1.909116038013419,-4.2557773188090975
2.3610922016543405,30.616376303451222,-0.026839077434002732,1.8758252481568833,-4.083155410281367
2.3556378997147154,30.263054365332074,-0.030574627193631593,1.8433530478341664,-3.920235086144802
2.349514507699232,29.915827820695434,-0.033882130864089414,1.8116632114988744,-3.766269190902046
2.342799569227668,29.574551246757263,-0.03680143199447983,1.780721777323969,-3.620581018814337
2.3355634331359614,29.239085476942975,-0.03936842160242872,1.750496852300132,-3.4825565863583456
2.3278699630462603,28.90929722425066,-0.04161547407863643,1.7209584391978987,-3.3516378706662255
2.3197771692231903,28.58505873570047,-0.04357182932210156,1.6920782823830616,-3.227316877940479
2.3113377722263437,28.266247474528193,-0.04526392853943931,1.663829729956687,-3.1091304272345655
2.302599706566059,27.952745827224074,-0.046715709989874545,1.636187610086673,-2.9966555526535847
2.2936065714665324,27.644440832892062,-0.047948870005144036,1.609128119723989,-2.889505441675056
2.2843980349029223,27.341223932722432,-0.048983093822331146,1.5826287241668597,-2.78732583948516
2.275010196279605,27.04299073764131,-0.04983626010732535,1.556668066160742,-2.6897918594218493
2.2654759124325605,26.74964081243214,-0.05052462249313855,1.5312258834094359,-2.5966051481732153
2.2558250910515145,26.46107747482292,-0.05106297099155698,1.5062829335297756,-2.5074913615869736
2.246084955111715,26.17720760820421,-0.05146477574317724,1.481820925614511,-2.42219791303848
2.2362833155162827,25.897946590251706,-0.05171037789295117,1.4577687370434318,-2.3379507727577074
2.226444105518922,25.62321284021684,-0.05186025365821549,1.4341654738498817,-2.2574201443575412
2.2165846672443354,25.352922565263068,-0.05192330712690312,1.4109953151371968,-2.180398788428162
2.2067207252322616,25.08699490971116,-0.051907661421245734,1.3882431643565862,-2.106693232221166
2.196866528025701,24.825351821493097,-0.051820730226758815,1.3658946063598392,-2.0361227056777205
2.1870349768379307,24.56791792646814,-0.05166928227608521,1.3439358675870756,-1.9685181711763666
2.1772377425653424,24.314620410031594,-0.05145949954063222,1.3223537791134437,-1.9037214377176006
2.1674853722784313,24.065388905496622,-0.051197029795277064,1.301135742307305,-1.8415843512859378
2.1577873862041144,23.820155388774047,-0.05088703414489913,1.280269696877673,-1.7819680540290137
2.1481523661070643,23.578854078915132,-0.05053423003457606,1.2597440911109248,-1.7247423056841422
2.138588035884149,23.341421344118526,-0.05014293020664057,1.2395478541165,-1.6697848613798327
2.1291013351029675,23.107795612835176,-0.04971707801631925,1.2196703699187523,-1.6169809005552855
2.119698486141538,22.87791728963437,-0.04926027947240966,1.2001014532476277,-1.566222502285277
2.110385055520349,22.651728675520857,-0.04877583232958416,1.1808313268946453,-1.5174081627801366
2.1011660099592833,22.429173892417133,-0.04826675252373829,1.1618506005129707,-1.47044235125845
2.092045767639509,22.21019881154702,-0.047735798210728965,1.143150250751375,-1.425235100770402
2.083028245103561,21.994750985476575,-0.047185491641355055,1.1247216026217237,-1.3817016308881196
2.0741169001849302,21.782779583586706,-0.04661813908107526,1.1065563120084756,-1.339761999480986
2.0653147713209,21.574235330768424,-0.04603584896134754,1.0886463492366147,-1.2993407810631024
2.0566245135686954,21.369070449146896,-0.04544054843027792,1.0709839836215806,-1.2603667694406266
2.048048431614766,21.16723860265438,-0.044833998453192456,1.0535617689312087,-1.2227727026019826
2.039588510039851,20.96869484428484,-0.04421780759854187,1.036372529695507,-1.1864950079868024
2.031246441078045,20.773395565874758,-0.043593444630993954,1.0194093483053588,-1.1514735664424716
2.0230236500860608,20.58129845026538,-0.042962250021471124,1.0026655528460025,-1.1176514933325334
2.0149213189190784,20.39236242571154,-0.04232544647308175,0.9861347056154653,-1.0849749354009295
2.0069440758245785,20.206770708279425,-0.041645533469025935,0.9674623199857317,-1.0992885398338887
1.9990933743091701,20.024715667572625,-0.04099342985105838,0.9489065295595371,-1.1154063881489908
1.991363961542984,19.84617544584981,-0.040368809793008276,0.9304642254174635,-1.1332052347969344
1.9837506550703383,19.671128763608976,-0.03977125834010351,0.9121324297491888,-1.152564342825623
1.9762483590366953,19.499554895079758,-0.039200278856139324,0.8939082916110316,-1.173365217425565
1.9688520790584552,19.3314336444785,-0.038655299862177514,0.8757890831390538,-1.1954913442510537
1.9615569358474723,19.166745322940365,-0.03813568130606393,0.8577721962097531,-1.2188279314319979
1.9543581776950476,19.005470726043804,-0.03764072029840609,0.8398551395435104,-1.2432616541930683
1.9472511919137163,18.8475911118435,-0.0371696563471846,0.8220355362491804,-1.2686804009908637
1.9402315153293477,18.69308817932773,-0.03672167611985348,0.8043111218115491,-1.2949730200659348
1.933294843910896,18.541944047215576,-0.03629591775858809,0.7866797425268959,-1.3220290652845246
1.9264370416205623,18.394141233007936,-0.035891474771238684,0.7691393543956072,-1.349738540114469
1.9196541485631307,18.249662632204302,-0.035507399517515095,0.7516880224847755,-1.3779916385405633
1.9129423885098076,18.108491497594336,-0.03514270630693761,0.7343239207780138,-1.406678481676389
1.9062981758690478,17.970611418529657,-0.03479637412211228,0.7170453325343982,-1.4356888487717316
1.899718122174547,17.83600630007645,-0.034467348977897785,0.6998506511835882,-1.464911901246794
1.8931990421588671,17.70466034194397,-0.0341545459239953,0.6827383817898404,-1.4942358983060104
1.8867379594800262,17.576558017077165,-0.03385685069538096,0.6657071431239217,-1.5235479025949117
1.880332112167846,17.451684049793442,-0.0335731210117793,0.6487556703889418,-1.5527334742628638
1.8739789578569463,17.330023393334365,-0.033302187524007966,0.6318828186539648,-1.5816763516823569
1.8676761788740257,17.211561206691727,-0.033042854401470506,0.6150875670580637,-1.6102581169518912
1.8614216872485136,17.096282830554756,-0.03279389955128997,0.5983690238573754,-1.6383578441747573
1.8552136297178672,16.984173762210418,-0.03255407445551427,0.5817264323988561,-1.6658517283610754
1.8490503928017925,16.87521962921141,-0.03232210360842844,0.5651591781169778,-1.6926126926470586
1.8429306080235262,16.769406161607243,-0.03209668353121854,0.5486667966637324,-1.7185099713664609
1.8368531573611429,16.666719162510862,-0.03187648133597413,0.532248983298177,-1.7434086663490955
1.8308171790177306,16.567144476747977,-0.03166013280520864,0.515905603679538,-1.7671692736669609
1.8248220736063065,16.470667957306787,-0.03144623994662029,0.49963670622773493,-1.7896471779100005
1.8188675108536967,16.377275429272622,-0.031233367975589867,0.4834425362371825,-1.810692110965512
1.8129534369373874,16.28695265089447,-0.031020041669769145,0.46732355195388664,-1.8301475722187595
1.8070800825808273,16.199685271387906,-0.030804741030865116,0.45128044285205,-1.8478502071174683
1.801247972045973,16.115458785031407,-0.0305858961781282,0.43531415037426335,-1.8636291411921215
1.7954579331774017,16.034258481060174,-0.03036188138578018,0.4194258914281782,-1.8773052669573504
1.7897111086703412,15.956069388803197,-0.030131008162224665,0.40361718496104676,-1.8886904817217844
1.7840089687560141,15.880876217445739,-0.02989151725174491,0.38788988195958124,-1.897586875323373
1.7783533255223298,15.808663289731506,-0.029641569418616304,0.37224619924286284,-1.9037858683515276
1.7727463491170163,15.739414468848032,-0.029379234847840233,0.35668875742529427,-1.9070673037514172
1.7671905861148813,15.673113077668027,-0.029102480964108123,0.3412206234168538,-1.907198498159792
1.7616889803726097,15.609741809453652,-0.028809158428224093,0.32584535778709606,-1.903933264360945
1.7562448967456332,15.549282629077087,-0.028496985013634565,0.3105670672293866,-1.8970109235308636
1.7508621481054631,15.491716663781684,-0.028163526988155625,0.2953904621959083,-1.8861553363802663
1.7455450261774763,15.437024082521294,-0.02780617751696911,0.28032091949242,-1.871073997213103
1.7402983368259801,15.385183962998696,-0.02742213144615031,0.2653645491665024,-1.851457256115042
1.7351274405569916,15.336174145718463,-0.027008355595832555,0.2505282643096215,-1.8269777645411527
1.7300382992072885,15.28997107473554,-0.02656155334841193,0.23581985130009028,-1.7972902820592938
1.725037530068518,15.246549625407066,-0.02607812179654276,0.22124803636804796,-1.7620320418616287
1.7201324691006483,15.2058829204693,-0.02555409891787302,0.2068225419242346,-1.7208239565805494
1.715331245487484,15.167942137345474,-0.02498509701017177,0.1925541225370903,-1.6732730627737407
1.7106428706848251,15.132696311995932,-0.02436621670202703,0.17845456535282156,-1.61897676326055
1.706077346476526,15.100112148185499,-0.023691932859017092,0.16453663265173732,-1.5575296439105906
1.7016457986475801,15.070153846188198,-0.022955939024621747,0.15081391468826152,-1.4885339268339906
1.6973606461152126,15.042782972148657,-0.022150929737141403,0.1373005488858474,-1.4116149776951021
1.6932358203589093,15.01795839896149,-0.02126828875026184,0.12401074782119918,-1.326443687229583
1.68928705771572,14.99563636157567,-0.020297633809627524,0.11095806676636855,-1.2327679089733259
1.6855322989889892,14.9757706828483,-0.019226142261222882,0.09815434089016399,-1.130455235842994
1.6819922489804595,14.958313236505255,-0.018037542039087733,0.08560825219453243,-1.019548763798638
1.6786911762589054,14.943214712007585,-0.016710591872010627,0.07332358462303643,-0.9003352395135921
1.6756580764859974,14.9304257131542,-0.015216774158597707,0.06129745593890336,-0.7734197605028583
1.672928394271315,14.919898124444398,-0.013516722838061816,0.04951926732216003,-0.6397915613253259
1.6705466392636374,14.911586463139297,-0.011554382505912088,0.03797190431049035,-0.5008515208940079
1.6685705872006995,14.905448508349725,-0.009246165525011625,0.0266381461060693,-0.3583587283614618
1.667078936164493,14.901443569080072,-0.00645542432979394,0.01551910936394009,-0.2142519533443914
1.6661898544026603,14.899523384343563,-0.002903331057918484,0.004693361546670088,-0.07032999288554603
