x,y,v_x,v_y,omega
2.375,32.48,0.0,2.6153846153846154,-7.020408163265306
2.3738190181043923,31.98819650584973,-0.012431388374818624,2.5614942704076693,-6.647214971646968
2.3704231785343803,31.506454959661287,-0.023314291309516268,2.5094693736811915,-6.3031719146738165
2.365089290836969,31.034431661184737,-0.032831894979026006,2.459196926071966,-5.985258171493873
2.3580616298107704,30.57180341287586,-0.04114348424411762,2.4105741087583468,-5.6908309143560505
2.349556141327319,30.118265707323964,-0.04838797347642456,2.3635070023142344,-5.417570220327116
2.339764033793466,29.67353113842377,-0.054686842669393096,2.3179095124246305,-5.163433183725246
2.32885485739344,29.237328000795856,-0.06014659312035442,2.273702462606045,-4.926615486587686
2.3169791539007414,28.809399048673633,-0.06486081206594643,2.2308128228910413,-4.7055190551702095
2.304270744655996,28.38950039075077,-0.06891191682611496,2.1891730499812354,-4.498724713578544
2.290848712267886,27.977400501659474,-0.07237263462767138,2.1487205194008063,-4.304968963864186
2.276819121976198,27.57287933407946,-0.07530726317956624,2.109397034073012,-4.123124191602332
2.262276520873388,27.17572751814904,-0.07777274842896577,2.07114839677353,-3.952181728972131
2.2473052469044856,26.785745637007803,-0.07981960913842545,2.033924036292096,-3.791237312392708
2.2319805744441554,26.40274356905404,-0.08149273254926391,1.997676679010695,-3.6394785552947058
2.2163697190466682,26.026539888933797,-0.08283206110849328,1.9623620590971327,-3.4961741234641557
2.2005327204960636,25.65696132045773,-0.08387318679260868,1.9279386617035754,-3.3606643542359884
2.184523220406919,25.29384223561683,-0.0846478667773333,1.894367494516424,-3.232353104419749
2.1683891482289464,24.93702419467897,-0.08518447193816758,1.8616118837768552,-3.1107006473439074
2.152173327502399,24.586355523025837,-0.08550837781496792,1.8296372915192367,-2.9952174684571284
2.135914012525558,24.241690920959222,-0.08564230615177741,1.7984111512872731,-2.8854588328087014
2.1196453641738624,23.902891103186125,-0.08560662386607033,1.7679027200084612,-2.7810200174518536
2.103397872407009,23.569822465100152,-0.08541960525870201,1.7380829440544034,-2.6815321181656926
2.0871987319787593,23.242356773323788,-0.08509766240708397,1.708924337802056,-2.5866583535026835
2.071072176994118,22.920370878273808,-0.08465554795755845,1.680400873250369,-2.496090800540057
2.055039779215452,22.60374644676756,-0.08410653392313903,1.6524878794469888,-2.409547506247046
2.0391207143827277,22.292369712908545,-0.08346256957921924,1.6251619506478687,-2.326769926398855
2.023332000266686,21.98613124568092,-0.08273442111595943,1.5984008622745256,-2.247520650734567
2.0076887097035234,21.684925731848722,-0.08193179533838432,1.5721834938538792,-2.171581378782508
1.9922041614540633,21.388651772900957,-0.08106344939277298,1.5464897582278583,-2.098751115636587
1.976890091379739,21.09721169491062,-0.08013728823169441,1.5213005364072636,-2.028844561103032
1.9617568061239785,20.810511370287603,-0.07916045130262493,1.4965976175192177,-1.9616906691658165
1.9468245702070162,20.528466339698255,-0.07802097940224367,1.4722974413160286,-1.8931460385048324
1.9321105965045706,20.250995026530124,-0.07686295430770822,1.4484532236116665,-1.8276353913779426
1.9176180247347334,19.97801231995637,-0.07569043274320889,1.4250489508489061,-1.7649891407656613
1.9033492653286888,19.70943608287927,-0.07450703468883942,1.402069334173157,-1.7050489807050329
1.8893060782309306,19.445187018218405,-0.07331598739282724,1.379499767520187,-1.6476670152668909
1.8754896437716075,19.185188542883054,-0.07212016481057361,1.3573262886413828,-1.5927049639061768
1.8619006264321558,18.929366668894048,-0.07092212297312848,1.3355355428218845,-1.5400334356940606
1.8485392322354737,18.67764989116425,-0.0697241317287886,1.3141147490706884,-1.4895312657532014
1.835405260412492,18.429969081487158,-0.06852820324996595,1.2930516685829134,-1.4410849079334536
1.8224981499267736,18.186257388318925,-0.06733611765233397,1.272334575293218,-1.3945878783971741
1.8098170213766034,17.946450141972235,-0.06614944603366801,1.251952228356124,-1.3499402453417777
1.7973607147389272,17.710484764870024,-0.06496957120502744,1.231893846403983,-1.3070481605815836
1.7851278233705965,17.478300686534205,-0.06379770635634908,1.2121490834467465,-1.265823429149304
1.7731167246389414,17.249839263009243,-0.06263491187159868,1.1927080062897337,-1.2261831134666625
1.761325607515075,17.025043700442858,-0.06148211048489087,1.1735610733564115,-1.1880491689795922
1.7497524974289467,16.80385898256677,-0.0603401009480377,1.154699114812937,-1.151348108461459
1.7383952786545431,16.58623180183904,-0.05920957036147277,1.1361133138999906,-1.116010692462311
1.7272517144663118,16.372110494026934,-0.058091105304120164,1.1177951893853488,-1.081971643627222
1.7163194652835094,16.161444976024832,-0.05698520188327333,1.09973657905782,-1.049169382825795
1.705596104997393,15.954186686716323,-0.055892274812690795,1.0819296241896479,-1.0175457852308691
1.6950791356566952,15.750288530702772,-0.05481266561570445,1.0643667549003757,-0.9870459546600132
1.6847660006694034,15.549704824732988,-0.05374665003999969,1.0470406763605051,-0.9576180146508476
1.6746540966632404,15.352391246679815,-0.05269444476171361,1.0299443557781431,-0.9292129148826049
1.6647407841332726,15.15830478691985,-0.051656213448475624,1.0130710101162501,-0.9017842516834181
1.6550233969924997,14.967403701982054,-0.05063207224386925,0.9964140944921337,-0.8752881014771804
1.6455078690214044,14.779859916182641,-0.049531380083449345,0.9777310191858847,-0.894060792818094
1.636196976649189,14.595854966048055,-0.04847801330829227,0.9591631927571092,-0.9145973467144358
1.6270818439113528,14.415367246413492,-0.047470752353141014,0.9407075402382746,-0.9367761886306392
1.618153830878569,14.238375724175395,-0.04650833220248019,0.9223611148995867,-0.9604783428424889
1.6094045417927803,14.064859914336314,-0.04558944764792625,0.9041210939328438,-0.9855871619446948
1.600825832250788,13.894799856826772,-0.044712758057255234,0.8859847745886269,-1.0119880619812496
1.5924098155249786,13.728176094018924,-0.043876891688108405,0.8679495707571478,-1.039568262067614
1.5841488681048683,13.564969648848304,-0.043080449576207956,0.850013009986223,-1.068216527382493
1.5760356345377673,13.405162003460973,-0.04232200902485758,0.832172730933043,-1.0978229144074292
1.5680630316420463,13.24873507830361,-0.04160012671957223,0.8144264812497146,-1.1282785172845318
1.560224252162246,13.09567121157382,-0.040913341488852964,0.7967721159059923,-1.159475214146192
1.5525127679315145,12.945953138946905,-0.040260176729372876,0.7792075959562539,-1.1913054122453501
1.5449223326036654,12.799563973493704,-0.039639142511143886,0.7617309877616443,-1.223661790680448
1.5374469840144278,12.656487185701511,-0.03904873737556765,0.7443404626824749,-1.2564370394652002
1.5300810462292709,12.51670658350693,-0.03848744983661105,0.7270342972604888,-1.2895235936393157
1.52281913133349,12.380206292245209,-0.03795375959266162,0.7098108739155464,-1.3228133610517387
1.5156561410190683,12.246970734415491,-0.03744613845388289,0.6926686821867342,-1.3561974423723422
1.5085872680221772,12.116984609155129,-0.03696305098707452,0.6756063205539411,-1.3895658418006884
1.5016079974650793,11.990232871308649,-0.03650295487711528,0.6586224988826772,-1.4228071668409497
1.4947141081566588,11.866700709968264,-0.036064301000994954,0.6417160415424386,-1.4558083153998447
1.4879016739068818,11.74637352635228,-0.03564553320718501,0.6248858912573876,-1.4884541483391593
1.4811670649121855,11.62923691087585,-0.03524508778961839,0.608131113757642,-1.5206271454759615
1.4745069492712009,11.515276619254404,-0.03486139264179782,0.5914509033102191,-1.5522070428722454
1.4679182946933444,11.404478547463956,-0.0344928660724803,0.5748445892208333,-1.5830704490922813
1.4613983704667652,11.296828705363886,-0.034137915259933954,0.5583116434114717,-1.6130904379320772
1.4549447497569692,11.192313188766349,-0.03379493431686624,0.541851689194193,-1.6421361149440035
1.44855531231326,11.090918149711886,-0.03346230193270338,0.5254645113790877,-1.6700721548954605
1.4422282476670354,10.992629764682839,-0.033138378553870404,0.5091500678740281,-1.6967583071207288
1.4359620589141004,10.897434200453997,-0.03282150305597213,0.4929085029558858,-1.722048865560645
1.429755567182636,10.805317577243532,-0.032509988854179155,0.47674016241744077,-1.7457921001513925
1.4236079168994848,10.716265928785852,-0.03220211938951766,0.46064561082128863,-1.7678296461445397
1.417518581980181,10.630265158901281,-0.031896142918943556,0.4446256511215533,-1.7879958479486213
1.411487373082932,10.547300994084885,-0.0315902665257819,0.4286813469457625,-1.806117054225323
1.4055144460838553,10.46735893157814,-0.03128264925397305,0.4128140478620693,-1.8220108613179173
1.3996003119505893,10.39042418232222,-0.030971394254091685,0.3970254179897071,-1.8354853027313047
1.393745848214444,10.316481608120824,-0.030654539810595946,0.3813174683407964,-1.846337983456759
1.3879523122682023,10.24551565226442,-0.030330049097211136,0.365692593305584,-1.85435515963114
1.3822213567484363,10.177510262788424,-0.02999579847927287,0.35015361170491544,-1.859310766610011
1.3765550472990329,10.112448807458176,-0.029649564146027093,0.3347038128240124,-1.8609654023991473
1.3709558830583104,10.050313979499236,-0.029289006808944508,0.3193470077964109,-1.859065279071062
1.3654268202682658,9.991087693031101,-0.02891165413889285,0.3040875866050245,-1.853341163060412
1.3599712994749553,9.934750967129805,-0.028514880527532684,0.2889305807770274,-1.8435073371738182
1.354593276879601,9.881283797461261,-0.02809588363409255,0.2738817315234416,-1.829260634310447
1.3492972605195375,9.830665014524918,-0.02765165699815479,0.2589475625433361,-1.8102796174571367
1.3440883521202376,9.782872127775232,-0.027178957731318242,0.24413545587440927,-1.786224015583657
1.3389722956855896,9.7378811553187,-0.02667426789655515,0.22945372787855528,-1.756734574951814
1.3339555342166718,9.695666439623544,-0.026133747565736627,0.214911700491515,-1.7214335560793956
1.3290452764219818,9.656200450882128,-0.025553176588894645,0.20051975994444002,-1.6799262063616789
1.3242495759875703,9.619453581553508,-0.024927880615437728,0.18628939088313656,-1.6318036779764888
1.319577427045564,9.585393938491901,-0.02425263456357663,0.17223316766007413,-1.5766480537095775
1.3150388811228395,9.553987143346134,-0.02352153304404918,0.15836467597958698,-1.5140404048421527
1.3106451933973609,9.525196158105249,-0.022727811434673267,0.14469832655605108,-1.4435731478236664
1.306409010053248,9.498981161318127,-0.02186359218756797,0.13124900804524556,-1.3648683892726037
1.3023446147036024,9.475299512025412,-0.02091951675607021,0.11803151082543935,-1.2776044124719717
1.2984682614529777,9.454105852550754,-0.0198842016715595,0.10505964153937411,-1.1815528320990056
1.2947986370056965,9.435352415990078,-0.01874342408929394,0.09234495383614473,-1.0766289050328175
1.2913575169788005,9.41898961357381,-0.01747889198329613,0.07989507159826571,-0.962956357003531
1.288170716479748,9.404966967436508,-0.016066376427782,0.06771172984700932,-0.8409446488831487
1.285269490140809,9.393234398994412,-0.014472848192627619,0.05578899059611371,-0.7113691176661557
1.2826926332103434,9.383743736386258,-0.012651961601747775,0.04411272106867397,-0.575431484071047
1.2804897433548688,9.37644999420002,-0.01053635266640682,0.032663512470684684,-0.43476146627685686
1.2787266962853228,9.371311358965674,-0.008022037539339472,0.021427384732946322,-0.291308310646223
1.2774966717760072,9.368285237663173,-0.004925588874507688,0.010426523714427208,-0.14707887972289158
1.2769543140760025,9.367309235659306,-0.0007834395465940169,-0.00015281841057141268,-0.0037710135083856844
