x,y,v_x,v_y,omega
2.375,32.48,0.0,2.5128205128205128,-3.4693877551020407
2.374143147234899,31.908613283058372,-0.007450893609571989,2.455759634497973,-3.2588440911842786
2.371694012799999,31.350099114392997,-0.013845927563473259,2.4008853104183343,-3.067240912949085
2.367879077436448,30.80397020429742,-0.019327423423924173,2.3480617338910035,-2.8923549898726275
2.362894480018366,30.269769158724397,-0.02401690195070253,2.297164749352678,-2.7322726908492365
2.3569104165720898,29.7470659525276,-0.02801843236474582,2.2480805219238484,-2.585340811428563
2.3500748372492426,29.235455686202453,-0.03142138783392419,2.2007044026426392,-2.4501261341061644
2.3425165645251824,28.73455658521126,-0.03430272281007648,2.1549399538025047,-2.3253820076000413
2.334347932138657,28.244008208282857,-0.03672886315970999,2.1106981064444663,-2.2100206000058282
2.3256670255472667,27.76346983684112,-0.03875728111324944,2.0678964278315135,-2.1030897630761975
2.31655958978898,27.292619022307882,-0.040437812437070474,2.0264584811531665,-2.0037536626749004
2.3071006587465286,26.83115027171617,-0.04181376184511582,1.9863132631226108,-1.9112764997063085
2.2973559502548087,26.378773855061183,-0.0429228337350577,1.9473947077903095,-1.8250087782357924
2.28738306377273,25.935214720261353,-0.04379791828301948,1.909641246990803,-1.744375681764705
2.277232511077028,25.500211503615034,-0.0444677573317772,1.8729954194989227,-1.6688672011785182
2.266948605329628,25.073515625308364,-0.04495751003691876,1.8374035222982184,-1.598029723619876
2.2565702296908503,24.65489046092427,-0.04528923464810651,1.802815298433031,-1.531458844145879
2.2461315032166227,24.244110581074445,-0.04548229991039243,1.7691836567828279,-1.4687932043345908
2.235662358945645,23.84096105226672,-0.04555373722854568,1.736464419806103,-1.4097091961814203
2.2251890467385556,23.44523679296234,-0.04551854283309983,1.7046160958841425,-1.3539163973526482
2.2147345714850117,23.05674197949724,-0.04538993763250076,1.6735996733776175,-1.301153626449481
2.2043190756735984,22.675289497159053,-0.04517959116239519,1.6433784339109458,-1.2511855254059119
2.1939601739653445,22.300700432244646,-0.044897814996334495,1.6139177827360518,-1.2037995913032375
2.1836732462771007,21.932803601384276,-0.04455373011882883,1.5851850943106633,-1.1588035923704563
2.173471694927985,21.571435114819934,-0.04415541204739649,1.557149571466224,-1.1160233132590451
2.163367170599321,21.2164379706757,-0.04371001689750851,1.5297821167445222,-1.0753005832364484
2.1533697711806385,20.86766167756459,-0.04322389109103473,1.5030552146564071,-1.0364915480584147
2.1434882170004985,20.524961903146078,-0.04270266699713774,1.4769428237654394,-0.999465152216127
2.13374804414132,20.188202415296857,-0.041994488300064914,1.4514005488364898,-0.9599505620407709
2.124171887085551,19.85725235648397,-0.04127644261966901,1.4264260495364502,-0.9224463716523996
2.1147616684271475,19.531983700608773,-0.040551545714272455,1.4019970450304609,-0.8868244314747636
2.1055186611273706,19.212273416083853,-0.03982243080552665,1.3780923856210152,-0.8529663060660069
2.0964435713358403,18.89800321395208,-0.039091393468651765,1.3546919807422446,-0.8207624221390322
2.0875366115082965,18.589059311937454,-0.03836043111868354,1.3317767324284218,-0.7901113011803044
2.0787975649851678,18.285332213224482,-0.03763127777808814,1.309328473771322,-0.7609188673063485
2.070225843048022,17.98671649886879,-0.03690543471883468,1.2873299119303432,-0.7330978221371964
2.061820535343667,17.69311063283697,-0.03618419749294623,1.2657645753028934,-0.7065670794547052
2.053580454455245,17.404416778759494,-0.0354686797976785,1.2446167645012438,-0.6812512532727437
2.0455041753037535,17.12054062755796,-0.034759834563118534,1.2238715068164265,-0.6570801936940883
2.037590069980025,16.84139123517783,-0.03405847259973833,1.2035145138803718,-0.6339885655810558
2.029836338534545,16.566880869721135,-0.03336527910008878,1.1835321422647895,-0.6119154656366674
2.022241036189127,16.29692486733102,-0.03268082825137101,1.1639113567796926,-0.5908040739917446
2.0148020973791483,16.031441496231878,-0.03200559618322375,1.1446396962563015,-0.5706013368303892
2.007517356986673,15.77035182837626,-0.03133997244699626,1.1257052416186364,-0.5512576769700286
2.00038456908245,15.513579618192566,-0.030684270198422743,1.1070965860656754,-0.5327267296496324
1.993401423457669,15.26105118796681,-0.030038735234457173,1.0888028072017537,-0.5149651010768811
1.9865655601937948,15.012695319427394,-0.029403554016621522,1.070813440967098,-0.49793214754717996
1.9798745824902066,14.76844315113436,-0.028778860797188485,1.0531184572332117,-0.4815897731789374
1.9733260679442182,14.528228081304508,-0.028164743950537363,1.0357082369394044,-0.4659022445143249
1.9669175784559279,14.2919856757309,-0.027561251599812406,1.0185735506572122,-0.4508360204161436
1.9606466689108406,14.05965358048024,-0.026968396618338834,1.001705538478936,-0.436359595852334
1.954510894776002,13.831171439074627,-0.026386161075909274,0.985095691135094,-0.422443358302576
1.948512627311774,13.606591823702132,-0.025772686439116874,0.967770529495279,-0.42847256498364816
1.942652324409032,13.385982213096167,-0.02518646923690071,0.9505739105565991,-0.43689816070191095
1.936923669015691,13.169313486640533,-0.02462792548780411,0.9335019716662957,-0.447588978055545
1.9313202654491752,12.956557393704554,-0.024097322916680687,0.9165510103857155,-0.4604181030542017
1.9258356720274095,12.747686517669372,-0.023594793794326663,0.8997174768767314,-0.47526256752096874
1.9204634308650603,12.542674241639816,-0.02312034674783865,0.882997966858539,-0.4920030540889279
1.915197095062827,12.341494715714159,-0.02267387761940739,0.8663892151036892,-0.5105236125257082
1.9100302535004408,12.144122825690982,-0.022255179444820795,0.8498880894456663,-0.5307113861758564
1.9049565534283313,11.950534163098265,-0.02186395161700163,0.8334915852736151,-0.5524563473585955
1.8999697210385207,11.76070499643511,-0.021499808294395226,0.8171968204929709,-0.5756510405979478
1.8950635801821414,11.574612243521031,-0.021162286108903704,0.8010010309338078,-0.6001903325935023
1.8902320693889387,11.392233444851598,-0.02085085122329229,0.784901566191707,-0.6259711678634597
1.8854692573331542,11.213546737862327,-0.02056490578353027,0.7688958858889027,-0.6528923290070645
1.8807693568802044,11.038530832005264,-0.020303793807336663,0.7529815563464182,-0.68085420054111
1.8761267378395428,10.867164984544424,-0.02006680654624335,0.7371562476608956,-0.7097585352647736
1.8715359385409305,10.699428976977387,-0.01985318735473229,0.7214177311828852,-0.739508222098417
1.8669916763440484,10.535303091990755,-0.019662136096416163,0.7057638773965367,-0.7700070543248827
1.8624888571848757,10.374768090856698,-0.019492813113781034,0.6901926542039694,-0.8011594971358591
1.8580225842565543,10.217805191176812,-0.01934434278466421,0.6747021256211377,-0.8328704533505966
1.8535881659175009,10.064396044877363,-0.019215816685368176,0.6592904508958078,-0.8650450261290638
1.8491811229153192,9.914522716357169,-0.01910629637708039,0.643955884062383,-0.8975882774458575
1.8447971950116147,9.768167660685421,-0.01901481582904526,0.6286967739528282,-0.9304049810240393
1.8404323470900759,9.625313701741735,-0.018940383488684227,0.6135115646879226,-0.963399368348677
1.8360827748282396,9.485944010184586,-0.018881984005545614,0.5983987966786097,-0.9964748662872259
1.8317449100121586,9.350042081126603,-0.018838579612548714,0.5833571081734155,-1.0295338247369172
1.8274154255728066,9.217591711386248,-0.018809111164423957,0.5683852373948839,-1.0624772325968501
1.8230912404235058,9.088576976174512,-0.01879249882949679,0.5534820253158813,-1.0952044202233218
1.8187695241790125,8.962982205062595,-0.01878764242696642,0.5386464191355858,-1.1276127463698455
1.8144477018391947,8.840791957061604,-0.018793421397535592,0.5238774765252041,-1.1595972674371822
1.8101234585235602,8.721990994627816,-0.018808694390591504,0.5091743707251399,-1.1910503866625815
1.8057947443473463,8.606564256386726,-0.018832298446050725,0.4945363965887075,-1.2218614806607038
1.8014597795355614,8.4944968283455,-0.018863047743383033,0.4799629776828202,-1.2519165004913544
1.7971170598783974,8.385773913336006,-0.018899731884130806,0.4654536745736642,-1.2810975441721715
1.7927653626399784,8.280380798398799,-0.01894111366733848,0.4510081944455348,-1.3092823972801417
1.7884037530426324,8.178302819781791,-0.018985926309581954,0.4366264022241088,-1.3363440379989229
1.7840315914609814,8.079525325184807,-0.019032870052601788,0.42230833340182494,-1.3621501026772822
1.779648541474383,7.984033632832389,-0.019080608091732246,0.4080542087930996,-1.3865623076802291
1.7752545789429077,7.891812986900852,-0.01912776174718369,0.393864451481147,-1.4094358230583417
1.7708500022914149,7.802848508761034,-0.01917290478753604,0.3797397062564143,-1.4306185933622697
1.7664354442088217,7.717125143424298,-0.019214556800231368,0.3656808618891187,-1.4499506008331577
1.7620118849957878,7.6346276004952,-0.019251175487020114,0.35168907662476656,-1.467263066271872
1.7575806678243708,7.555340288839144,-0.01928114774269103,0.3377658073409526,-1.4823775832275572
1.7531435162084499,7.479247244066684,-0.019302779352273865,0.3239128428543422,-1.4951051818912158
1.748702554024804,7.406332047818189,-0.019314283114211912,0.3101323419151913,-1.5052453204399148
1.744260328472897,7.3365777377042,-0.019313765163242107,0.29642687646732957,-1.5125848038538467
1.739819836418294,7.269966706621354,-0.01929920922461095,0.2827994807748066,-1.5168966338618257
1.7353845546325766,7.206480590026423,-0.01926845847727959,0.2692537070072026,-1.5179387993024007
1.730958474524961,7.146100139622451,-0.01921919463241927,0.25579368780993583,-1.515453024753811
1.726546142062594,7.088805081808296,-0.019148913735991084,0.24242420622619912,-1.5091635081540664
1.7221527037053201,7.0345739591943826,-0.01905489806639114,0.229150773025218,-1.4987756973016546
1.7177839593485325,6.983383953538631,-0.01893418329698,0.21597971093783708,-1.4839751835197827
1.7134464234934184,6.935210688678403,-0.018783519790967408,0.20291824436848346,-1.464426832646979
1.7091473961780013,6.890028012537876,-0.018599326430052066,0.18997459163610106,-1.4397743350823597
1.7048950456544252,6.847807758245079,-0.018377634644521388,0.17715805438820847,-1.4096404468011727
1.7006985054694395,6.808519486055989,-0.01811401913796327,0.16447909508214906,-1.3736283247602812
1.6965679896306456,6.772130210536229,-0.017803509895027155,0.15194938769836827,-1.331324550497942
1.6925149311442613,6.738604121848109,-0.017440476943095463,0.13958181828528507,-1.282304708148294
1.688552151762067,6.707902316803338,-0.017018474206423044,0.12739039949533293,-1.2261427652363648
1.6846940748910406,6.679982565573415,-0.01653002032424013,0.11539004598227022,-1.1624260225266003
1.68095700031209,6.654799154730885,-0.015966280362287134,0.1035961352571186,-1.090778057959482
1.6773594702737853,6.632302867460012,-0.015316589536013885,0.09202375405480082,-1.0108928242777555
1.673922774316813,6.612441186681515,-0.014567723133310697,0.08068651358429062,-0.9225836236397084
1.6706716690207535,6.595158831575233,-0.013702757701989102,0.06959483516598955,-0.8258504232133304
1.6676354354108833,6.580398747622656,-0.01269927368818569,0.05875372094338186,-0.7209664644361113
1.6648494727610115,6.568103629674177,-0.011526488484613061,0.04816034817381724,-0.6085777719482287
1.6623577598882142,6.558217896902715,-0.010140579974492732,0.037802545491068124,-0.4897936425290131
1.6602167900798874,6.55068963659134,-0.008476548793567327,0.027660587651326188,-0.36622153958566694
1.658502355940152,6.54547116084677,-0.006431574160653375,0.017717462301445996,-0.2398749655255654
1.6573236421428759,6.542514572387315,-0.003818111033052251,0.0079920025633673,-0.11288154604714132
