x,y,v_x,v_y,omega
2.375,32.48,0.0,3.333333333333333,-4.081632653061225
2.3736187594600993,31.724082289215463,-0.012010787303486408,3.2398641517495763,-3.7615172671338337
2.3697228682709532,30.98911939981666,-0.021866527384738974,3.1511174951965395,-3.479367562593401
2.363765120787338,30.27406811964984,-0.02993997247278605,3.066719723645367,-3.229416285022898
2.356120587478069,29.577966523524747,-0.036534230216507334,2.9863376339641277,-3.006924163409583
2.3471009958371,28.89992533291613,-0.0418970014440934,2.909672719154295,-2.8079726923888355
2.33696620220501,28.23912047672682,-0.046231638834951065,2.836456465100563,-2.629303240415113
2.3259333968557168,27.594786640969534,-0.049705798984990265,2.7664464545280136,-2.4681911341493303
2.314184530451541,26.96621164127545,-0.05245825670349293,2.6994231080292606,-2.3223463922288303
2.301872335873611,26.352731486393502,-0.0546043048437247,2.6351869344224608,-2.189834934361666
2.2891252341886132,25.75372602673075,-0.05624005763451623,2.5735561930797175,-2.069015643718967
2.2760513492466856,25.168615101833957,-0.057445898382247104,2.514364892979352,-1.958489791967408
2.262741806559981,24.596855116140052,-0.058289255415182276,2.45746106957633,-1.857060169327039
2.2492734547105386,24.03793598446311,-0.05882684762344774,2.4027052928318584,-1.7636978810773927
2.235711118702308,23.49137839834737,-0.05910650896985878,2.3499693690441625,-1.677515235844233
2.222109472302454,22.956731372185722,-0.05916867711583067,2.2991352062745185,-1.5977435013812715
2.2085145989599475,22.433570034310645,-0.05904761281901053,2.250093818726145,-1.5237145701277401
2.1949652971909734,21.921493633429208,-0.05877240256337243,2.202744449808095,-1.454845781005244
2.1814941755157387,21.4201237350359,-0.058367785916929295,2.1569937970902315,-1.3906273013154877
2.1681285734669307,20.92910258597948,-0.05785484059444301,2.1127553251395415,-1.3306115946648682
2.1548913383701755,20.448091628323425,-0.057251551551256205,2.0699486544783214,-1.2744045960436539
2.141801482142087,19.976770146133575,-0.05657328521472889,2.02849901673774,-1.2216582898391706
2.128874737970306,19.51483403093657,-0.05583318584423706,1.9883367675840538,-1.1720644454006193
2.1161240332068387,19.061994653387192,-0.05504250775113152,1.9493969502366195,-1.1253493113746627
2.1035598919459617,18.617977830215686,-0.0542108945173643,1.9116189034286666,-1.081269107113269
2.091190778434175,18.18252287684114,-0.053346614280779574,1.8749459085238946,-1.0396061790950373
2.0790233905649886,17.7553817371699,-0.052456758494754195,1.83932487122603,-1.0001657140938338
2.067062911161227,17.33631818307701,-0.05154741023360887,1.8047060339295047,-0.9627729200062725
2.0553132234752383,16.925107076918223,-0.05062378703585861,1.771042715277378,-0.9272706007687841
2.0437770962898267,16.52153369115897,-0.04969036240250201,1.738291073933489,-0.8935170644016361
2.0324563431375937,16.125393079852078,-0.048750969356047905,1.7064098939525432,-0.8613843134956062
2.0213519594398193,15.736489497260223,-0.047808888885469,1.675360389454887,-0.8307564758668622
2.010464240770866,15.35463585941498,-0.046866925627163054,1.6451060265906994,-0.8015284400102677
1.9997928849584143,14.979653244839948,-0.04592747274198572,1.6156123610182782,-0.7736046656690068
1.9893370803159436,14.61137043105003,-0.04499256762732446,1.5868468893288463,-0.7468981445386953
1.9790955819574212,14.249623463778686,-0.044063939838087554,1.558778913030672,-0.7213294900204921
1.9690667778533735,13.894255256185993,-0.043143052371024185,1.531379413862329,-0.696826138177413
1.9592487460429724,13.545115215567499,-0.0422311372846365,1.504620939341973,-0.6733216447496194
1.9496393042105722,13.202058895321539,-0.041329226475366375,1.4784774975794137,-0.6507550653436865
1.9402520714550517,12.864949098208417,-0.0402988844422019,1.4529120425347044,-0.6250746543174293
1.9310990597945892,12.533654040244922,-0.039292521300950935,1.4279145484521942,-0.600696113186774
1.9221747567451082,12.20804564773617,-0.03831011391192772,1.403462777710868,-0.5775367328747631
1.9134736663398924,11.888000832394898,-0.037351541785600566,1.3795356165610622,-0.5555200544896679
1.9049903296768211,11.573401241015066,-0.036416603110670624,1.3561130041331166,-0.5345753227964848
1.8967193420362745,11.26413302086047,-0.035505028546258185,1.3331758667764262,-0.5146369937888007
1.8886553670484283,10.960086599595694,-0.0346164930871866,1.3107060572651015,-0.4956442903956789
1.8807931483226643,10.661156478688198,-0.03375062626728243,1.288686298452258,-0.4775408010816516
1.8731275188951937,10.367241039301682,-0.03290702092811457,1.2671001309957046,-0.4602741167258241
1.8656534088023664,10.078242359783552,-0.032085240748644356,1.245931864814108,-0.4437955017121144
1.8583658510453134,9.79406604392394,-0.031284826703991485,1.2251665339651077,-0.4280595956383082
1.8512599861755592,9.514621059231384,-0.030505302598217928,1.2047898546658118,-0.41302414246669134
1.844331065700214,9.239819584531585,-0.029746179796088092,1.1847881862020186,-0.3986497443018666
1.8375744544785715,8.96957686625134,-0.029006961261672494,1.165148494495741,-0.38489963729906373
1.8309856322588245,8.703811082800364,-0.028287144996995986,1.145858318121463,-0.37173948748488367
1.8245601944836172,8.442443216509663,-0.0275862269613309,1.1269057365802975,-0.35913720451716735
1.818293852475861,8.185396932627249,-0.02690370354089586,1.1082793406580889,-0.3470627716260008
1.8121824331012786,7.932598464910068,-0.026239073629386024,1.0899682047086985,-0.3354880901675824
1.8062218779911523,7.683976507386063,-0.025591840371711642,1.071961860717436,-0.324386837390079
1.8004082423975223,7.43946211189218,-0.02496151261637504,1.0542502740119877,-0.31373433615852003
1.794737693743309,7.198988591023369,-0.02434760611591386,1.0368238204994054,-0.3035074355166735
1.7892065099213696,6.962491426154383,-0.023749644509647387,1.0196732653178644,-0.29368440107983285
1.783811077389136,6.729908180220701,-0.023167160118469015,1.002789742801111,-0.284244814355357
1.7785478890990958,6.501178414967459,-0.022599694577534257,0.9861647376618609,-0.2751694801792388
1.7734182639389098,6.276348576019988,-0.022005741597996478,0.9688773401422364,-0.28477221079232173
1.768421788860834,6.055480299774235,-0.021441867776575124,0.9517163663425746,-0.29667606750413306
1.7635515200835585,5.838544941908211,-0.020908295504080403,0.93467804988371,-0.310754252250165
1.7588004781851594,5.6255147066503,-0.020405112308088405,0.9177587784459442,-0.32688403549758466
1.754161677741606,5.416362612182365,-0.019932282853244467,0.9009550864926342,-0.3449464602286214
1.7496281543172256,5.211062457653881,-0.01948965996745373,0.8842636485376653,-0.3648260578260946
1.7451929890226636,5.009588791685399,-0.019076994767868338,0.8676812729273923,-0.38641057464850687
1.7408493308395991,4.8119168822459955,-0.018693945954432523,0.8512048961109125,-0.4095907081341278
1.7365904168965374,4.61802268779504,-0.018340088333059883,0.8348315773756598,-0.43425985131719835
1.7324095908663326,4.427882829583581,-0.01801492062524332,0.8185584940283207,-0.4603138446750807
1.7283003196435904,4.241474565014865,-0.01771787261599311,0.8023829370039901,-0.48765073425305816
1.7242562084486979,4.05877576196713,-0.017448311687421635,0.7863023068893461,-0.5161705350336713
1.7202710144948286,3.879764873984783,-0.01720554878100605,0.7703141103484579,-0.5457749985299799
1.7163386593448473,3.7044209162463027,-0.01698884382752692,0.7544159569426829,-0.5763673835869167
1.712453240076497,3.5327234422189093,-0.016797410679867366,0.7386055563389925,-0.6078522293717966
1.7086090393665856,3.364652520910962,-0.01663042158023073,0.7228807159040247,-0.6401351295238341
1.7048005345980248,3.2001887146333097,-0.016487011189863343,0.707239338684245,-0.6731225064128749
1.701022406087498,3.039313057180401,-0.016366280206021277,0.6916794217758323,-0.7067213844290383
1.6972695445262242,2.882007032340674,-0.016267298587664656,0.6761990550913582,-0.7408391611870717
1.6935370577217035,2.7282525526437524,-0.016189108408168507,0.6607964205340431,-0.775383375481298
1.689820276724494,2.57803193824898,-0.016130726350172934,0.645469791594406,-0.8102614707683536
1.6861147614209542,2.4313278958759383,-0.016091145854523946,0.6302175333885622,-0.8453805528845851
1.6824163056704986,2.2881234976725864,-0.016069338932044076,0.6150381031623244,-0.8806471406220305
1.678720942064302,2.1484021599104857,-0.016064257643581673,0.5999300512907334,-0.9159669076902258
1.6750249463814963,2.0121476213890404,-0.0160748352503787,0.5848920228087855,-0.9512444144794344
1.671324841818882,1.8793439214216825,-0.01609998703322548,0.5699227595160508,-0.9863828279129421
1.6676174030709259,1.7499753772661784,-0.016138610775088734,0.5550211027057372,-1.021283627530375
1.6638996603385374,1.6240265608485807,-0.01618958689785368,0.5401859965777082,-1.0558462957790897
1.6601689033477471,1.5014822746155474,-0.016251778239452747,0.52541649240519,-1.0899679903050796
1.656422685463127,1.3823275263322365,-0.016324029452896734,0.5107117535366351,-1.1235431958271547
1.6526588279856407,1.266547502622842,-0.016405166003504935,0.4960710613276721,-1.1564633529472461
1.6488754247307282,1.1541275410271012,-0.01649399273486492,0.481493822113567,-1.1886164609948615
1.6450708469899396,1.0450531003187393,-0.016589291967645057,0.46697957535046164,-1.219886651725058
1.6412437489885146,0.9393097287999055,-0.016689821088224466,0.45252800307419555,-1.250153730388094
1.6373930739621207,0.8368830302487176,-0.0167943095760707,0.43813894084916427,-1.2792926803683817
1.6335180609887525,0.7377586271542782,-0.016901455409738947,0.42381239040683677,-1.3071731272565394
1.6296182527268042,0.6419221208239527,-0.017009920781117693,0.40954853420469217,-1.3336587578816383
1.625693504227847,0.5493590478906469,-0.017118327035900535,0.3953477521718673,-1.3586066895078268
1.621743993013046,0.4600548326818483,-0.017225248744976905,0.38121064094809587,-1.3818667841164565
1.6177702306258106,0.373994734836522,-0.017329206796200355,0.3671380359677902,-1.4032809024912927
1.6137730759007287,0.29116379146922355,-0.01742866037842565,0.3531310367913099,-1.4226820927599415
1.6097537502206407,0.2115467530821178,-0.017521997709297476,0.3391910361400384,-1.4398937082078893
1.6057138550706225,0.135128012313821,-0.017607525334338126,0.3253197531494824,-1.4547284497035233
1.601655392240581,0.061891524489190886,-0.017683455796456745,0.31151927141251257,-1.4669873291460622
1.5975807870783085,-0.008179281203645417,-0.017747893440695477,0.2977920824382144,-1.4764585522569122
1.5934929152538013,-0.07510160123116094,-0.01779881807675859,0.28414113519233397,-1.4829163221947876
1.589395133565602,-0.13889336940420094,-0.017834066168452206,0.2705698923993409,-1.4861195704972647
1.5852913154040258,-0.19957338236906708,-0.01785130914960142,0.2570823942516886,-1.485810629634792
1.5811858915890025,-0.25716144066421265,-0.017848028372341843,0.24368333005395115,-1.4817138733297075
1.5770838974289374,-0.3116785071988346,-0.017821486063006122,0.2303781180731878,-1.4735343686899636
1.5729910270124106,-0.3631468850166897,-0.017768691472010302,0.21717299338644852,-1.4609566110048964
1.5689136959640728,-0.4115904160642643,-0.017686361122231677,0.20407510267939058,-1.443643451974782
1.5648591141979025,-0.4570347022810708,-0.017570871627074006,0.19109260355371305,-1.4212353914043288
1.560835370631089,-0.4995073495081712,-0.017418202866957593,0.1782347636384561,-1.3933504900445617
1.5568515324564847,-0.539038233216182,-0.017223868216557286,0.165512051213832,-1.359585290394898
1.5529177625380632,-0.575659782506257,-0.01698282672623746,0.15293620348249023,-1.3195173213548814
1.54904546000552,-0.6094072746728258,-0.016689369208923357,0.14052025013987263,-1.2727100367634325
1.545247431539968,-0.6403191260307963,-0.016336965274135508,0.12827845732072538,-1.2187214287788317
1.5415381047656456,-0.6684371546154182,-0.015918050154756277,0.11622613906730224,-1.1571180985142486
1.5379338016012718,-0.6938067754494455,-0.015423716491970272,0.10437925948947721,-1.0874972777407466
1.534453100050028,-0.7164770681488832,-0.014843253518845667,0.09275372050562754,-1.009520136410143
1.5311173304466368,-0.7365006297073862,-0.014163438684558102,0.08136420609002812,-0.9229604722700192
1.5279512810165934,-0.7539330962436708,-0.01336742592451492,0.07022245944288828,-0.8277729521289562
1.524984234782686,-0.7688321999563072,-0.012432976109460864,0.05933496414528357,-0.7241830346559055
1.5222515375438415,-0.7812562559315879,-0.011329608576144276,0.048700305204976015,-0.6127937935593696
1.5197970312839935,-0.7912621197745651,-0.010013924118186052,0.038307206473084304,-0.4946890883532221
1.517676960289545,-0.798903051021469,-0.008421475833540014,0.02813567393478246,-0.3714855984245166
1.515966698121876,-0.8042277980975641,-0.006450369102711337,0.018166474553027293,-0.24525591187352688
1.5147745464230558,-0.807284435639545,-0.0039161674087698,0.008412982333747113,-0.11823688678180333
