x,y,v_x,v_y,omega
2.375,32.48,0.0,2.5128205128205128,-3.3469387755102042
2.3743161982350105,31.957884140616166,-0.006512397761805175,2.4597114813112224,-3.160129125855638
2.3723545482359256,31.446726213486357,-0.01216998318185901,2.4084592532583557,-2.988689310314298
2.3692834025304874,30.94614740637897,-0.017079023536602674,2.358957957288214,-2.8309615011650586
2.36525030202451,30.455790267442346,-0.021331457472707184,2.3111100325843874,-2.6855005570756036
2.3603847613381967,29.975317050946394,-0.025007025254081203,2.2648253626151558,-2.551042856984605
2.354800643428009,29.50440823273608,-0.028175050081039127,2.2200205251021146,-2.426480246162049
2.348598190174375,29.042761173015784,-0.030895933286907158,2.1766181389007278,-2.310838166946216
2.3418657637282183,28.590088907742906,-0.03322241381934788,2.1345462922695106,-2.203257231344903
2.334681343844134,28.146119052858857,-0.0352006326957391,2.093738039959524,-2.102977637241114
2.3271138186887335,27.710592807981847,-0.03687103545093149,2.0541309588691776,-2.0093259438332245
2.3192241003187415,27.283264048147913,-0.03826913950137453,2.015666753834927,-1.9217038122232817
2.3110660908807827,26.863898493804317,-0.03942618847918336,1.9782909065802752,-1.839578389047291
2.30268752136447,26.45227295060247,-0.04036971167617807,1.9419523620087578,-1.7624740687352864
2.294130681262844,26.04817461166019,-0.04112400357740229,1.9066032469653322,-1.6899654164633748
2.2854330546177923,25.65140041590672,-0.04171053589927938,1.8721986173534149,-1.621671071472233
2.2766278755402927,25.261756456922143,-0.04214831245786184,1.8386962301187773,-1.5572484810011247
2.2677446143065256,24.879057437361528,-0.04245417548277582,1.8060563371251674,-1.4963893400438797
2.2588094034690878,24.503126164634335,-0.042643070588060016,1.774241498371916,-1.4388156325858856
2.2498454120297318,24.133793084007678,-0.04272827645342591,1.7432164123581497,-1.3842761868048854
2.2408731745493693,23.770895845732092,-0.04272160431193134,1.7129477616950488,-1.3325436706064608
2.231910881084338,23.414278903160774,-0.042633571545508175,1.683404072317495,-1.2834119653687397
2.222974633004072,23.063793139157355,-0.04247355302845699,1.6545555848579476,-1.2366938653304054
2.2140786690388516,22.719295518370124,-0.042249913306971795,1.6263741369251843,-1.1922190580248007
2.205235565306352,22.38064876319865,-0.041970122240645134,1.5988330551841026,-1.1498323478253158
2.19645641255496,22.04772105149655,-0.04164085634404336,1.5719070562644801,-1.1093920902534682
2.187750973426128,21.720385734246577,-0.041268087740069945,1.5455721556399962,-1.070768809397846
2.17912782216546,21.398521071614113,-0.0408571623615277,1.519805583716844,-1.0338439747515418
2.170594468893026,21.082009985935933,-0.040412868804509165,1.4945857084562981,-0.9985089171221129
2.162169777522387,20.77074168105067,-0.039822287106341475,1.4698743380699995,-0.9614494355412654
2.153870402688141,20.464609463606145,-0.0392193779817142,1.4456705899730775,-0.9261525370758438
2.145698650146202,20.163508696176727,-0.03860683670342111,1.4219557664976072,-0.8925129657944676
2.1376562922083795,19.867338574647036,-0.03798704841869878,1.3987120575946652,-0.860432942272992
2.129744629330321,19.576001947371477,-0.03736212184852701,1.3759224878868441,-0.8298215486520549
2.121964545019698,19.289405145056573,-0.036733919205023315,1.3535708674931834,-0.8005941709958233
2.1143165548117375,19.007457820606945,-0.03610408277554869,1.3316417463128047,-0.7726719929978497
2.1068008499709245,18.73007279823834,-0.03547405856553182,1.3101203714834215,-0.7459815357613807
2.0994173365005273,18.457165931218036,-0.03484511734301267,1.288992647757559,-0.7204542389778263
2.092165669974042,18.188655967644365,-0.03421837338541846,1.2682451005631528,-0.6960260793498906
2.0850452866433926,17.924464423723897,-0.03359480119219397,1.2478648415365305,-0.6726372225649061
2.0780554312267547,17.664515464047394,-0.03297525039483104,1.2278395363349246,-0.6502317055276202
2.071195181733167,17.40873578840418,-0.032360459067911775,1.208157374552838,-0.6287571459172661
2.064463471640891,17.157054524710013,-0.031751065620427496,1.1888070415820597,-0.6081644764474268
2.057859109711082,16.90940312765565,-0.03114761942537443,1.1697776922690406,-0.588407701484307
2.0513807976870786,16.66571528271263,-0.030550590327041365,1.1510589262359108,-0.5694436739241816
2.04502714610208,16.42592681515987,-0.02996037714913684,1.1326407647427628,-0.5512318904479784
2.0387966883935924,16.189975603819075,-0.029377315312647763,1.1145136289790922,-0.5337343034636253
2.032687893501484,15.957801499209705,-0.028801683659813417,1.0966683196815792,-0.5169151482179475
2.0266991771073943,15.729346245854838,-0.028233710569612307,1.0790959979838237,-0.5007407837121334
2.0208289116563325,15.504553408488349,-0.027673579440497607,1.0617881674113017,-0.4851795461903703
2.015075435286281,15.283368301931276,-0.027121433607611385,1.044736656941756,-0.47020161409214595
2.0094370597782896,15.065737924421345,-0.026577380754211795,1.0279336050575716,-0.4557788834666461
2.0039120776277017,14.851610894194444,-0.026041496870434184,1.0113714447224433,-0.4418848529441549
1.9984987683266064,14.6409373891305,-0.02551382980666673,0.9950428892199003,-0.4284945174456997
1.9931994808597877,14.433808818169116,-0.024955574639223894,0.977610167555182,-0.44215020118866494
1.9880143681740023,14.230328816920416,-0.02442645093968493,0.9602946062419502,-0.45781775402699626
1.9829373160153865,14.030473127530627,-0.02392642676141871,0.9430929117560554,-0.4753823968683376
1.9779622277122184,13.834218170144151,-0.023455366602087756,0.9260019204961069,-0.4947325271966518
1.9730830449785528,13.641541016195095,-0.023013040385203402,0.9090185933044204,-0.5157594717753635
1.9682937669066578,13.452419362804573,-0.022599131728083068,0.892140010414832,-0.53835724738561
1.963588467292745,13.266831508196091,-0.022213245547277133,0.8753633668087979,-0.5624223286476616
1.9589613104302084,13.084756328044978,-0.02185491504830845,0.8586859679636956,-0.5878534220009652
1.9544065654951606,12.906173252680922,-0.021523608142624412,0.8421052259796823,-0.6145512449393581
1.9499186196404332,12.7310622450653,-0.02121873333096898,0.8256186560738646,-0.6424183096128775
1.9454919899063459,12.559403779467086,-0.02093964508891098,0.8092238734329253,-0.6713587099162518
1.9411213340493765,12.391178820762764,-0.020685648786988153,0.7929185904177586,-0.701277911186551
1.9368014603833867,12.226368804286707,-0.020456005174817927,0.7767006141161147,-0.7320825416284806
1.9325273367221971,12.064955616159128,-0.020249934455560076,0.7605678442417783,-0.7636801845752242
1.928294098507065,11.906921574018693,-0.020066619974269617,0.7445182713814309,-0.7959791706753362
1.9240970561979696,11.752249408086364,-0.01990521154092552,0.7285499755931174,-0.8288883690716147
1.9199317020035171,11.600922242485954,-0.01976482840623856,0.712661125363183,-0.862316976605756
1.9157937160207632,11.45292357674499,-0.01964456190570535,0.6968499769317156,-0.8961743040424213
1.9116789718532643,11.308237267397164,-0.019543477784760187,0.6811148739999692,-0.9303695582575805
1.9075835417732625,11.166847509604281,-0.019460618215256315,0.6654542478370105,-0.9648116192779971
1.9035037014920206,11.028738818711663,-0.019395003510856153,0.6498666178069834,-0.9994088109907628
1.89943593460103,10.893896011645914,-0.01934563354619758,0.6343505923430002,-1.0340686642630896
1.89537693674608,10.762304188058025,-0.019311488881899475,0.618904870398823,-1.068697671122242
1.8913236195960534,10.633948711107543,-0.019291531594541507,0.6035282434152877,-1.103201028542629
1.887273114668822,10.50881518777522,-0.01928470580766432,0.5882195978449494,-1.1374823702706929
1.8832227770777799,10.386889448581488,-0.019289937916546984,0.5729779182858259,-1.171443484987375
1.8791701892644639,10.268157526576708,-0.01930613649598538,0.557802291283507,-1.2049840189616805
1.8751131647853563,10.15260563545554,-0.01933219187646872,0.5426919098704606,-1.2380011611864141
1.8710497522244793,10.040220146632304,-0.01936697536997771,0.5276460789222717,-1.270389308807971
1.866978239307817,9.93098756509605,-0.01940933812204498,0.5126642214230036,-1.3020397104660144
1.862897157301028,9.824894503843293,-0.01945810956165742,0.49774588574610945,-1.3328400849464803
1.8588052857784831,9.721927656662224,-0.019512095414961517,0.48289075407358706,-1.362674212324165
1.854701657859453,9.622073769014559,-0.019570075242466276,0.46809865209465124,-1.3914214945322432
1.8505855660164903,9.525319606729251,-0.01963079945241859,0.4533695601463681,-1.4189564820507155
1.8464565685717975,9.431651922185694,-0.01969298573513031,0.43870362598276197,-1.445148363162577
1.8423144970099266,9.341057417621961,-0.019755314854118532,0.4241011793861295,-1.4698604119986811
1.8381594642496646,9.253522705155603,-0.01981642571980434,0.4095627488649016,-1.492949391399922
1.833991874034787,9.169034263049557,-0.019874909659982547,0.3950890807164798,-1.5142649064982854
1.8298124316227438,9.087578387693377,-0.01992930378804931,0.3806811607709433,-1.5336487049002672
1.8256221559727552,9.009141140699377,-0.019978083354696367,0.36634023917192476,-1.5509339195109362
1.8214223936606606,8.933708290434033,-0.02001965295096645,0.3520678585932679,-1.5659442504569303
1.8172148347778072,8.861265247216839,-0.020052336409544336,0.3378658863323944,-1.5784930833854993
1.8130015311060772,8.791796991322109,-0.020074365225977164,0.32373655076027785,-1.5883825428269716
1.8087849169018182,8.725287992815286,-0.020083865290775806,0.3096824826380259,-1.5954024815873944
1.8045678326693673,8.66172212214694,-0.020078841684945916,0.2957067618224104,-1.5993294106868707
1.800353552362015,8.601082550319948,-0.020057161242217816,0.2818129698632245,-1.5999253797547652
1.7961458145173934,8.543351637347474,-0.02001653251608476,0.26800524892223965,-1.5969368258692684
1.7919488579196177,8.488510807645909,-0.01995448270082658,0.2542883672831446,-1.5900934207907722
1.787767462488339,8.436540410981788,-0.01986833093039896,0.2406677914227722,-1.5791069641282784
1.7836069962349475,8.387419567652081,-0.019755157197140605,0.22714976409824184,-1.5636703957133575
1.7794734693138614,8.341125996780974,-0.01961176586082305,0.21374138705515516,-1.5434570379684236
1.7753735964565531,8.297635827051757,-0.019434642304016942,0.20045070560406958,-1.5181202335595902
1.7713148694469922,8.256923389993442,-0.019219900644182414,0.1872867901893942,-1.487293622542387
1.767305641843214,8.218960997307832,-0.018963219391799176,0.1742598068164042,-1.4505924169492994
1.7633552289745964,8.183718705946585,-0.018659760309322565,0.16138106329069257,-1.40761619353912
1.7594740275180327,8.151164078148817,-0.0183040630865227,0.14866301097375856,-1.357953955707328
1.7556736609568206,8.12126194900523,-0.017889904163115602,0.13611917134612211,-1.3011925351854448
1.7519671604084701,8.09397422206974,-0.017410101059269743,0.12376394232522005,-1.2369298335559258
1.748369195410646,8.069259724934664,-0.016856232253341038,0.11161222086599096,-1.1647949474994097
1.744896377466036,8.04707417217417,-0.01621822436199349,0.09967875780536295,-1.084477833591929
1.7415676723495699,8.027370302333452,-0.015483729128159311,0.0879771454395816,-0.995771671795224
1.738404978316128,8.010098275620834,-0.014637166428430798,0.07651834706154598,-0.8986310180065796
1.7354339610274014,7.9952064300923595,-0.013658236321345215,0.06530875320963421,-0.7932471810118058
1.7326852900282563,7.982642473747116,-0.01251958271813248,0.054347973887919426,-0.6801371523522292
1.7301965122419007,7.97235509265046,-0.011183062866207478,0.0436270841754911,-0.5602312475055694
1.7280149720816373,7.96429570170087,-0.00959351008868196,0.03312902010631447,-0.43492578688986794
1.7262026186348243,7.958419518816015,-0.007666998928584267,0.022834626416100616,-0.30604503926970916
1.7248450056469613,7.954683919367117,-0.0052626485748738325,0.012742511192463075,-0.17564703941140827
1.7240742613910136,7.953037463384582,-0.0020777729103402327,0.002938021974527494,-0.045640841433443574
