x,y,v_x,v_y,omega
2.375,32.48,0.0,2.871794871794872,-7.877551020408164
2.373523520685687,31.94033762265413,-0.015541887519083404,2.8088617318458136,-7.423462814640356
2.3692913628059826,31.412404454598427,-0.029007142793595297,2.748329510845816,-7.008255901078163
2.362672818565562,30.895759426817484,-0.04066174394767378,2.690039202637806,-6.62754201358681
2.353990218495376,30.389990185509394,-0.050734046264809304,2.633847547973649,-6.277529210601785
2.34352550716608,29.894710306828745,-0.05942080983304514,2.579624859191071,-5.954927588299283
2.331525778293781,29.409556888517823,-0.0668921256648379,2.527253228292322,-5.65687206818162
2.318207956712245,28.934188453169895,-0.07329546993027922,2.4766250385279864,-5.380858754949059
2.3037627762059025,28.46828311126921,-0.07875906171542976,2.42764171832134,-5.124692167250793
2.288358172661968,28.01153694245051,-0.08339465979967052,2.3802126902965695,-4.88644124466877
2.2721421890831306,27.563662561402943,-0.08729990418809307,2.334254478625167,-4.664402486680109
2.2552454710448377,27.124387841081173,-0.09056028568867125,2.2896899458145277,-4.457068923534438
2.2377834169822792,26.693454770799477,-0.09325080970668578,2.2464476360980674,-4.2631038833565755
2.219858036372117,26.27061843068359,-0.0954374072423861,2.2044612072270304,-4.081318724650097
2.2015595597808417,25.8556460670714,-0.097178135823672,2.1636689360591888,-3.9106538634307424
2.1829678373966943,25.44831625596206,-0.09852420506208814,2.124013286144391,-3.7501625502131506
2.1641535566755707,25.048418143645886,-0.09952085516026592,2.085440527710065,-3.59899695195763
2.145179304830257,24.655750755305206,-0.10020811163251096,2.0479004021918152,-3.4563961737861955
2.1261004978586775,24.27012236373714,-0.1006214354367459,2.011345824840473,-3.3216759192643255
2.106966194470732,23.891349911472844,-0.10079228443636715,1.975732620046887,-3.194219539707663
2.087819810501703,23.519258480501012,-0.10074859944814622,1.941019284919753,-3.073470264906411
2.0686997470879946,23.153680804582905,-0.10051522595931116,1.9071667773761092,-2.9589244418657423
2.0496399439444746,22.794456819800722,-0.10011428081458355,1.8741383255942614,-2.850125636192193
2.03067036745509,22.441433249533837,-0.09956547170525258,1.8418992561623837,-2.7466594738284993
2.0118174419157806,22.094463220526258,-0.09888637607695523,1.810416838654235,-2.648149119908101
1.9931044311074837,21.753405907108263,-0.09809268506301073,1.7796601446930886,-2.554251307321465
1.9745517763917348,21.41812620097769,-0.09719841720802841,1.7495999198392667,-2.464652840760762
1.9561773966830032,21.08849440424069,-0.09621610604178057,1.7202084668659954,-2.3790675130180383
1.9379969549367262,20.76438594366623,-0.0951569649716611,1.6914595391809493,-2.2972333795412245
1.9200240951803598,20.445681104329267,-0.09403103246377419,1.6633282433134093,-2.218910345013934
1.9022706535904246,20.13226478100964,-0.092847300061859,1.6357909495247502,-2.1438780222718887
1.8847468466680475,19.82402624588165,-0.09161382543684754,1.6088252097172466,-2.0719338294068104
1.8674614391776103,19.520858931176452,-0.09033783235722768,1.5824096819164188,-2.002891295605929
1.8504218941784587,19.22266022562902,-0.08902579921279218,1.5565240606881423,-1.9365785502699526
1.833634507190308,18.929331283635694,-0.08768353750458133,1.5311490129258098,-1.872836973357949
1.8171045262824124,18.640776846149592,-0.08631626152590004,1.5062661185068638,-1.8115199878180366
1.800836259659118,18.35690507243095,-0.08492865029825046,1.4818578153735482,-1.752491977455754
1.7848451974852266,18.077633457336205,-0.08339831995323956,1.4578433961501174,-1.691645737169543
1.7691442405566642,17.802882264061168,-0.0818749108737309,1.4342744277976434,-1.6334689503818038
1.7537318586473913,17.53256833002132,-0.0803606881712473,1.4111354042007334,-1.5778136331889254
1.7386061193797224,17.26661137297659,-0.07885761990947657,1.3884115120595781,-1.524541562989054
1.723764741629203,17.004933863142895,-0.07736740904336156,1.3660885914529857,-1.4735235313023844
1.7092051431861455,16.747460902539615,-0.07589152193618875,1.3441530991078725,-1.4246386615007909
1.694924483287724,16.494120111079575,-0.07443121383666937,1.322592074155736,-1.3777737851453473
1.680919700566212,16.244841518947936,-0.07298755165292996,1.3013931061772626,-1.3328228713057788
1.667187546898698,15.999557464852405,-0.07156143432090292,1.2805443053546413,-1.289686503832143
1.6537246175903548,15.75820249975979,-0.07015361103007788,1.2600342745676154,-1.2482714020761871
1.6405273782762644,15.52071329576388,-0.0687646975392955,1.239852083284062,-1.208489981026541
1.6275921888851066,15.287028559756529,-0.0673951907886804,1.219987243109117,-1.1702599472357176
1.6149153249710901,15.05708895159863,-0.06604548199044101,1.2004296848687668,-1.1335039272843173
1.602492996687732,14.830837006510215,-0.064715868360698,1.1811697371145362,-1.0981491258544964
1.590321365648009,14.608217061419506,-0.06340656363638457,1.1621981059455588,-1.064127010775589
1.5783965598895509,14.38917518502964,-0.06211770750528049,1.1435058560530387,-1.0313730226640159
1.5667146871405517,14.173659111379102,-0.06084937406313249,1.1250843928999967,-0.9998263070110107
1.5552718465616164,13.96161817668775,-0.05960157939934347,1.1069254459563407,-0.9694294667784623
1.5440641391205192,13.7530032592949,-0.058374288401680394,1.089021052915769,-0.9401283337481923
1.5330876767405948,13.547766722509348,-0.05716742086068119,1.0713635448269034,-0.9118717570357006
1.5223385903489808,13.345862360203533,-0.05598085694578129,1.053945532076392,-0.8846114073280364
1.5118130369379694,13.14724534499545,-0.0548144421174977,1.0367598911665827,-0.858301595538875
1.5015072057411545,12.951872178872318,-0.05366799153318631,1.0197997522348166,-0.8328991046938039
1.4914173236157084,12.759700646119796,-0.052541293997825124,1.0030584872654207,-0.8083630339667215
1.481539659712856,12.570689768429407,-0.05143411550588265,0.9865296989491882,-0.7846546538854262
1.4718803542119416,12.385015677893087,-0.05024278450374336,0.9679344119594342,-0.807042198109003
1.4624423395369228,12.202864043165526,-0.04910473839119313,0.9494512167517275,-0.8310725005719756
1.4532156414378261,12.02421384734734,-0.048018399494036926,0.931077160281801,-0.8566273828183645
1.4441905877870107,11.849044622945932,-0.04698216525138765,0.9128094123645886,-0.8835910648321795
1.435357812924233,11.67733642890824,-0.045994412251533744,0.8946452617163646,-0.9118498995481227
1.4267082612744089,11.509069828363653,-0.045053499851880695,0.8765821124371788,-0.9412921123300504
1.4182331903144272,11.344225866994169,-0.04415777341108252,0.8586174809258319,-0.9718075442859729
1.4099241729603125,11.18278605195005,-0.04330556715854697,0.8407489932227978,-1.003287398292635
1.4017730994414999,11.02473233122981,-0.042495206723689914,0.8229743827797353,-1.0356239865985002
1.393772178725012,10.870047073443263,-0.041725011344605586,0.8052914886576004,-1.068710478861092
1.3859139395488214,10.718713047875696,-0.040993295773188054,0.7876982541589019,-1.1024406494528793
1.3781912311207083,10.570713404769776,-0.04029837189116077,0.7701927259033948,-1.1367086228389263
1.3705972235364003,10.426031655739703,-0.03963855004892234,0.7527730533605238,-1.1714086157889227
1.3631254079687782,10.284651654229105,-0.03901214013657253,0.7354374888562872,-1.2064346751355501
1.3557695966783816,10.146557575920447,-0.038417452393917896,0.7181843880769365,-1.2416804097298204
1.3485239228944133,10.011733898998909,-0.03785279796364373,0.7010122110971528,-1.2770387151715077
1.3413828406148978,9.880165384167896,-0.03731648918915021,0.6839195239661252,-1.3124014898084015
1.3343411243746317,9.751837054306431,-0.036806839655754625,0.6669050008913913,-1.3476593404012198
1.3273938690300877,9.626734173650338,-0.03632216397102507,0.6499674270675034,-1.3827012757409842
1.320536489611535,9.50484222636948,-0.03586077727689815,0.6331057022046731,-1.417414386381946
1.313764721294354,9.386146894401978,-0.03542099448290356,0.6163188448216584,-1.4516835085153441
1.3070746195438865,9.270634034393062,-0.03500112920622841,0.5996059973774571,-1.4853908698572618
1.3004625604912516,9.158289653571043,-0.034599492400453624,0.5829664323280165,-1.5184157152579258
1.2939252416014082,9.049099884375181,-0.03421439065052945,0.5663995592073656,-1.5506339095609079
1.287459682699456,8.943050957629968,-0.03384412410686247,0.5499049328475223,-1.5819175150507783
1.2810632274268159,8.84012917403695,-0.03348698402619183,0.5334822628684455,-1.6121343406301787
1.274733545205618,8.740320873728546,-0.033141249881152544,0.5171314245884194,-1.641147459667416
1.2684686337974824,8.6436124035976,-0.03280518599396098,0.50085247152679,-1.6688146932618797
1.2622668225520288,8.549990082081521,-0.032477037642392806,0.484645649695116,-1.694988055499361
1.2561267764510902,8.459440161040014,-0.032155026578013036,0.46851141389968637,-1.7195131571311266
1.2500475010668874,8.371948784320281,-0.03183734588727983,0.4524504463080124,-1.7422285640361665
1.2440283485666284,8.287501942552424,-0.031522154115447176,0.43646367756416554,-1.762965106854014
1.238069024912382,8.206085423660465,-0.031207568560830155,0.42055231077223537,-1.7815451383611998
1.2321695984240104,8.127684758510341,-0.030891657632556194,0.4047178487027678,-1.7977817355866414
1.2263305098948736,8.052285161045429,-0.03057243214783062,0.3889621246121092,-1.8114778444322945
1.2205525844755332,7.979871462183134,-0.030247835424172954,0.37328733709626544,-1.8224253658446488
1.2148370455705373,7.910428036663653,-0.029915731996835702,0.3576960894245685,-1.8304041845966434
1.2091855310286452,7.843938721956665,-0.02957389475992208,0.342191433806874,-1.8351811448100015
1.2036001119490078,7.780386728247166,-0.029219990288893195,0.32677692102996286,-1.8365089809322064
1.1980833144769936,7.719754538444789,-0.02885156204809957,0.31145665583715876,-1.8341252196309419
1.1926381450266557,7.662023797102332,-0.028466011113351723,0.29623535829397396,-1.8277510779079826
1.187268119446922,7.607175187105824,-0.028060573936476596,0.2811184311429388,-1.8170903969832168
1.1819772967525348,7.555188293036505,-0.027632296530756002,0.26611203274463235,-1.8018286720350924
1.176770318179452,7.506041450244137,-0.02717800423853616,0.25122315454343175,-1.7816322673738032
1.171652452514765,7.459711578971348,-0.026694265916063678,0.23645970095962124,-1.7561479488430178
1.1666296489197676,7.416174003419094,-0.02617735087338072,0.221830568011477,-1.7250029254981574
1.1617085988535816,7.375402256575654,-0.025623176139104968,0.20734571455102924,-1.687805678249128
1.156896809280345,7.337367873135985,-0.025027240421279077,0.19301621639283784,-1.6441479741621174
1.1522026902115283,7.302040175186107,-0.024384539250477393,0.17885428834273534,-1.5936086345201639
1.1476356609655363,7.26938605889206,-0.023689452812597555,0.16487325159461777,-1.5357598583976162
1.1432062815884072,7.239369795705638,-0.022935593262446055,0.1510874135255941,-1.470177217956053
1.138926419097566,7.211952869168243,-0.022115590851669885,0.13751181318381536,-1.3964548474098855
1.1348094632517587,7.187093878837196,-0.02122078647261752,0.12416176924824507,-1.3142278320174394
1.1308706144430427,7.164748556419486,-0.020240779934919177,0.11105215093816541,-1.2232042924930637
1.1271272786086466,7.144869955011384,-0.019162755163988444,0.09819628493658933,-1.123209940348038
1.1235996230930458,7.127408886790445,-0.017970460789704747,0.08560443317855317,-1.014247456186337
1.120311376661327,7.112314688107887,-0.016642659544177048,0.07328186874309285,-0.8965709314289005
1.1172910022877922,7.099536363287491,-0.015150754914084004,0.06122681357687573,-0.7707701733079344
1.1145734459434327,7.089024061721478,-0.013455101342332857,0.04942899238117077,-0.6378489235259843
1.1122028075712138,7.080730615339686,-0.011498986786287427,0.037870443216627594,-0.49926446543215286
1.110236635604862,7.074612402620605,-0.009197560227941666,0.026531795931596262,-0.35687869856736676
1.1087537311643378,7.070627813189873,-0.006411960198628653,0.015411250707688605,-0.21276614719672446
1.1078730072830432,7.068728098573093,-0.0028588174992109317,0.004585745258431197,-0.06885316903978342
