x,y,v_x,v_y,omega
2.375,32.48,0.0,3.7435897435897436,-7.755102040816326
2.3730260806311914,31.77812092157232,-0.020778098619037073,3.6446110819647366,-7.18823031424077
2.367432821085357,31.09459408868802,-0.038098317652903946,3.5504082115542412,-6.684012380931297
2.358824349599297,30.42854788544131,-0.05251717167404718,3.4606044542005487,-6.233519383215245
2.347708332819874,29.779178182428403,-0.06449353126724504,3.3748661038300947,-5.829328545704845
2.3345127216540886,29.145740812439875,-0.07440763889891516,3.292895685522807,-5.465232543135943
2.3195992759562984,28.527545197520478,-0.08257600002519278,3.2144265767866353,-5.136011970040374
2.3032745570316386,27.923948899998315,-0.08926314655017405,3.1392186602887775,-4.837255650484915
2.2857989129583145,27.334352924252652,-0.09469100159008169,3.067054768612927,-4.565217606566922
2.267393861122961,26.758197635434414,-0.09904638615047892,2.997737745263287,-4.316702387819745
2.2482481824339224,26.194959190477235,-0.10248707373413649,2.93108799112804,-4.088972532241803
2.228522973811875,25.644146398525123,-0.10514670123478655,2.8669413978415803,-3.8796734338759684
2.208355853794823,25.10529794440835,-0.10713877262891797,2.805147592861313,-3.6867719991426813
2.1878644762395134,24.577979921453938,-0.10855993847960606,2.745568438237745,-3.508506298268053
2.167149476154641,24.061783629729916,-0.10949269399273436,2.688076737804561,-3.34334403772475
2.146296947488993,23.55632360351491,-0.11000760775092547,2.6325551170902233,-3.18994814966268
2.125380533624214,23.06123583787678,-0.11016516977306638,2.578895047521709,-3.047148153917836
2.104463196202709,22.576176189115877,-0.11001732940066594,2.5269959920666976,-2.9139162254181463
2.083598715868051,22.100818927760457,-0.10960877938521166,2.4767646537798567,-2.7893471150418705
2.0628329688357767,21.634855426002176,-0.10897803148083346,2.4281143120967905,-2.6726412401867297
2.0422050154336686,21.17799296408641,-0.10815832012030482,2.3809642343849395,-2.5630903935565144
2.021748030457861,20.72995364234349,-0.10717836383556827,2.335239152382659,-2.460065623244042
2.001490100079015,20.290473387355362,-0.10606300857333491,2.2908687948607565,-2.3630069203182895
1.9814549058632625,19.859301042267855,-0.10483377264511036,2.247787469218287,-2.2714144165380485
1.9616623130590791,19.43619753253666,-0.10350930950418931,2.2059336858469245,-2.18484084812653
1.9421288774967276,19.020935099479367,-0.10210580167845752,2.165249820019305,-2.1028850845276725
1.9228682831349488,18.613296594929864,-0.10063729686658235,2.1256818068175614,-2.025186555872933
1.9038917203775456,18.21307483108339,-0.09911599531660965,2.0871788652505825,-1.951420441187107
1.8852082136963844,17.82007198030206,-0.09755249606403373,2.0496932482371326,-1.8812935024590893
1.8668249057776953,17.434099020239785,-0.09595600834322143,2.0131800155762707,-1.8145404686243785
1.848747304307535,17.05497522015686,-0.09433453344793652,1.9775968274019045,-1.7509208890606631
1.8309794965911947,16.682527664739666,-0.09269502146091047,1.9429037559369788,-1.6902163890283644
1.813524336428748,16.316590812130368,-0.09104350656484424,1.9090631136345602,-1.6322282701061563
1.7963836070193335,15.957006083212633,-0.08938522406056992,1.8760392960258088,-1.57677540748639
1.7795581631191943,15.603621479499662,-0.08772471173037166,1.8437986377949247,-1.5236924033354329
1.7630480552159067,15.256291227235629,-0.08606589777791822,1.812309280773837,-1.4728279615538789
1.7468526380895344,14.914875445555715,-0.08441217723652651,1.7815410526989486,-1.4240434544053628
1.7309706657990405,14.579239836757608,-0.08276647845288401,1.7514653557021886,-1.3772116557940322
1.715400374849649,14.249255396921821,-0.08113132101439575,1.7220550636218679,-1.3322156196009347
1.7001395570559956,13.924798145282551,-0.07950886628721575,1.6932844273178262,-1.2889476845541525
1.6851856234102822,13.605748870897454,-0.07790096156240164,1.6651289872621289,-1.2473085897010565
1.670535660088749,13.291992895296033,-0.07630917866426004,1.6375654927528212,-1.2072066867512734
1.6561864775790607,12.9834198499038,-0.07473484775351448,1.6105718271654328,-1.1685572374299218
1.6421346537817647,12.679923467145041,-0.07317908695486515,1.5841269387162409,-1.1312817855752797
1.6283765718277199,12.381401384221938,-0.07164282835086813,1.5582107762638082,-1.0953075950771733
1.6149084532574949,12.0877549586533,-0.07012684080939384,1.5328042297218702,-1.060567145918421
1.6017263871260243,11.798889094733408,-0.0686317500481908,1.5078890746980311,-1.0269976815819812
1.5888263555243158,11.514712080141187,-0.06715805628558413,1.4834479210095683,-0.9945408019463682
1.5762150415145595,11.235138159767097,-0.06559261750132499,1.4594354513493,-0.9600557136896083
1.5638977542745405,10.960084497517695,-0.06406303765677047,1.435866256539127,-0.9270773664762026
1.5518677284273479,10.68946832287849,-0.06256881336631089,1.4127250554525017,-0.8955225969980031
1.5401182992087261,10.423209704990906,-0.0611093889349696,1.3899972381009984,-0.8653137021795114
1.5286429114970992,10.16123142867217,-0.059684165924259666,1.3676688284119944,-0.8363780233668995
1.5174351271441464,9.903458877273764,-0.05829251147524443,1.345726449465988,-0.808647566424521
1.50648863082741,9.649819921929097,-0.05693376554303539,1.3241572910041726,-0.7820586542786879
1.4957972346189625,9.400244816775515,-0.05560724717746118,1.3029490790335283,-0.7565516088158702
1.4853548814401716,9.15466609976702,-0.054312259967706986,1.2820900473716805,-0.732070459367325
1.4751556475516097,8.913018498722916,-0.053048096753998776,1.261568910987307,-0.7085626752997908
1.4651937442088037,8.675238842283733,-0.05181404369659122,1.241374841004096,-0.685978920486914
1.4554635185984182,8.441265975469847,-0.05060938378115142,1.2214974412473207,-0.6642728276624933
1.445959454155369,8.211040679560252,-0.04943339982989271,1.201926726222109,-0.6434007908579233
1.4366761703489948,7.984505596029102,-0.04828537707931118,1.1826531004215728,-0.6233217743053926
1.4276084220155547,7.761605154296287,-0.04716460537794983,1.1636673388712149,-0.6039971363480783
1.4187510983047933,7.542285503065287,-0.04607038105111921,1.1449605688235216,-0.5853904670410803
1.4100992212999244,7.326494445037323,-0.04500200847381753,1.1265242525234818,-0.5674674382541427
1.4016479443630407,7.114181374805252,-0.043958801388112735,1.108350170971982,-0.5501956652010782
1.3933925502514664,6.9052972197440425,-0.04294008399688239,1.090430408619701,-0.5335445784227839
1.3853284490448747,6.699794383726889,-0.04194519186197663,1.0727573389292981,-0.5174853053421438
1.377451175917994,6.497626693507506,-0.040973472631505865,1.0553236107484245,-0.5019905605911542
1.3697563887892907,6.298749347619566,-0.04002428661800032,1.0381221354404035,-0.48703454438431826
1.3622398658721546,6.103118867654004,-0.0390970072465903,1.0211460747233954,-0.47259284827864106
1.3548975031516717,5.910693051783895,-0.03819102139007128,1.004388829172482,-0.458642367720246
1.347725311807073,5.721430930414975,-0.03730572960570607,0.9878440273424437,-0.4451612208314164
1.3407274370556732,5.535499988392424,-0.036356109882711554,0.9693237834212582,-0.4758139215362186
1.3339049642719758,5.353077663782823,-0.035459393103577215,0.9509112124692745,-0.5079136235110638
1.3272479995176985,5.1741437640426575,-0.03461392009934251,0.9326035216377232,-0.5413515620804799
1.3207469653180612,4.998678616710187,-0.033818018844207424,0.9143980292303808,-0.5760210060345105
1.3143926028007058,4.826663048613227,-0.03307000765427011,0.8962921612639287,-0.6118170151517291
1.3081759732610962,4.658078365693221,-0.03236819802583067,0.878283448420339,-0.6486362013111652
1.3020884592206095,4.492906333371618,-0.03171089713718739,0.8603695233859961,-0.6863764921516382
1.2961217650392396,4.331129157385309,-0.031096410035126178,0.8425481185751518,-0.7249368962312558
1.2902679171410585,4.172729465018033,-0.030523041524675575,0.8248170642382944,-0.764217268625861
1.2845192639072907,4.017690286654275,-0.02998909777814467,0.8071742869591542,-0.8041180758827228
1.278868475289056,3.865995037581154,-0.029492887676956646,0.789617808547383,-0.844540159214322
1.2733085421895005,3.717627499962088,-0.029032723897311423,0.772145745337514,-0.8853844947762203
1.2678327756631738,3.5725718049037027,-0.02860692374823249,0.7547563079086584,-0.9265519498220914
1.262434805979127,3.4308124145342376,-0.028213809768048864,0.7374478012436082,-0.9679430334673694
1.2571085815932959,3.2923341040077823,-0.027851710082805792,0.7202186253506478,-1.0094576407198148
1.251848368075321,3.1571219433437,-0.027518958527457338,0.703067276376521,-1.050994788349733
1.2466487470350582,3.0251612790046813,-0.027213894527938605,0.6859923482447349,-1.0924523410736031
1.2415046150946696,2.896437715109748,-0.0269348627393103,0.6689925348598266,-1.1337267264114226
1.236411182953388,2.7709370941701437,-0.026680212432075443,0.6520666329254782,-1.1747126364490075
1.2313639745938734,2.6486454772261254,-0.026448296615445285,0.635213545432592,-1.2153027145906465
1.2263588266815464,2.529549123251165,-0.026237470882732646,0.6184322858827811,-1.2553872252237501
1.2213918882114752,2.41363446767658,-0.02604609196012343,0.6017219833233742,-1.2948537040344226
1.216459620461366,2.300888099874051,-0.025872515935763275,0.5850818882821867,-1.333586586510408
1.211558797314042,2.1912967394153426,-0.025715096141330253,0.5685113797042045,-1.371466811945184
1.2066865060185834,2.084847210907661,-0.025572180652971906,0.5520099730082287,-1.408371400014359
1.2018401484661558,1.9815264171789053,-0.025442109372581033,0.53557732939973,-1.444172996734183
1.1970174430646023,1.881321310559219,-0.025323210643772284,0.5192132665969857,-1.478739386334739
1.1922164273052427,1.7842188619731267,-0.025213797349488223,0.5029177711513613,-1.5119329652923046
1.1874354611262123,1.6902060275196256,-0.025112162429777516,0.48669101256970704,-1.5436101744749546
1.182673231189248,1.5992697121751291,-0.025016573748793142,0.47053335947761504,-1.5736208850760884
1.1779287562013323,1.51139673020554,-0.02492526822926652,0.4544453980970142,-1.6018077337627414
1.1732013934293146,1.4265737618180303,-0.02483644516039221,0.43842795335046914,-1.6280054022800374
1.1684908465748405,1.3447873055197164,-0.02474825857091358,0.4224821129475774,-1.6520398366755211
1.1637971751990328,1.2660236255784092,-0.02465880854285131,0.4066092548556715,-1.673727401404174
1.159120805911848,1.1902686938994833,-0.024566131322251893,0.3908110786066938,-1.6928739639439925
1.1544625455704538,1.1175081255422867,-0.02446818806084542,0.3750896409427466,-1.7092739063343834
1.1498235967650932,1.0477271069993748,-0.024362851995582042,0.3594473963510808,-1.7227090614499463
1.145205575910695,0.9809103162534676,-0.02424789384018784,0.34388724307952107,-1.7329475741365092
1.140610534309294,0.9170418335125134,-0.024120965121926092,0.32841257524630996,-1.7397426909929257
1.1360409826040052,0.8561050414074209,-0.023979579144272817,0.313027341649395,-1.7428314882011284
1.1314999191125414,0.7980825133281897,-0.02382108918692396,0.29773611181621573,-1.7419335552866138
1.1269908626110756,0.7429558884860192,-0.02364266346008534,0.28254414968029895,-1.7367496653345995
1.122517890243653,0.6907057322442007,-0.023441256196995944,0.2674574949704228,-1.7269604808840293
1.1180856813677607,0.6413113802945674,-0.023213574075556135,0.2524830518678299,-1.712225372215317
1.113699568327765,0.5947507654251325,-0.02295603687176499,0.23762868359988715,-1.6921814650124567
1.1093655953982657,0.5510002260137554,-0.022664730807175397,0.22290331020408535,-1.6664430931524388
1.1050905874968406,0.5100342961233402,-0.022335352365719346,0.208317004431859,-1.6346019178742734
1.1008822307917268,0.4718254783629803,-0.021963139267058472,0.1938810772561474,-1.596228098426097
1.0967491681252208,0.4363440028074663,-0.02154278353826794,0.17960813911770004,-1.550873077523283
1.092701113402961,0.4035575786561765,-0.021068318801308824,0.16551211510641534,-1.4980747987940781
1.0887489910335681,0.3734311505496066,-0.020532969297562032,0.1516081807522365,-1.437366528691332
1.0849051095862179,0.3459266793223037,-0.019928940674546782,0.13791256900887783,-1.3682909381246051
1.0811833837885727,0.3210029783633388,-0.0192471203532976,0.1244421779275803,-1.2904217211352054
1.0775996269792414,0.2986156524731811,-0.018476635534400352,0.11121388407404278,-1.2033957498432295
1.0741719490054735,0.2787172061063927,-0.01760418524210383,0.09824344610267671,-1.106959411148409
1.0709213151970682,0.26125740956119614,-0.016613012741110676,0.08554388595202782,-1.0010328562145339
1.0678723549152074,0.24618402617619495,-0.015481306015319782,0.07312330757427,-0.8857943198682288
1.0650545605923087,0.233443989119543,-0.014179686857296469,0.060982345653632176,-0.7617813388941153
1.0625041048601933,0.22298502801000097,-0.012667215586023394,0.04911198181525537,-0.6299935173718738
1.060266665595311,0.21475750379649128,-0.010884776675895566,0.03749353622171129,-0.4919601256695213
1.0584020386821413,0.20871568152700348,-0.00874287504168002,0.0261045929307611,-0.3497093336534336
1.0569926141717305,0.2048165118678611,-0.006093172436327704,0.014939298218134993,-0.20556180461568865
1.056164163506735,0.20300999798977415,-0.002627360879414511,0.004076637340707614,-0.06170078080825772
