x,y,v_x,v_y,omega
2.375,32.48,0.0,2.9743589743589745,-4.571428571428571
2.3740895661944106,31.92113459064634,-0.009583513743047924,2.9084348083111036,-4.300393952892566
2.3714840677579736,31.374558972924312,-0.017842785587866533,2.844992746657611,-4.053220268953859
2.3674185476627447,30.83981601970274,-0.0249521627829631,2.7838804451483754,-3.8271654539193047
2.3620972914738316,30.31647630884286,-0.03106106025822767,2.724958616534611,-3.6198617584380317
2.355698190387285,29.80413578544209,-0.03629789854752625,2.66809952452612,-3.4292573524476953
2.348376421355381,29.30241368885245,-0.040773354419887074,2.613185702733243,-3.253568143134915
2.340267562308738,28.8109507056641,-0.04458305659740226,2.560108857144122,-3.091237826669816
2.3314902380029263,28.329407316870515,-0.04780983083219542,2.508768919630482,-2.9409046154358225
2.3221483742516362,27.857462312964245,-0.050525577076121916,2.459073226751291,-2.8013734066172287
2.3123331241712934,27.394811455108794,-0.052792844822226015,2.4109358033060784,-2.6715924084589346
2.3021245187403814,26.941166264056292,-0.054666159713690314,2.364276734088678,-2.550633435490407
2.291592884857222,26.496252921329415,-0.056193144319569184,2.3190216104047976,-2.437675236855155
2.2808000666949813,26.059811269506785,-0.05741546791453935,2.275101040359713,-2.3319893424834675
2.269800480142939,25.631593900356368,-0.05836965368590726,2.232450213855204,-2.232928007565346
2.2586420252101527,25.211365321136412,-0.05908776665920881,2.1910085147759175,-2.1399139121780317
2.2473668772344513,24.798901190694785,-0.05959800150607206,2.150719174083318,-2.0524313342162483
2.2360121744154915,24.393987618095856,-0.05992518606192154,2.1115289585369603,-1.9700185631894704
2.2246106164407133,23.99642051742986,-0.060091213672589724,2.073387890578804,-1.8922613624737261
2.2131909866901576,23.606005013244264,-0.060115415280627145,2.036248995585387,-1.8187873201614422
2.2017786086048146,23.22255489170539,-0.06001488035456213,2.0000680732448477,-1.7492609552432172
2.1903957452145946,22.845892093171084,-0.059804734279332916,1.9648034902741536,-1.6833794676576332
2.179061949490889,22.47584624234795,-0.05949837860177817,1.930415992074631,-1.6208690386874438
2.1677943720700505,22.11225421263257,-0.05910769951231257,1.896868531245146,-1.5614816029980287
2.1566080319515453,21.75495972160566,-0.05864324910353132,1.864126111143391,-1.5049920258920977
2.14551605497824,21.403812954970057,-0.05811440324705022,1.8321556429155956,-1.4511956295611863
2.1345298842318914,21.05867021650505,-0.05752949934609265,1.8009258146107912,-1.3999060206251055
2.1236594659044035,20.71939360185651,-0.05689595673272691,1.7704069711632957,-1.3509531783679902
2.1129134137182732,20.385850694199753,-0.05622038206864479,1.7405710041710163,-1.3041817690488968
2.102299154554225,20.057914280003978,-0.055508661763444614,1.7113912505213136,-1.2594496566849704
2.0918230575890147,19.735462083297207,-0.05476604313350497,1.6828423990236367,-1.2166265849381386
2.0814905489423583,19.418376516981322,-0.05399720577866574,1.6549004043014952,-1.1755930083146093
2.0713062135710496,19.106544449881298,-0.05320632444563853,1.6275424072777043,-1.1362390539188778
2.0612738859240425,18.799856988332408,-0.052397124470222274,1.6007466616579766,-1.0984635975798707
2.0513967306790777,18.49820927121627,-0.05157293073993726,1.5744924658803148,-1.062173440360085
2.0416773147146943,18.201500277452652,-0.05073671099041458,1.548760100052509,-1.02728257333016
2.032117671327371,17.909632645040066,-0.04989111413930048,1.5235307674484062,-0.9937115200918827
2.0227193575787106,17.622512500815713,-0.04903850426765049,1.498786540176355,-0.9613867479043542
2.013491069861641,17.340051211355288,-0.04810136643834605,1.4744901909859953,-0.927824384509813
2.0044400685781056,17.062163210099733,-0.04717233128308147,1.4506466643356688,-0.8957434839116617
1.9955647142161772,16.788763950968224,-0.046252451474058376,1.4272402738907186,-0.865061526705754
1.9868631821059346,16.519771802475127,-0.04534262337060001,1.4042560260366195,-0.8357014590320749
1.9783334904427687,16.255107919779633,-0.044443604662724574,1.3816795812843843,-0.807591272911181
1.969973525144121,15.994696123824966,-0.043556030059883934,1.3594972182384226,-0.7806636231079409
1.961781061889758,15.73846278709911,-0.04268042524919848,1.3376957999284995,-0.7548554769754051
1.9537537856556453,15.486336725585026,-0.0418172193204104,1.316262742324991,-0.7301077941111577
1.9458893080162485,15.23824909650127,-0.04096675583113453,1.2951859848724219,-0.7063652329937266
1.9381851824590832,14.99413330146379,-0.04012930266534037,1.2744539628905094,-0.6835758820631587
1.930638917927981,14.753924894727238,-0.03930506081994779,1.2540555817047963,-0.6616910129725228
1.9232479907874171,14.517561496189128,-0.03849417223861819,1.2339801923805664,-0.640664853970085
1.9160098553789409,14.284982708863268,-0.037696726797975415,1.2142175689442645,-0.62045438157883
1.9089219533218957,14.056130040549878,-0.03691276853934155,1.194757886986164,-0.6010191289240318
1.90198172169396,13.830946829449257,-0.03614230122840167,1.1755917035466865,-0.5823210092234518
1.8951866002122582,13.609378173483641,-0.03538529331582895,1.1567099381966237,-0.5643241531008496
1.8885340375227084,13.39137086310824,-0.03464168236364297,1.1381038552286644,-0.5469947585139169
1.8820214966936564,13.176873317407523,-0.03391137899479721,1.119765046884136,-0.5303009522043077
1.8756464599995286,12.965835523286774,-0.03319427041707444,1.101685417544798,-0.5142126616817422
1.8694064330710698,12.75820897758165,-0.032490223566702586,1.0838571688249377,-0.49870149684758386
1.863298948480584,12.553946631920404,-0.031799087912097276,1.0662727855039575,-0.4837406404470846
1.8573215688233322,12.353002840184331,-0.031120697953709232,1.048925022244171,-0.4693047466147083
1.8514718893497868,12.155333308422083,-0.030454875452034427,1.0318068910426461,-0.45536984684455256
1.8457475401976682,11.960895047082907,-0.029801431412371727,1.0149116493697337,-0.44191326277870824
1.8401461882675687,11.769646325442494,-0.029160167851832574,0.9982327889503885,-0.42891352526117466
1.8346707524050148,11.58174758036127,-0.0284759991224192,0.9796487382203806,-0.4584507832404975
1.8293212172286135,11.397369404618622,-0.027834897471279544,0.9611741643338126,-0.48949015858138695
1.8240895095313272,11.216491269442805,-0.02723570986857543,0.9428062059379645,-0.5219229727668319
1.8189677787850012,11.039093179035408,-0.026677245355908954,0.9245421141399184,-0.5556426286619952
1.81394840391081,10.86515564954524,-0.02615827963557495,0.9063792489144845,-0.5905443733638177
1.8090239992194643,10.694659688688066,-0.025677559220696172,0.8883150758978712,-0.6265250646376173
1.8041874196018624,10.527586775939469,-0.025233805175113023,0.870347163561053,-0.6634829399488206
1.7994317650456826,10.363918843229012,-0.024825716468886417,0.8524731807595318,-0.7013173870920413
1.7947503845487622,10.203638256064249,-0.024451972972380182,0.8346908946590171,-0.7399287154060966
1.7901368794960222,10.046727795012888,-0.024111238109093623,0.8169981690395157,-0.7792179265419157
1.7855851065631125,9.893170637470707,-0.023802161184690463,0.7993929629834544,-0.8190864837202333
1.7810891802069027,9.742950339641382,-0.023523379406992274,0.7818733299568107,-0.8594360783769962
1.776643474800379,9.59605081865238,-0.02327351960904672,0.7644374172958432,-0.9001683930459383
1.7722426264674715,9.452456334728257,-0.02305119968471653,0.7470834661159594,-0.9411848592691346
1.7678815346717873,9.312151473339199,-0.022855029743536155,0.729809811663588,-0.9823864092567166
1.7635553636122137,9.175121127238167,-0.02268361298881903,0.7126148841367262,-1.0236732199354495
1.7592595434778628,9.041350478294685,-0.022535546320137826,0.6954972100051745,-1.0649444479315318
1.7549897716149103,8.910824979026785,-0.022409420658307526,0.6784554138674717,-1.1060979539246998
1.7507420136585266,8.783530333724986,-0.02230382098783919,0.661488220888294,-1.1470300146873291
1.7465125046843781,8.659452479053165,-0.022217326108458862,0.6445944598677275,-1.1876350209824957
1.7422977504361272,8.538577564000494,-0.022148508083655212,0.6277730670025029,-1.2278051593376431
1.7380945286880034,8.420891929046384,-0.022095931370279816,0.6110230904091686,-1.2674300755343788
1.7338998908049796,8.30638208438592,-0.02205815160891804,0.5943436954904706,-1.3063965174589143
1.7297111635673814,8.195034687046608,-0.022033714050011796,0.5777341712391231,-1.3445879547409538
1.7255259513320103,8.086836516708036,-0.022021151585475216,0.5611939375879477,-1.3818841723710669
1.7213421386081669,7.98177445001361,-0.02201898234971757,0.5447225539323177,-1.4181608352281505
1.717157893134433,7.879835433137863,-0.022025706847480488,0.5283197289702781,-1.4532890201710835
1.7129716695508552,7.7810064523430285,-0.022039804558599732,0.5119853320279697,-1.487134712055448
1.7087822137714372,7.685274502224345,-0.022059729961590016,0.49571940606343246,-1.5195582597332509
1.704588568173762,7.592626551304086,-0.022083907908676665,0.4795221825708721,-1.550413787790822
1.7003900777363712,7.503049504589015,-0.022110728274385164,0.46339409864040115,-1.5795485594930483
1.69618639727046,7.416530162653963,-0.02213853978783653,0.44733581646540643,-1.6068022861546287
1.6919774999108197,7.333055176754783,-0.022165642945220526,0.43134824563121177,-1.6320063779867204
1.68776368705212,7.2526109994061905,-0.02219028188319727,0.4154325685645178,-1.654983131422978
1.6835455999410174,7.175183829783155,-0.022210635075776076,0.39959026957270855,-1.6755448480899313
1.6793242331627032,7.1007595532180865,-0.022224804695952498,0.3838231679543231,-1.6934928810658512
1.6751009502930554,7.02932367396955,-0.022230804458235994,0.36813345571449296,-1.708616605033859
1.6708775020253628,6.960861240332225,-0.0222265457280023,0.3525237404678631,-1.7206923086172796
1.6666560471247724,6.895356761043562,-0.022209821646633335,0.3369970941496287,-1.7294820099335162
1.6624391766157118,6.832794111823031,-0.022178288975058677,0.3215571081717443,-1.7347322007179589
1.658229941669717,6.773156430761059,-0.02212944729856977,0.3062079556384657,-1.736172530978544
1.6540318857365006,6.716426001166582,-0.02206061515633982,0.290954461145524,-1.7335144561004503
1.6498490815544051,6.662584120401444,-0.021968902549927873,0.27580217848752014,-1.7264498831642394
1.6456861737948068,6.611610953203982,-0.02185117913005654,0.2607574762225921,-1.714649875202655
1.6415484282497246,6.563485368075657,-0.021704037133966833,0.24582763039136568,-1.697763504448306
1.6374417886806287,6.5181847555408865,-0.02152374780388552,0.2310209226062186,-1.675416993028218
1.6333729427376902,6.475684827594389,-0.021306209490201674,0.21634673998849635,-1.6472133488463474
1.629349398778743,6.435959398579193,-0.021046884814505694,0.2018156706977745,-1.6127328053001062
1.6253795760416039,6.398980149327851,-0.020740722944853386,0.1874395845795085,-1.5715345197133266
1.6214729115764879,6.3647163789961,-0.0203820608984747,0.1732316820704971,-1.523160195690064
1.617639988832115,6.333134753120589,-0.019964494305451806,0.15920648504013218,-1.4671405933228088
1.6138926951482682,6.304199062725793,-0.01948070236661886,0.14537972964194099,-1.4030063066371323
1.6102444191960674,6.277870018665631,-0.01892220239338813,0.13176810257030605,-1.3303047446573228
1.6067103055354135,6.254105118769303,-0.018278994034550158,0.11838873844367308,-1.2486259504819235
1.6033075933968817,6.232858643403102,-0.01753902847631,0.10525837067423068,-1.1576406516064282
1.6000560828784756,6.214081856992426,-0.016687398033228447,0.09239201259606167,-1.057154474795685
1.5969787976360426,6.197723514213877,-0.01570507820290702,0.07980106928339523,-0.9471818662601069
1.5941029546501428,6.183730776394441,-0.014566953227616504,0.06749090776328201,-0.8280404076669956
1.5914614190136482,6.1720506049708845,-0.01323868505127551,0.05545826511625098,-0.70045822088334
1.589094938444123,6.162631553967547,-0.01167163673320096,0.043689640182041786,-0.5656706446368374
1.5870556934705065,6.15542552854474,-0.009794099831183806,0.03216325900540015,-0.4254566304381847
1.5854133665348704,6.150388317851693,-0.007493552122881088,0.02086001144771654,-0.28203984636671187
1.584267539363157,6.14747580176579,-0.004567786526732749,0.009798052614432663,-0.13777859095800082
1.5837874719998073,6.146622458415617,-0.00048555414010730946,-0.000815491033683417,0.005314832113902462
