x,y,v_x,v_y,omega
2.375,32.48,0.0,2.4615384615384617,-6.530612244897959
2.3734593001038644,31.92026473373359,-0.013397390401177937,2.405724723386823,-6.140359141251352
2.36905047165565,31.37311375650548,-0.0249402482789483,2.3521098612054336,-5.784730461849262
2.362171788624829,30.838058519557123,-0.03487438677166924,2.30054437312812,-5.459683866498367
2.353169116362101,30.314643120201175,-0.043409719860746744,2.2508938821409723,-5.161744115988466
2.3423434876708478,29.80244106824202,-0.0507261818023263,2.203037004460368,-4.8879107198084135
2.329957444985224,29.301052498509588,-0.05697853720309739,2.156863601908609,-4.635582764985384
2.316240376620257,28.81010175061375,-0.06230031814444268,2.1122733363160737,-4.402497312437606
2.3013930272345333,28.329235253613124,-0.06680706781837177,2.069174463689362,-4.186678598159487
2.285591326156653,27.858119665941665,-0.07059902851102369,2.02748282041029,-3.9863959055655607
2.2689896490710604,27.396440230672475,-0.0737633809289119,1.9871209645391876,-3.8001284457515894
2.2517236066102155,26.943899313758017,-0.07637611873060493,1.948017443412617,-3.6265359380750146
2.2339124361298865,26.50021509880508,-0.07850362457660683,1.910106164873792,-3.464433855004653
2.2156610592397827,26.065120416615095,-0.08020400055473083,1.873325854169554,-3.312772504434635
2.197061856702512,25.638361691436934,-0.08152819542153163,1.8376195821623,-3.1706192852643014
2.178196203488185,25.219697988857757,-0.082520962963922,1.8029343533087863,-3.037143579401503
2.159135799618919,24.808900152661717,-0.08322167937752217,1.7692207440480812,-2.911603843818303
2.1399438266059803,24.405750019940292,-0.08366504247412128,1.7364325839643189,-2.793336546084537
2.1206759545025715,24.010039705337057,-0.08388167146856325,1.7045266734551148,-2.6817466505770042
2.101381220658324,23.621570946626328,-0.08389862282924078,1.6734625327251271,-2.5762994138247066
2.082102798003956,23.24015450491618,-0.08373983503482807,1.6432021777978891,-2.4765132888810193
2.06287866798778,22.865609613675808,-0.0834265129319194,1.613709919944497,-2.381953772267513
2.0437422110278245,22.497763471549593,-0.08297746063291288,1.5849521855008353,-2.292228054500846
2.024722725453015,22.136450774562967,-0.08240937045238363,1.5568973535133024,-2.206980357731049
2.0058458843189118,21.78151328386959,-0.08173707419199609,1.5295156090378053,-2.1258878625560187
1.987134138145284,21.43279942565325,-0.08097376210041707,1.5027788102347288,-2.0486571413971215
1.9686070704917307,21.090163920194588,-0.08013117401743809,1.4766603676666734,-1.9750210285298087
1.9503167170691893,20.75347582812666,-0.07891537748292263,1.451062172054441,-1.896829671300532
1.9323092650363416,20.422609290760278,-0.07767116193314422,1.426038152870605,-1.8226261359067992
1.9145905147494862,20.09743488150577,-0.0764049275177735,1.4015654058642648,-1.7521553739421
1.8971648833623806,19.777828304273374,-0.0751223019353172,1.3776222222435104,-1.6851817565833003
1.8800355723531461,19.463670127637528,-0.07382822857976648,1.3541880093725605,-1.6214873613632563
1.863204715972267,19.15484553650597,-0.07252704429744244,1.3312432178583549,-1.560870430403956
1.8466735128523135,18.85124409989453,-0.07122254804997988,1.308769274415032,-1.5031439809350087
1.830442342741768,18.552759553541065,-0.06991806160693737,1.2867485199629471,-1.4481345512915138
1.8145108700839532,18.25928959621031,-0.06861648324362538,1.2651641524783814,-1.3956810676339122
1.7988781359522807,17.97073569864665,-0.06732033529265646,1.2440001741621307,-1.3456338184075802
1.7835426396704697,17.687002924225816,-0.06603180628830979,1.22324134254078,-1.2978535251013472
1.7685024112872436,17.407999760440852,-0.06475278834843737,1.2028731251545766,-1.2522104992052645
1.7537550759361056,17.13363796043314,-0.06348491035711204,1.182881657521157,-1.2085838764371006
1.7392979109893614,16.863832393847215,-0.062229567440664074,1.1632537040955877,-1.1668609203281533
1.725127896809296,16.598500906349116,-0.06098794716859962,1.1439766219748169,-1.1269363881524066
1.7112417618062592,16.337564187203313,-0.05976105285780705,1.1250383271191369,-1.0887119529661553
1.6976360224316964,16.08094564435283,-0.058549724312304145,1.106427262885049,-1.05209567621276
1.6843070186623628,15.828571286492469,-0.05735465629059736,1.0881323706833255,-1.0170015259518432
1.6712509454688094,15.580369611665649,-0.0561764149576932,1.0701430625933834,-0.9833489363048272
1.6584638807056293,15.336271501952645,-0.05501545254822057,1.0524491957805642,-0.9510624041785674
1.645941809811939,15.096210123851549,-0.05387212044039162,1.0350410485767823,-0.9200711197439655
1.6336806476673233,14.860120833984013,-0.05274668081713412,1.0179092980974453,-0.8903086275137664
1.6216762579102766,14.627941089785754,-0.05163931707022857,1.001044999278726,-0.8617125151892215
1.609924469992391,14.399610364867328,-0.05055014308529977,0.9844395652293277,-0.8342241277341097
1.5984312846393927,14.175195574993705,-0.04939059911468522,0.9669933901934886,-0.8297027676947358
1.5872003499538125,13.954777852438845,-0.048269702499054684,0.9496824581096416,-0.8279095368659833
1.5762227702485894,13.73832657325784,-0.0471875123289723,0.9325025782469318,-0.8286961759780826
1.5654896526052808,13.525812056310027,-0.04614394543892807,0.9154497430384044,-0.8319195586617805
1.5549921381101217,13.317205522174785,-0.04513878930158668,0.8985201190071954,-0.8374413235576293
1.5447214302454957,13.112479054074523,-0.044171713869073224,0.8817100383863794,-0.8451275233393992
1.5346688206697536,12.911605560650049,-0.043242282441728376,0.8650159913916696,-0.854848289025938
1.52482571260057,12.714558740442289,-0.042349961638130755,0.8484346191105907,-0.8664775080456556
1.5151836420007676,12.521313047942343,-0.04149413053406363,0.8319627069759076,-0.8798925145958385
1.5057342967506193,12.331843661078683,-0.04067408903244265,0.8155971787950441,-0.894973790905941
1.4964695339769765,12.146126450016489,-0.03988906552097338,0.7993350913110001,-0.9116046780704183
1.4873813956970803,11.964137947149222,-0.03913822386942783,0.783173629273918,-0.9296710951630506
1.4784621229235002,11.78585531816703,-0.03842066981387735,0.7671101010060011,-0.9490612653814023
1.4697041683662442,11.61125633409005,-0.037735456770957646,0.7511419344459843,-0.969665447997332
1.461100207858642,11.440319344157537,-0.037081591121235165,0.735266673662842,-0.9913756749074619
1.4526431506250497,11.273023249465638,-0.036458036996959514,0.7194819758319337,-1.0140854905863008
1.4443261485007217,11.109347477247873,-0.03586372060589183,0.7037856086703779,-1.037689694244245
1.4361426042073058,10.94927195569258,-0.035297534119464104,0.6881754483321505,-1.062084082982848
1.4280861787812922,10.792777089191144,-0.03475833915021892,0.6726494777672838,-1.0871651947203254
1.4201507982473855,10.639843733909238,-0.03424496984027373,0.6572057855536437,-1.1128300496309715
1.412330659624121,10.490453173570941,-0.033756235579419,0.64184256521415,-1.1389758888026165
1.4046202363451257,10.344587095342053,-0.03329092336836523,0.6265581150370405,-1.1654999087660205
1.3970142831762131,10.202227565694269,-0.03284779983956954,0.6113508384219464,-1.192298990488677
1.3895078407059915,10.063357006126022,-0.032425612944966146,0.5962192447802126,-1.219269421352334
1.3820962394858927,9.927958168608516,-0.03202309331676273,0.5811619510241759,-1.246306608548095
1.3747751038944807,9.79601411061672,-0.03163895530421177,0.5661776836870925,-1.2733047822246646
1.3675403558006198,9.667508169594534,-0.031271897685882614,0.5512652817232191,-1.3001566866137446
1.3603882181006017,9.542423936691037,-0.030920604053406082,0.5364237000463187,-1.326753257231408
1.3533152182056873,9.420745229590114,-0.030583742858892267,0.5216520138747485,-1.3529832821154926
1.3463181915587836,9.302456064238836,-0.03025996711418382,0.506949423962441,-1.378733044907045
1.3393942852621918,9.187540625260269,-0.029947913725744606,0.49231526280771026,-1.4038859474196757
1.3325409619026443,9.075983234813581,-0.02964620244423351,0.47774900194608716,-1.4283221091664091
1.3257560036652583,8.967768319638086,-0.029353434402601998,0.4632502604495288,-1.4519179411327303
1.3190375168347173,8.862880375987547,-0.029068190210797186,0.4488188147725604,-1.4745456909026102
1.3123839367900694,8.761303932126467,-0.028789027568749428,0.43445461010640435,-1.496072956069908
1.3057940336091653,8.663023508020345,-0.028514478352154746,0.4201577734250929,-1.5163621627135297
1.2992669184101573,8.568023571806656,-0.028243045117480502,0.40592862843306343,-1.5352700055999347
1.2928020505708513,8.476288492581897,-0.027973196963441877,0.3917677126517769,-1.5526468467284729
1.2863992459823526,8.387802488981915,-0.02770336467567809,0.3776757969132782,-1.5683360688931927
1.2800586865116936,8.302549572967397,-0.02743193506918298,0.36365390756078464,-1.5821733811559424
1.2737809308694277,8.220513488153639,-0.027157244428781493,0.34970335168930233,-1.593986073590923
1.2675669271030545,8.141677641943396,-0.02687757093098501,0.3358257457910727,-1.6035922194860155
1.2614180269663373,8.06602503063462,-0.026591125910033386,0.3220230481982763,-1.6107998245359358
1.2553360024490436,7.993538156582417,-0.026296043805563687,0.3082975957339311,-1.6154059246712078
1.2493230647927225,7.924198936399904,-0.02599037059722837,0.294652144983584,-1.6171956373692746
1.243381886367711,7.857988599090866,-0.02567205048982792,0.28108991857325744,-1.6159411760662379
1.2375156258473623,7.794887572926974,-0.02533891055668249,0.26761465676493473,-1.6114008443093997
1.2317279571915472,7.7348753598278215,-0.02498864297214453,0.25423067453203607,-1.6033180365323068
1.2260231030488637,7.677930395995215,-0.02461878435553792,0.24094292401238063,-1.5914202871807672
1.2204058733149739,7.624029897627576,-0.024226691591329945,0.2277570617931749,-1.575418431346722
1.2148817097574292,7.573149690747808,-0.02380951325688518,0.2146795197700383,-1.555005970889645
1.2094567378576977,7.525264024595597,-0.023364155436431736,0.20171757720570235,-1.529858784225266
1.204137827364276,7.480345368778497,-0.0228872401585404,0.18887942989952375,-1.49963538112816
1.1989326635529345,7.4383641956141275,-0.02237505385312398,0.1761742497906421,-1.4639779937495143
1.1938498319408823,7.399288751073453,-0.02182348190385102,0.16361222447608786,-1.4225149219773512
1.188898920344019,7.363084820797223,-0.02122792328626441,0.1512045605345966,-1.3748647285724156
1.184090643929108,7.329715502274475,-0.02058317597383276,0.13896342661974317,-1.32064312273942
1.179437001659732,7.299141001044134,-0.01988327854247974,0.1269018014701851,-1.2594736944485811
1.1749514768421245,7.2713184783893325,-0.01912128508888864,0.11503317813677359,-1.1910040700362912
1.170649301244403,7.246201991000923,-0.018288937499994325,0.10337106002332085,-1.1149295235588537
1.1665478128736606,7.223742579400934,-0.0173761787673308,0.09192817128094045,-1.0310264871687955
1.1626669540357042,7.20388857957067,-0.01637041982359381,0.08071530550397914,-0.9391984680281898
1.159029981892859,7.186586244882875,-0.015255424896799165,0.06973977873772085,-0.8395359669669541
1.1556645032659367,7.171780757908337,-0.014009606641656954,0.059003586258268396,-0.732388923864618
1.152604008073706,7.1594176532117295,-0.012603395029913112,0.0485016719730989,-0.6184432144427475
1.1498901851904937,7.149444508878922,-0.010995064824108105,0.0382213222252405,-0.4987802036011136
1.1475765403558669,7.141812409744606,-0.009123585911776456,0.028144757203588708,-0.37488158921323744
1.1457345147967677,7.136475965078802,-0.0068940276456077275,0.018259109455579507,-0.24852909803054776
1.1444659769466161,7.133388803521381,-0.004136736268753594,0.008585773652418366,-0.12155529226585687
