x,y,v_x,v_y,omega
2.375,32.48,0.0,2.923076923076923,-6.653061224489796
2.373856846391542,31.959421589418657,-0.012701706760640382,2.8611276389379507,-6.28249568359686
2.3705758030629,31.449793278145115,-0.023754330224275068,2.801409152990318,-5.942451674589206
2.3654353508361035,30.950725815206823,-0.033361805629018575,2.7437848796573623,-5.629620110605286
2.3586797498878456,30.46185343606026,-0.041700427129401196,2.6881304441933267,-5.341122011369544
2.3505236372262073,29.982831801085226,-0.04892304688880397,2.6343321666404096,-5.074443881967872
2.341155933021876,29.513336185049976,-0.05516255538154645,2.5822857893068054,-4.827384128053324
2.3307431726800045,29.05305987795134,-0.06053478175035489,2.531895400678023,-4.598008386173953
2.319432359263922,28.60171276517579,-0.06514092287278526,2.4830725190503418,-4.384612103113331
2.3073534133813514,28.159020060828247,-0.06906958693355808,2.4357353070334513,-4.185689045208627
2.294621283774336,27.724721172729012,-0.07239851981105862,2.3898078940691736,-3.99990468571756
2.281337770774828,27.29856868127709,-0.07519606907235851,2.345219788729943,-3.8260736256449386
2.2675931058733196,26.8803274173388,-0.07752242983329288,2.3019053661399322,-3.6631403656717865
2.2534673234274765,26.469773626707124,-0.07943070845385063,2.259803418656478,-3.51016287470804
2.239031454654073,26.06669421061482,-0.08096783347285733,2.2188567601469047,-3.366298502080638
2.224348569226419,25.67088603336743,-0.08217533794551961,2.1790118759352253,-3.230791861431149
2.209474685828932,25.282155289464153,-0.08309003313767013,2.1402186118789484,-3.1029643795270982
2.1944595697349927,24.9003169236518,-0.08374459012832054,2.102429897147191,-2.982205255809757
2.1793474327438007,24.525194098253483,-0.08416804310714705,2.0656014961674463,-2.8679636212314485
2.1641775485336217,24.15661770286422,-0.08438622589484238,2.0296917859354817,-2.7597417198034204
2.148984794580655,23.794425902137164,-0.08442215136034172,1.9946615554762435,-2.6570889648567535
2.1338001301889804,23.438463717918548,-0.08429634188048499,1.9604738247306195,-2.5595967455469344
2.118651018824724,23.088582642443768,-0.08402711772236966,1.9270936805447112,-2.4668938785788175
2.1035618018037674,22.744640279695307,-0.08363084917714497,1.894488127771528,-2.378642616261908
2.0885540294120917,22.406500012356314,-0.08312217739702643,1.8626259537728438,-2.2945351354386143
2.0736467547125508,22.074030692081003,-0.08251420815343154,1.831477604841705,-2.214290443050431
2.0588567945881167,21.74710635105167,-0.081818682118056,1.8010150732619856,-2.137651643512921
2.0441989619699945,21.425605933008256,-0.08104612474996933,1.7712117938870475,-2.064383520978171
2.0296862726834557,21.109413042125,-0.08020597843379386,1.742042549260256,-1.9942703962311823
2.0153301299015274,20.798415708273765,-0.07930671914318838,1.713483382420106,-1.9271142236046734
2.0011404888156226,20.492506167358762,-0.07835595958908564,1.6855115166354828,-1.8627328980768492
1.9871260038036174,20.191580655535127,-0.07736054054430584,1.6581052814049448,-1.80095874677983
1.9732941600919318,19.895539216236966,-0.07632661180775716,1.6312440441301588,-1.7416371826087194
1.959651391662375,19.60428551904068,-0.07525970407620762,1.6049081469396682,-1.6846255005785822
1.9462031869413208,19.31772668947842,-0.0741647928243936,1.57907884819657,-1.6297918001083846
1.9329541836235615,19.035773148996093,-0.07304635515071047,1.553738268273715,-1.5770140185832133
1.9199082538219898,18.758338464321316,-0.07190842042230924,1.5288693392238317,-1.526179063413896
1.9070685805937442,18.485339205570238,-0.07075461544708532,1.50445575801037,-1.47718203142248
1.8944377267707633,18.216694812479425,-0.06958820480825877,1.4804819429986589,-1.4299255057714246
1.8820233414849767,17.952331263055225,-0.06834940947825777,1.456890828381349,-1.3820503209697073
1.8698313448677024,17.692176956019168,-0.0671172196025705,1.4337125831303914,-1.336185663036214
1.8578604066485154,17.436158815311085,-0.0658932050550617,1.4109334247371887,-1.2922245745710326
1.8461089323176614,17.18420619310116,-0.06467873195442549,1.3885401553730972,-1.2500668631204477
1.8345750978845592,16.936250767387765,-0.06347498396893377,1.3665201303312793,-1.2096186045477901
1.823256881000611,16.692226445092036,-0.0622829814082692,1.3448612285101589,-1.1707916877716766
1.8121520888231215,16.452069270295635,-0.06110359834161182,1.3235518247831861,-1.1335033970223876
1.8012583829565298,16.215717337294958,-0.05993757795385169,1.3025807641132394,-1.0976760281623597
1.7905733017711807,15.983110708169363,-0.05878554632780767,1.2819373372822482,-1.0632365359676534
1.780094280367948,15.754191334583371,-0.0576480248192201,1.2616112581176773,-1.0301162095791798
1.7698186684286765,15.528902983563107,-0.05652544117268607,1.2415926421074885,-0.9982503736101331
1.7597437461672074,15.307191167006053,-0.05541813951030259,1.221871986304221,-0.9675781126435584
1.749866738573353,15.089003074700244,-0.05432638931030082,1.2024401504270001,-0.938042017074833
1.7401848281222123,14.874287510644823,-0.05325039348015488,1.1832883390776967,-0.9095879484511818
1.7306951661034389,14.662994832478354,-0.052190295617324876,1.1644080849941743,-0.8821648226368756
1.7213948827092107,14.455076893834608,-0.05114618654076569,1.1457912332696856,-0.8557244092908703
1.712281096005472,14.250486989457762,-0.05011811016744336,1.1274299264730343,-0.8302211462854121
1.7033509198983827,14.049179802920364,-0.04910606880021368,1.109316590609193,-0.8056119678213849
1.6946014711965864,13.851111356797713,-0.04811002788641294,1.0914439218646879,-0.7818561451105395
1.6860298758597838,13.656238965162125,-0.04712992030028425,1.073804874086285,-0.7589151385976122
1.677633274515044,13.464521188269273,-0.04616565019682369,1.0563926469453793,-0.7367524607879834
1.669408827314157,13.27591778931723,-0.045217096479698383,1.039200674744006,-0.7153335488300393
1.6613537181980498,13.090389693166323,-0.04428411592149281,1.022222615821649,-0.6946256460767558
1.6534651586277596,12.907898946915125,-0.04336654597062008,1.0054523425249748,-0.6745976919190925
1.6457403908355877,12.728408682234395,-0.04246420727573543,0.9888839317053489,-0.6552202192453231
1.6381842318085496,12.552112706974825,-0.04149311524691008,0.9699602378454409,-0.6872393163863948
1.6307982551152362,12.379213508797097,-0.040573292456571375,0.9511419641293258,-0.7205589288938747
1.6235733867726097,12.209692348822248,-0.039703022461501314,0.9324264800356651,-0.7550701052210492
1.6165008625179866,12.043530951949325,-0.03888058036764352,0.9138112629968211,-0.7906655163702324
1.609572229096679,11.880711487667526,-0.03810423542466554,0.895293895689829,-0.8272392149148763
1.602779345111201,11.721216551320733,-0.037372253302866185,0.8768720637189759,-0.8646863957388288
1.596114381487545,11.565029145753886,-0.036682898071090625,0.8585435536904149,-0.9029031574360528
1.5895698216108813,11.412132663270338,-0.03603443389183829,0.8403062516823512,-0.9417862632945595
1.583138461180357,11.26251086782834,-0.035425126447322985,0.8221581421176318,-0.9812329007602207
1.5768134078303913,11.116147877403336,-0.034853244107849124,0.8040973070490912,-1.021140438239082
1.5705880805640517,10.973028146440456,-0.034317058851478975,0.7861219258718006,-1.0614061780503081
1.5644562090426783,10.833136448318747,-0.03381484694155977,0.7682302754805053,-1.101927104285356
1.5584118327749772,10.696457857744946,-0.03334488936623028,0.7504207308950708,-1.1425996242617302
1.5524493002482807,10.562977732990028,-0.0329054720415078,0.7326917663817764,-1.183319302180978
1.5465632680446206,10.432681697876319,-0.03249488577693901,0.7150419571038693,-1.2239805835096191
1.5407486999846913,10.305555623416279,-0.03211142600005051,0.6974699813410339,-1.2644765084976155
1.5350008663437238,10.181585608996386,-0.03175339223292338,0.6799746233244354,-1.3046984131308719
1.5293153431847615,10.060757962990415,-0.03141908731110245,0.6625547767419032,-1.3445356156812491
1.5236880118569096,9.943059182675736,-0.031106816331694674,0.6452094489767584,-1.3838750868688656
1.5181150587088093,9.828475933313975,-0.030814885313865427,0.6279377661539364,-1.422601101486396
1.5125929750709755,9.716995026243048,-0.030541599550955187,0.6107389790785845,-1.4605948691533062
1.5071185575647745,9.608603395811087,-0.030285261629054695,0.5936124701654318,-1.4977341416695766
1.501688908800777,9.503288074963702,-0.030044169082027984,0.5765577614721709,-1.533892794224291
1.4963014385351119,9.401036169274168,-0.029816611647585825,0.559574523967102,-1.5689403774864135
1.490953865359359,9.30183482918087,-0.029600868083000897,0.5426625881806384,-1.6027416373666812
1.48564421900758,9.20567122016751,-0.02939520249232113,0.5258219564122416,-1.6351559989966518
1.4803708433734286,9.112532490588379,-0.02919786010936213,0.5090528166892259,-1.6660370112328438
1.4751324003410877,9.02240573680318,-0.029007062472203287,0.4923555587018825,-1.6952317477747023
1.469927874546221,8.935277965242644,-0.02882100191520536,0.4757307919707345,-1.72258016080588
1.4647565791974375,8.851136050976994,-0.028637835293497105,0.4591793665364888,-1.7479143829599793
1.4596181631052272,8.769966692303594,-0.02845567684217459,0.4427023965012721,-1.7710579734194911
1.454512619084233,8.691756360807336,-0.028272590057761744,0.42630128679049967,-1.7918251041452018
1.4494402939165263,8.616491246276947,-0.028086578472312735,0.4099777635471616,-1.8100196826963344
1.4444019000886978,8.544157195782585,-0.027895575170223254,0.39373390861242386,-1.8254344089732217
1.4393985295447722,8.474739646134832,-0.027697430873397835,0.3775721985848443,-1.8378497646863228
1.4344316697310227,8.408223548854028,-0.027489900390485357,0.36149554897965663,-1.8470329367025844
1.4295032222489286,8.344593286683999,-0.027270627188337997,0.3455073640206585,-1.8527366790356241
1.4246155244803864,8.283832580590257,-0.027037125795463048,0.3296115925764913,-1.854698123693005
1.4197713746073186,8.225924386097237,-0.02678676168306854,0.31381279067928397,-1.8526375586789567
1.4149740605194974,8.170850777754708,-0.02651672818161019,0.29811619090435537,-1.846257203331921
1.4102273931950948,8.118592820499689,-0.026224019867307755,0.282527778595846,-1.8352400285144663
1.4055357452563353,8.069130426728172,-0.025905401674466255,0.2670543744209912,-1.8192486943512787
1.4009040955604317,8.02244219805792,-0.02555737272445953,0.25170372191514545,-1.797924714640423
1.396338080903764,7.978505251121554,-0.025176123460738376,0.2364845773778064,-1.7708880096070705
1.3918440562268906,7.9372950273862415,-0.024757484060077054,0.22140679745899752,-1.7377370842048923
1.387429165160512,7.898785088112437,-0.024296861121906148,0.2064814166944021,-1.6980501772885743
1.383101423429959,7.862946897373146,-0.023789158106461445,0.19172070263105856,-1.6513878807319733
1.3788698186706525,7.829749598890292,-0.02322867255249795,0.17713816940065377,-1.5972979439571455
1.3747444318131086,7.799159796765629,-0.022608959197991597,0.16274852087339486,-1.5353232787690112
1.3707365877179558,7.771141356588878,-0.021922641859261887,0.14856748109050483,-1.465014582086093
1.3668590467308022,7.7456552525936715,-0.021161146886889245,0.13461145218955795,-1.385949509283762
1.363126255157637,7.722659499123612,-0.0203143150371661,0.12089691969999765,-1.2977609292831844
1.359554682697208,7.702109220711023,-0.019369823412044847,0.10743950710653075,-1.2001773459732918
1.3561632906957366,7.683956932849203,-0.01831230993763678,0.09425258024704708,-1.0930787291615438
1.352974199881546,7.668153119128615,-0.017122032442258035,0.08134534998169428,-0.9765699758545597
1.3500136649968977,7.654647185146835,-0.01577279960939076,0.06872058314920293,-0.8510705123871142
1.3473135257921534,7.643388815142316,-0.014228747109990964,0.056372416900991734,-0.7174098241456486
1.3449134128306037,7.63432959942546,-0.012439174685004386,0.044285535508507674,-0.5769027591814959
1.342864222163831,7.627424451626684,-0.010329610501360345,0.032438328922326454,-0.43135670330972453
1.3412340559069673,7.622631617616488,-0.007783347908234661,0.02081538230208317,-0.2829459452145637
1.3401205664155946,7.619908191904333,-0.004588757551462047,0.00944490338853886,-0.13389710116840736
1.3396925896838974,7.619186766913614,-0.00016653946739557737,-0.001429070158314458,0.013922441329176388
