x,y,v_x,v_y,omega
2.375,32.48,0.0,3.5384615384615383,-7.26530612244898
2.372856469571317,31.747094380663782,-0.020414575511267272,3.4415919790262173,-6.712272095009199
2.366796323208997,31.034019177027865,-0.03730110412987747,3.3496004365539607,-6.223029390441535
2.3574984586651286,30.339791978737583,-0.051249986764106525,3.262087166210619,-5.788115581484698
2.345529088906343,29.66350935391787,-0.062744010938609,3.1786997368342647,-5.3997267186546
2.3313620580528887,29.00433772054881,-0.07218009242762488,3.099125342871043,-5.051385264670844
2.31539510445447,28.361505663537418,-0.07988613231921937,3.023084723904148,-4.737682725689671
2.2979629684786733,27.734297402270904,-0.08613421030741844,2.950327288157889,-4.454078290206541
2.27934802179708,27.12204718610469,-0.09115099618394532,2.880627151520341,-4.196739947871183
2.259788934407096,26.524134447505514,-0.09512602657780722,2.813779882757531,-3.9624181600972066
2.2394877771689705,25.93997958073259,-0.0982183280710067,2.749599800794113,-3.7483447058204864
2.2186158691081226,25.369040242204008,-0.10056174869897436,2.6879177090019315,-3.5521511606918814
2.197318611821926,24.810808089914943,-0.10226927307432351,2.628578979465349,-3.3718028048901
2.175719502252513,24.26480589541181,-0.10343653234865888,2.5714419205644514,-3.2055447402611557
2.1539234757493086,23.730584974250327,-0.10414467244376367,2.51637637621161,-3.051857731719597
2.132019700807353,23.207722890542225,-0.10446270795581421,2.4632625162465027,-2.9094218401433563
2.1100839229910457,22.69582139881561,-0.10444946172330147,2.4119897859117208,-2.777086333097934
2.0881804367630727,22.194504592476726,-0.10415516901929868,2.3624559887443604,-2.653844680323401
2.0663637490631594,21.70341723303202,-0.10362280907511612,2.3145664821576,-2.538813687983247
2.0446799866407788,21.222223238178543,-0.10288921399517527,2.2682334688278996,-2.431216017379963
2.0231680896730992,20.750604310099433,-0.10198599522081893,2.2233753700207357,-2.3303654835415317
2.0018608265850344,20.28825868796242,-0.10094031990360967,2.1799162693794183,-2.235654646675584
1.9807856588406227,19.834900010828143,-0.09977556337650063,2.1377854176137054,-2.1465443023747066
1.959965479490947,19.390256279021727,-0.09851185900136375,2.09691679006643,-2.0625545502122824
1.9394192452073065,18.95406890357395,-0.09716656274759261,2.057248690388578,-1.9832571792229317
1.9191625182145498,18.526091834652462,-0.09575464670723313,2.0187233945779894,-1.9082691559453908
1.8992079318228055,18.106090761021257,-0.09428903321414124,1.9812868304811024,-1.8372470387008575
1.8795655910212674,17.693842373522234,-0.09278087918146005,1.9448882885572116,-1.7698821725051754
1.8602434177537344,17.28913368639342,-0.09123981860456842,1.9094801602886564,-1.7058965439599285
1.8412474489693378,16.89176141094654,-0.08967416981825706,1.8750177011101898,-1.6450391958005048
1.822582094274852,16.50153137673987,-0.08809111298636678,1.8414588151438251,-1.587083117413013
1.8042503589601924,16.118257995915343,-0.08649684239134628,1.808763859375463,-1.531822541287834
1.7862540372881974,15.74176376683413,-0.08489669734193996,1.776895465207539,-1.479070586626976
1.7685938802028947,15.371878813551788,-0.08329527489903928,1.745818375576646,-1.4286572006197802
1.7512697409921292,15.008440458031654,-0.08169652710825122,1.7154992960436999,-1.3804273556099873
1.7342807019204072,14.651292822309543,-0.0801038450033856,1.685906758452584,-1.334239466787786
1.7176251844093842,14.300286458100835,-0.07852013129207147,1.6570109959160513,-1.2899640003875374
1.7013010449729813,13.955278001586613,-0.07694786334033538,1.6287838280289268,-1.2474822468445819
1.685305658800424,13.61612985133376,-0.0753891478268762,1.6011985553315782,-1.206685237116253
1.6696359926142899,13.282709867497786,-0.07384576823154532,1.5742298621538922,-1.1674727835276226
1.6542886682042979,12.954891090629921,-0.07231922614933037,1.5478537270638757,-1.1297526291632685
1.6392600178447079,12.632551478564341,-0.07081077727533604,1.5220473402273644,-1.0934396920757365
1.6245461326385557,12.315573659999401,-0.06932146278325489,1.4967890270577748,-1.0584553924876166
1.610163101405385,12.003848057995484,-0.06765978705646694,1.472026230122404,-1.019215575934466
1.5961249947725658,11.697269092095087,-0.06603646658943184,1.4477734451194502,-0.9818363500007385
1.5824237884107353,11.395731637969384,-0.06445121304704779,1.424011832268205,-0.9462068673156157
1.569051529315629,11.099134433381408,-0.06290363547777422,1.4007234495220255,-0.9122241411317943
1.5560003555642288,10.807379895305878,-0.06139325739270425,1.3778911988163534,-0.8797923995485022
1.5432625127237403,10.520373947933585,-0.059919531564331656,1.355498776157859,-0.8488224998548782
1.5308303673609958,10.238025860787339,-0.05848185284275818,1.3335306252349608,-0.8192313967525117
1.5186964180415545,9.960248096240331,-0.05707956924715937,1.311971894260357,-0.7909416589293123
1.5068533041572238,9.686956165785741,-0.05571199155598833,1.2908083957833578,-0.763881029081384
1.4952938128769135,9.418068494458911,-0.05437840158982472,1.2700265692340718,-0.7379820230271639
1.4840108844776778,9.153506292861092,-0.05307805935527826,1.249613445983255,-0.713181564039019
1.4729976162797576,8.89319343627713,-0.05181020919634268,1.2295566167211376,-0.6894206489405263
1.4622472653806817,8.637056350418924,-0.050574085080569556,1.2098442009760713,-0.6666440428903404
1.4517532503584705,8.385023903362427,-0.04936891513096767,1.1904648186096236,-0.6448000001023608
1.4415091520921903,8.137027303278828,-0.04819392550027105,1.1714075631389493,-0.6238400080424263
1.4315087138291176,7.893000001590476,-0.04704834367185108,1.1526619767500985,-0.6037185528988124
1.4217458406111878,7.652877601209578,-0.045931401260811446,1.1342180268775064,-0.5843929043515631
1.4122145981589578,7.416597769542726,-0.04484233637947587,1.116066084235389,-0.5658229178677548
1.4029092112986596,7.184100155967403,-0.04378039562336436,1.0981969021962623,-0.5479708529293046
1.3938240620069038,6.955326313507655,-0.042744835726690196,1.0806015974204053,-0.5308012057596228
1.3849536871379247,6.730219624455483,-0.0417349249302554,1.0632716316479092,-0.5142805552576364
1.376292775889826,6.508725229702389,-0.0407499440992555,1.0461987945720448,-0.49837742097454174
1.367836167058903,6.2907899615618135,-0.03978918762382076,1.0293751877191526,-0.4830621320818861
1.3595788461246436,6.07636227987836,-0.038851964131030016,1.0127932092661345,-0.46830670638080457
1.351515942202362,5.865392211233555,-0.03793759703355815,0.9964455397319991,-0.4540847384928294
1.3436505777471144,5.657970646933084,-0.03697063587356234,0.9789979297963122,-0.46707796050646794
1.3359836634073181,5.454200723582122,-0.03604759593402224,0.9616680068795239,-0.48212876386804115
1.3285060488696667,5.25405807616654,-0.0351677806150382,0.9444524446974601,-0.4991190901848014
1.3212087377785262,5.05751902420749,-0.0343304202529663,0.9273480501506515,-0.5179342714360895
1.3140829022975016,4.864560544395484,-0.03353467956631619,0.9103517575827423,-0.5384627667663008
1.3071198961736632,4.675160244382742,-0.03277966447024016,0.8934606234910114,-0.5605959085540912
1.3003112664321423,4.489296337641026,-0.03206442830614858,0.8766718216681975,-0.5842276567036779
1.2936487638194436,4.306947619296324,-0.03138797752907669,0.8599826387575468,-0.6092543601411562
1.287124352105254,4.128093442855189,-0.03074927689177605,0.843390470205628,-0.6355745245286665
1.2807302163447039,3.9527136977405952,-0.030147254161083357,0.8268928166000402,-0.663088585232179
1.2744587701959054,3.780788787557512,-0.02958080439890286,0.8104872803816899,-0.6916986845947126
1.2683026623811249,3.612299609010428,-0.029048793837101596,0.7941715629238584,-0.7213084525760127
1.262254782374092,3.4472275313962726,-0.028550063372734944,0.7779434619728605,-0.7518227898220182
1.2563082653906914,3.285554376597112,-0.028083431707270755,0.7618008694477321,-0.7831476522227632
1.2504564967555898,3.1272623994971944,-0.02764769815084055,0.7457417695991091,-0.8151898360054709
1.2446931157132022,2.972334268748604,-0.02724164510999376,0.7297642375303209,-0.8478567623902739
1.2390120187477838,2.820753047808811,-0.02686404027494339,0.7138664380867421,-0.8810562608088804
1.233407362474331,2.6725021761718217,-0.026513638519846068,0.6980466251226813,-0.9146963496512058
1.2278735661593876,2.527565450712288,-0.02618918352723294,0.6823031411585799,-0.9486850134610013
1.222405313928774,2.3859270070589034,-0.025889409145276484,0.6666344174450991,-0.9829299754482846
1.2169975567176878,2.2475713009094065,-0.02561304048411662,0.6510389744548563,-1.017338464123253
1.2116455140175857,2.1124830891947894,-0.025358794754950856,0.6355154228271999,-1.0518169727826374
1.206344675473752,1.980647410994294,-0.025125381852989383,0.6200624647965646,-1.0862710104943472
1.201090802387509,1.8520495680958788,-0.02491150468265572,0.6046788961407158,-1.1206048431289386
1.1958799291776732,1.7266751050884785,-0.024715859220543857,0.5893636086916831,-1.1547212228760693
1.1907083648571144,1.6045097888626039,-0.024537134308586492,0.5741155934595088,-1.188521104559814
1.1855726945822191,1.485539587384494,-0.024374011166606015,0.5589339444272374,-1.2219033469277836
1.1804697813356897,1.3697506475957084,-0.024225162609864775,0.5438178630850031,-1.2547643969347422
1.1753967678065518,1.2571292722746925,-0.02408925195335398,0.5287666637817984,-1.2869979548715584
1.1703510785355176,1.1476618956791,-0.02396493158030459,0.5137797799857349,-1.3184946180049182
1.1653304223990766,1.041335057767057,-0.023850841147704784,0.4988567715575452,-1.3491415001930964
1.1603327955119462,0.9381353767719283,-0.023745605396394105,0.48399733315796334,-1.3788218247300803
1.1553564846349385,0.8380495198779307,-0.023647831527490313,0.46920130392771714,-1.4074144874478767
1.1504000711840106,0.7410641717125799,-0.023556106100393808,0.4544686785994311,-1.4347935868806434
1.1454624359464385,0.6471660003361173,-0.023468991400291808,0.43979962022403474,-1.4608279180733668
1.1405427646218524,0.5563416203669362,-0.023385021214812864,0.42519447472053756,-1.485380426415961
1.1356405543195371,0.46857755283510016,-0.023302695950094997,0.4106537874874324,-1.508307617721489
1.130755621159166,0.38386018130253063,-0.02322047700581908,0.39617832234657885,-1.5294589206750515
1.1258881091403272,0.3021757037279045,-0.02313678031645633,0.38176908312602337,-1.5486759978020357
1.1210385004671672,0.22351007948591217,-0.023049968951733148,0.36742733822630624,-1.565792001304952
1.116207627538707,0.14784897087395166,-0.022958344652650835,0.3531546485542799,-1.5806307705894946
1.111396686843416,0.07517767835478395,-0.022860138159644623,0.3389528992472948,-1.59300596917567
1.106607255029258,0.005481068691054247,-0.022753498165668077,0.3248243356453596,-1.6027201601598065
1.1018413074586009,-0.0612565049710696,-0.02263647869773468,0.310771603993927,-1.6095638217320951
1.0971012396025088,-0.12505129211390198,-0.022507024693617636,0.29679779736634876,-1.613314307855593
1.0923898916829395,-0.18592024410059338,-0.022362955492756336,0.28290650726877575,-1.6137347646419524
1.0877105770370255,-0.2438811249013355,-0.02220194589690189,0.26910188130972756,-1.6105730210299314
1.0830671147591342,-0.29895263458946175,-0.0220215043687291,0.25538868714862206,-1.6035604842558089
1.0784638672800566,-0.3511545469164261,-0.02181894781296261,0.24177238263200448,-1.5924110879858362
1.0739057836782375,-0.40050786220106005,-0.0215913722043619,0.22825919150733898,-1.576820366285104
1.06939844970072,-0.4470349765515067,-0.021335618057708703,0.21485618325884426,-1.556464763306152
1.0649481457256282,-0.49075986799207527,-0.0210482293241178,0.20157135427041248,-1.5310013416671182
1.0605619142623033,-0.531708299261922,-0.020725403659928608,0.18841370544244462,-1.5000681289911921
1.0562476391220166,-0.569908035696713,-0.020362931009468406,0.17539330822225246,-1.4632854517974194
1.0520141392024929,-0.6053890744179995,-0.019956115843139294,0.16252134626618636,-1.4202587621354472
1.0478712810772197,-0.6381838776408841,-0.019499675826128333,0.14981011299941047,-1.3705836821112387
1.0438301165318347,-0.6683275977255718,-0.01898760555849163,0.13727293542620483,-1.313854294592699
1.039903054275607,-0.6958582739495611,-0.018412987357962984,0.12492398099275695,-1.249676112767892
1.0361040799688501,-0.7208169700951004,-0.017767720325434916,0.11277788705997009,-1.1776856690609283
1.032449046547762,-0.7432478072562319,-0.017042121780165006,0.1008491335222138,-1.097579228473998
1.0289560693180635,-0.7631978281199636,-0.016224328026488412,0.089151065180018,-1.0091535843270276
1.0256460800764955,-0.7807166103019014,-0.015299379036064322,0.07769447940985419,-0.9123618030869486
1.0225436256883231,-0.7958555360147699,-0.014247805613195245,0.06648576547460955,-0.8073852170352138
1.019678045868841,-0.8086666442188957,-0.01304343076282466,0.05552478885036792,-0.6947182230587765
1.0170852463700186,-0.8192010806891545,-0.011649897797389348,0.044803177533067326,-0.5752521770897376
1.0148104372312985,-0.8275073922350771,-0.010014951142801418,0.034304551475742046,-0.4503274238637735
1.0129125766741225,-0.8336304024409316,-0.008059911306493047,0.024009831437145385,-0.3217021062009793
1.0114724839399232,-0.8376124729316459,-0.005655257590642522,0.013914649426812496,-0.19137686872577306
1.0106124538652612,-0.8395026060524557,-0.0025355050251852224,0.004086618390444484,-0.06123964761334663
