x,y,v_x,v_y,omega
2.375,32.48,0.0,3.7948717948717947,-3.224489795918368
2.374147904125724,31.76851709085094,-0.008969430255539661,3.694421985644609,-2.9862517709649468
2.371736700572348,31.075669519673063,-0.016411659779993627,3.59871034254356,-2.774611748594041
2.368032760484283,30.400589974675576,-0.022577183252267943,3.5073901311141915,-2.58575930326866
2.363259075529783,29.7424737939895,-0.027672132058261995,3.4201486129497765,-2.416524608001134
2.3576028715015522,29.100572910742887,-0.031866857712587564,3.33670278964613,-2.264256789853639
2.3512217628319942,28.474190543836528,-0.03530270723012741,3.256795809368196,-2.126727841635538
2.3442487523802966,27.86267652046339,-0.038097402787741444,3.1801939103490713,-2.0020562271058755
2.3367963121278,27.265423137603413,-0.0403493367122233,3.1066838039664426,-1.8886457723424932
2.328959728407888,26.681861486231032,-0.04214101823421977,3.036070421005977,-1.7851365029141346
2.320819855638257,26.111458174991238,-0.04354185302505347,2.9681749604655354,-1.6903648759500374
2.312445392074059,25.553712400484294,-0.04461039501913821,2.9028331922391453,-1.6033314452919667
2.3038947675712316,25.00815331966703,-0.045396178694830785,2.839893974258377,-1.5231744409562382
2.295217715058291,24.474337686684493,-0.04594121617823285,2.7792179518735747,-1.4491480797843783
2.286456583115504,23.95184772202755,-0.04628122532478486,2.7206764129363696,-1.380604680201038
2.277647435822104,23.44028918652488,-0.0464466409215312,2.6641502765654423,-1.3169798505720873
2.2688209771551486,22.939289636516364,-0.046463450309578574,2.6095291972083974,-1.2577801724963353
2.260003330178205,22.448496839769014,-0.046353886289827846,2.556710768553171,-1.2025729183284724
2.251216695640781,21.967577334403476,-0.04613700357779479,2.505599814241937,-1.1509774343791526
2.2424799101114075,21.496215115390836,-0.045829159889293,2.456107754312168,-1.1026578935960452
2.2338089201505182,21.03411043512878,-0.04544441864638434,2.4081520379200136,-1.0573171786304252
2.225217186109536,20.580978706271928,-0.044994887048165434,2.361655634257395,-1.0146917014690324
2.21671602677657,20.13654949642017,-0.04449100066726457,2.3165465747084726,-0.9745470018732266
2.208314914164783,19.70056560549964,-0.04394176366733355,2.2727575402444344,-0.9366739957172068
2.2000217261688797,19.272782217734672,-0.04335495207902036,2.2302254888605075,-0.9008857674937119
2.1918429635289125,18.852966121031464,-0.04273728623642243,2.18889131854168,-0.8670148199499915
2.1837839364838025,18.440894987396653,-0.04209457739631216,2.1486995618247584,-0.834910708954449
2.175848925625937,18.036356708713804,-0.0414318526864841,2.1095981085210087,-0.804438003997918
2.1680413207481473,17.639148782813308,-0.04075346181656595,2.0715379535895004,-0.7754745247698198
2.1603637408773473,17.249077745308128,-0.04006316840238403,2.0344729675176803,-0.7479098124649185
2.1528181381927087,16.865958643140168,-0.03936422827801748,1.9983596868819047,-0.7216438012241148
2.1454058881124065,16.48961454619812,-0.03865945677779642,1.9631571230343654,-0.6965856606730605
2.1381278674869955,16.11987609373532,-0.03795128664758376,1.9288265871003718,-0.6726527851187906
2.13098452254758,15.756581072641502,-0.03724181797784237,1.8953315296766708,-0.6497699087758281
2.1239759280133454,15.399574024911047,-0.03653286132988909,1.8626373938018088,-0.6278683295628518
2.1171018385579163,15.048705881906788,-0.03582597504304976,1.8307114799272193,-0.6068852266546564
2.1103617336608704,14.70383362324689,-0.03512249755743512,1.7995228217559212,-0.5867630591852492
2.1037548567242794,14.364819958346054,-0.03442357545930893,1.769042071937086,-0.5674490353523313
2.097280249209981,14.03153302882443,-0.03373018784909664,1.73924139671157,-0.5488946427327511
2.090936780447791,13.70384613016055,-0.033043167542379494,1.7100943786977152,-0.5310552319331406
2.0847231736750795,13.38163745111072,-0.03236321953879233,1.6815759270899775,-0.5138896468110128
2.078638028791527,13.064789829548591,-0.03169093713018165,1.6536621946166277,-0.4973598954429316
2.072679842247418,12.753190523496539,-0.031026815965702524,1.6263305006681221,-0.48143085681578257
2.066847024427796,12.446730996226815,-0.030371266346107963,1.5995592600657942,-0.46607001889764
2.061137914846724,12.14530671440631,-0.029724623980966085,1.5733279169921712,-0.45124724432524693
2.0555507954245997,11.848816958345278,-0.029087159409814302,1.5476168836502577,-0.4369345604414711
2.0500839020859294,11.557164643488782,-0.028459086260402305,1.5224074832602186,-0.423105970841384
2.0447354348843163,11.270256152360393,-0.027840568493418406,1.4976818970386316,-0.40973728595076725
2.0395082747257405,10.988001639208452,-0.027182170017905842,1.4734182414028314,-0.39546019874209976
2.0344047297012717,10.71031438935415,-0.02653935655545065,1.4496054412740547,-0.38181056140615177
2.029421862421911,10.437110217356238,-0.025911877964136937,1.426227948177649,-0.36875357531676906
2.0245567848931936,10.16830782724287,-0.025299464443411197,1.4032708951209498,-0.3562567367547558
2.0198066618772463,9.903828686597777,-0.024701830461299402,1.3807200590379245,-0.34428966145937107
2.0151687135587335,9.64359690754879,-0.024118678154623114,1.358561825688256,-0.3328239243834727
2.01064021760847,9.38753913421003,-0.023549700269203163,1.3367831568250035,-0.32183291318277546
2.006218510726549,9.135584436162866,-0.022994582698385016,1.3153715594609328,-0.31129169412611263
2.0019009897364834,8.887664207591666,-0.02245300667072749,1.2943150570780289,-0.3011768892518601
1.9976851122928,8.643712071718664,-0.021924650631202615,1.273602162637766,-0.29146656371808394
1.993568397256647,8.403663790208231,-0.021409191854619865,1.2532218532615365,-0.2821401224024685
1.989548424787074,8.167457177234553,-0.02090630782509377,1.2331635464613793,-0.2731782149043846
1.985622836189634,7.9350320179286875,-0.02041567741111852,1.2134170778108955,-0.26456264818704583
1.9817893335586774,7.706329990940919,-0.01993698186210953,1.1939726799551038,-0.25627630617386543
1.9780456792451175,7.48129459487291,-0.01946990564904524,1.1748209628660529,-0.2483030756809873
1.9743896951774005,7.25987107835109,-0.019014137169029204,1.155952895258359,-0.2406277781285044
1.9708192620598848,7.0420063735284195,-0.01856936933113691,1.1373597870855394,-0.23323610652694574
1.9673323184697438,6.827649032816101,-0.01813530003876724,1.1190332730441246,-0.22611456728396437
1.963926859870786,6.6167491686601885,-0.01771163258184357,1.1009652970181283,-0.21925042641943895
1.9606009375602067,6.409258396190317,-0.017298075950569314,1.0831480974015573,-0.21263165981599544
1.9573526575622069,6.205129778579245,-0.016894345081006783,1.0655741932413276,-0.20624690716675645
1.9541801794805698,6.004317774962331,-0.016500161041490196,1.0482363711472358,-0.20008542931338863
1.951081715320689,5.806778190775987,-0.016115251167780762,1.0311276729195638,-0.19413706869562314
1.9480555282901288,5.6124681303830215,-0.01573934915390428,1.0142413838485036,-0.18839221265872313
1.9450999315855555,5.421345951861337,-0.015372195104762556,0.997571021642898,-0.18284175938816566
1.9422163873222036,5.23356666124511,-0.014980902404205737,0.9790530901068474,-0.21823935563005334
1.9394035409793284,5.049295684955705,-0.014628006468165497,0.9606413971500481,-0.2549929756829319
1.9366541933026313,4.8685130983074,-0.014312495391803367,0.9423331991479147,-0.29300105430438517
1.9339613409410954,4.6911994880251875,-0.014033318940152764,0.9241258564543164,-0.3321638181816018
1.931318183306794,4.517335932793021,-0.013789392999862668,0.9060168302000823,-0.3723830671576221
1.9287181286290533,4.346903984377128,-0.013579603607933938,0.8880036794408899,-0.413561957913846
1.9261547992807668,4.179885649258452,-0.013402810584557006,0.8700840586504318,-0.45560478919153713
1.9236220364497827,4.016263370708721,-0.013257850794221312,0.8522557155572756,-0.4984167876210801
1.9211139042239707,3.856020011244766,-0.013143541056433436,0.8345164893264684,-0.5419038932063229
1.91862469315477,3.699138835395228,-0.013058680724626999,0.8168643090897186,-0.5859725434820379
1.9161489233607614,3.5456034927127646,-0.01300205394914755,0.7992971928309549,-0.63052945532483
1.9136813472300276,3.395398000963283,-0.012972431637523435,0.7818132466372598,-0.6754814033511032
1.9112169517778195,3.2485067294215213,-0.01296857312256181,0.764410664328661,-0.7207349937792147
1.9087509607142956,3.1049143821993113,-0.012989227546108867,0.7470877274840848,-0.766196432565869
1.9062788362758778,2.964605981529246,-0.01303313496355439,0.7298428058850123,-0.8117712865481436
1.9037962808730655,2.827566850921876,-0.013099027171310354,0.7126743584030973,-0.8573642362311977
1.9012992386074221,2.693782598109067,-0.013185628256515728,0.6955809343633014,-0.9028788187564413
1.8987838967108708,2.563239097679645,-0.01329165486507628,0.6785611754200725,-0.9482171594643501
1.896246686961513,2.435922473305606,-0.013415816180795887,0.6616138179908706,-0.9932796903286751
1.8936842871318864,2.311819079448064,-0.013556813604747456,0.6447376962990462,-1.0379648533828394
1.8910936225280246,2.190915482421399,-0.013713340120113594,0.6279317460868936,-1.0821687870830823
1.888471867680887,2.073198440681516,-0.013884079323440466,0.6111950090697875,-1.1257849933545343
1.8858164482558002,1.9586548841895635,-0.014067704098525658,0.594526638213914,-1.1687039828440324
1.8831250432505673,1.847271892685562,-0.014262874903926503,0.5779259039334608,-1.210812895655341
1.880395587558966,1.7390366726866233,-0.014468237639243453,0.5613922013185283,-1.2519950945670026
1.8776262749836015,1.6339365330016982,-0.01468242104880565,0.5449250585228067,-1.2921297274292576
1.87481556179063,1.5319588585282737,-0.014904033614051102,0.5285241464605974,-1.331091255104144
1.871962170908921,1.4330910820658005,-0.015131659877623615,0.5121892899864822,-1.3687489409531657
1.8690650968879254,1.337320653845044,-0.01536385613285472,0.4959204807583261,-1.4049662974930688
1.8661236117421436,1.2446350084314979,-0.01559914540168973,0.47971789201585213,-1.4396004854388196
1.8631372718258383,1.1550215286133785,-0.01583601161205123,0.46358189554329055,-1.4725016599451615
1.8601059258998656,1.068467505829787,-0.016072892871872375,0.44751308112610944,-1.5035122584627696
1.8570297245735152,0.9849600966311982,-0.016308173721288705,0.4315122788590447,-1.532466224271184
1.853909131328485,0.90448627459158,-0.016540176226397498,0.4155805847158862,-1.55918815948324
1.8507449353600496,0.8270327770077479,-0.01676714975713235,0.39971938985075617,-1.5834924012023017
1.8475382665027023,0.752586045626213,-0.016987259267578405,0.38393041416540397,-1.605182014655382
1.8442906125447562,0.6811321605296392,-0.01719857186869262,0.3682157447458872,-1.6240476976722824
1.8410038392794985,0.6126567661937976,-0.017399041449809208,0.35257787984192235,-1.6398665920549893
1.8376802136905974,0.5471449885916826,-0.017586491064941027,0.3370197791277212,-1.652400999509666
1.8343224307281396,0.48458134207623615,-0.017758592750404693,0.32154492103488924,-1.661397003377283
1.8309336442009283,0.42494962462073715,-0.017912844378133782,0.30615736797035487,-1.6665830031076423
1.8275175023934884,0.3682327998445558,-0.018046543068600346,0.29086184019999967,-1.6676681773211643
1.824078189116912,0.31441286411568825,-0.018156754579575017,0.275663799051205,-1.6643409049369031
1.8206204710277956,0.2634706969247347,-0.018240277937439094,0.26056953980096875,-1.6562671944944913
1.817149752209311,0.21538589270694786,-0.018293604362399768,0.2455862940704706,-1.6430892028336679
1.8136721372191935,0.17013657241453473,-0.018312869217782975,0.23072234058653399,-1.6244239706996781
1.8101945040976495,0.12769917351097604,-0.018293795219523158,0.21598712155615338,-1.5998625719596968
1.8067245892374264,0.08804821783265737,-0.01823162436177083,0.20139135926824644,-1.5689699757074795
1.8032710866212422,0.0511560581846453,-0.01812103475595969,0.1869471633423855,-1.531286072200276
1.7998437648503658,0.016992606980316793,-0.01795603651642306,0.17266811249268815,-1.4863285364643077
1.7964536068284933,-0.014474945748709445,-0.017729837398024882,0.15856928465497555,-1.433598527815134
1.7931129792762368,-0.04328241125900689,-0.017434663152040977,0.14466719440078477,-1.3725906879835805
1.7898358430249948,-0.06946885436870787,-0.017061507913666174,0.13097957517504794,-1.3028095465811562
1.7866380212723185,-0.09307678095019867,-0.016599773693451746,0.11752491515644993,-1.2237952952529239
1.7835375533423778,-0.1141522019296275,-0.016036730832239013,0.10432162146909583,-1.1351629044679041
1.780555178736252,-0.13274448852357068,-0.015356686074349295,0.09138665846714848,-1.036659478184434
1.7777150248507865,-0.14890590477023835,-0.014539670614759907,0.07873351255039689,-0.9282448299861252
1.7750456189808954,-0.16269068639452655,-0.013559338541990835,0.06636945191582524,-0.8101977706139764
1.7725814238758895,-0.17415356466413812,-0.012379557300175488,0.0542924246063688,-0.6832421207814181
1.770365234356822,-0.1833477836134918,-0.010948753426852285,0.04248882749212167,-0.5486671057750463
1.7684520580112486,-0.19032306196635318,-0.009189944947603565,0.030935155169572633,-0.4083839020735194
1.7669158967101226,-0.19512485902258447,-0.0069801740116150575,0.01961007700127597,-0.2648238594767295
1.7658640638261933,-0.19779867351304148,-0.0040917510823800275,0.008535338687729484,-0.12057681670656928
