x,y,v_x,v_y,omega
2.375,32.48,0.0,3.3846153846153846,-2.979591836734694
2.3743054279196754,31.844713965519034,-0.007311285056050106,3.3026060309736875,-2.7813970086431383
2.37232900866916,31.22468143115106,-0.013493128107267747,3.224052225531345,-2.6029823063817497
2.369269442074451,30.619267553879773,-0.01871283604756483,3.148725429955863,-2.441796951290422
2.3652961853536887,30.02787898476387,-0.023110918907827523,3.0764174028431093,-2.29567772825044
2.3605540980912534,29.44996023206352,-0.02680578911780722,3.006937888739507,-2.1627822751390213
2.355167279790762,28.884990432231795,-0.02989756141368199,2.940112635804979,-2.0415351106846953
2.3492422531353454,28.332480471760483,-0.03247114022228173,2.8757816849456486,-1.9305837376791515
2.342870614568978,27.791970412606307,-0.03459873942368949,2.81379788509834,-1.8287627625611778
2.3361312493023205,27.26302718167742,-0.03634194759375796,2.7540255983636266,-1.7350644287390313
2.3290921886655735,26.745242491098814,-0.03775342752989305,2.696339565621705,-1.648614308405418
2.321812172634065,26.23823096104167,-0.03887832017020126,2.6406239086640353,-1.5686511639106664
2.3143419684062305,25.741628421052294,-0.039755408543841374,2.5867712491188497,-1.4945101952622453
2.3067254864131495,25.255090369243153,-0.04041808612017197,2.5346819278194803,-1.4256090498755492
2.29900072754729,24.778290571558582,-0.040895165099403864,2.4842633109654595,-1.3614360953025817
2.291200589304879,24.31091978571401,-0.04121155324176296,2.435429171608994,-1.3015405535017313
2.283353553624712,23.852684596417333,-0.04138882233894368,2.388099136777068,-1.2455241724301511
2.275484275231129,23.403306350183723,-0.04144568706718871,2.3421981919977757,-1.1930341719848465
2.2676140860592793,22.96252017950455,-0.041398409478599324,2.297656236204003,-1.1437572501208957
2.2597614287071353,22.530074107371256,-0.04126114159660039,2.254407680988593,-1.0974144740364618
2.251942229703493,22.105728224220258,-0.04104621633648059,2.2123910890219314,-1.0537569127120023
2.2441702216114168,21.689253930284295,-0.04076439515905717,2.1715488471460715,-1.0125618924319313
2.2364572215286596,21.28043323713134,-0.04042507939627911,2.1318268702534313,-0.9736297774494679
2.2288133723417074,20.879058122863878,-0.0400364909926925,2.0931743325619823,-0.9367811946545374
2.221247352091394,20.484929936054307,-0.03960582743166045,2.055543423328229,-0.9018546347352407
2.213766555977768,20.0978588440195,-0.03913939481703304,2.0188891244066065,-0.8687043734882556
2.206377254839728,19.717663321499835,-0.0386427224254952,1.9831690073793506,-0.8371986661094334
2.199084733366336,19.344169676214786,-0.03812066150494155,1.948343048252715,-0.807218174861661
2.191893410811782,18.977211608125494,-0.037577470648262924,1.9143734579503877,-0.7786545967748947
2.1848069465784588,18.616629799551525,-0.03701688970250782,1.8812245270387458,-0.7514094632250052
2.1778283326893995,18.262271533569738,-0.03644220386653486,1.8488624832958254,-0.7253930875580215
2.1709599748814794,17.913990338372045,-0.035856299374729644,1.8172553608904383,-0.7005236405311608
2.164203763805535,17.571645655480516,-0.03526171195100058,1.786372880073023,-0.6767263363584171
2.1575611376115145,17.235102529915743,-0.03466066903868921,1.756186336398267,-0.6539327146792615
2.1510331370199296,16.904231320590565,-0.034055126662203936,1.7266684986036134,-0.6320800058979207
2.1446204538302522,16.578907429359077,-0.03344680165018903,1.6977935143593996,-0.6111105691360817
2.138323473688319,16.259011047292148,-0.03283719984384498,1.6695368231872363,-0.5909713935597235
2.1321423138248443,15.944426916877461,-0.03222764082431216,1.6418750759147236,-0.5716136551270602
2.1260768563829107,15.635044108956258,-0.03161927961709565,1.614786060097942,-0.5529923218971878
2.120126777871412,15.330755813311512,-0.031013125767096868,1.5882486308993653,-0.5350658019692087
2.1142915752118463,15.031459141914986,-0.030410060123069866,1.5622426469588193,-0.5177956289152816
2.108570588785904,14.737054943924132,-0.02981084962369469,1.5367489108396324,-0.5011461802496916
2.1029630228395733,14.447447631595544,-0.02921616033767643,1.5117491136718275,-0.48508442505755495
2.0974679635547484,14.162545016349998,-0.028626568976269803,1.4872257836496985,-0.4695796974060841
2.0920888685377603,13.88225870314923,-0.02799548383413322,1.4631564605689271,-0.4532763808201556
2.086828531973403,13.606503363129029,-0.027376480001206425,1.439531329117396,-0.43768686321455574
2.0816846545356755,13.33519604947001,-0.02676959829065958,1.4163351304512326,-0.4227716938150124
2.0766549333273803,13.068256651290504,-0.02617483548086926,1.3935532714383174,-0.40849401412927006
2.071737069667256,12.805607770632786,-0.025592150415175076,1.37117178811662,-0.39481936048303806
2.0669287757880648,12.547174606166173,-0.02502146936578701,1.349177311531948,-0.38171548360439833
2.0622277805770186,12.292884843171969,-0.024462690750490394,1.327557035775485,-0.3691521836149073
2.0576318344741478,12.042668549407896,-0.023915689279726177,1.3062986880568752,-0.3571011589597328
2.0531387136303834,11.796458076479553,-0.023380319602005324,1.2853905006625248,-0.34553586796315433
2.0487462234150042,11.554187966373782,-0.022856419507247202,1.2648211846613737,-0.33443140183212333
2.0444522013514836,11.315794862833929,-0.022343812740341952,1.2445799052318163,-0.3237643680515203
2.0402545195514175,11.081217427279995,-0.02184231147087981,1.2246562584937957,-0.31351278322213433
2.036151086708037,10.850396258997833,-0.02135171845944055,1.2050402497395087,-0.303655974487879
2.0321398497035714,10.62327381934093,-0.02087182895598601,1.1857222729647139,-0.2941744887837664
2.0282187948783954,10.399794359706291,-0.020402432361655502,1.1666930916104177,-0.2850500092119344
2.0243859490042913,10.179903853062278,-0.019943313681548006,1.1479438204318158,-0.2762652779206481
2.0206393799992264,9.96354992882156,-0.019494254792817776,1.129465908417833,-0.26780402492161753
2.0169771974167015,9.750681810866269,-0.01905503554955193,1.1112511226905155,-0.25965090233502724
2.013397552738872,9.541250258545372,-0.018625434743388646,1.0932915333189321,-0.25179142360007695
2.00989863949927,9.335207510476291,-0.018205230936628302,1.0755794989871739,-0.24421190723223477
2.006478693257939,9.132507230993756,-0.01779420318264889,1.0581076534605693,-0.2368994247473552
2.003135991449148,8.933104459099155,-0.01739213164672798,1.0408688927983727,-0.22984175240781424
1.9998688531195166,8.736955559773136,-0.016998798138867517,1.0238563632649815,-0.22302732647729445
1.9966756385722797,8.544018177522915,-0.016613986568889617,1.0070634498952313,-0.21644520169919615
1.9935547489316097,8.354251192043979,-0.01623748333289928,0.9904837656725151,-0.21008501273919722
1.990507742766054,8.167814921722687,-0.01583626577821377,0.9720032903410888,-0.2456997233637437
1.9875333028440827,7.984879934066829,-0.015473628137273428,0.9536281586679427,-0.2826392311112858
1.9846241986875743,7.805426471172645,-0.015148520878604852,0.9353556612708426,-0.3208022658175057
1.98177340263699,7.629435280116862,-0.014859858601230064,0.9171831919479121,-0.3600892822922966
1.978974096262057,7.456887593645817,-0.014606524292802257,0.8991082445894149,-0.40040224142601716
1.9762196760024688,7.287765111418093,-0.014387373176546099,0.8811284104392432,-0.4416443934734851
1.9735037581142656,7.122049981734595,-0.014201236172961079,0.8632413757028504,-0.4837200625888973
1.9708201829928957,6.959724783690234,-0.014046922999354313,0.8454449195009405,-0.5265344316686037
1.9681630189398471,6.800772509681405,-0.013923224927472933,0.8277369121709283,-0.5699933265347767
1.965526565436143,6.645176548202667,-0.013828917216780324,0.8101153139210437,-0.6140029984610607
1.9629053559829162,6.49292066686489,-0.01376276123823933,0.7925781738450128,-0.658469904000692
1.9602941605667072,6.343988995565301,-0.013723506300802615,0.7751236293085632,-0.703300481027712
1.957687987805068,6.198366009737338,-0.013709891190137945,0.7577499057226147,-0.7484009198419621
1.9550820868264962,6.0560365136051,-0.013720645426405064,0.7404553167220004,-0.7936769281176951
1.9524719489377014,5.916985623363079,-0.013754490245120127,0.7232382647729774,-0.8390334883928197
1.9498533091307002,5.781198750197063,-0.013810139302259555,0.7060972422377259,-0.8843746066998961
1.947222147482321,5.648661583056171,-0.013886299101731402,0.6890308329295805,-0.929603050829713
1.9445746904993435,5.519360071078957,-0.013981669140138825,0.6720377141990057,-0.9746200765921972
1.9419074124637987,5.393280405568294,-0.014094941760332777,0.6551166595974431,-1.0193251402959644
1.9392170368349197,5.270409001399983,-0.014224801701550646,0.638266542174265,-1.0636155955053381
1.936500537766931,5.15073247773865,-0.014369925329909071,0.6214863384713428,-1.1073863719503694
1.9337551418053727,5.0342376379212865,-0.014528979528601316,0.6047751332903706,-1.1505296342594624
1.9309783298290397,4.920911448353273,-0.014700620222272481,0.5881321253203078,-1.1929344179538564
1.9281678393099837,4.810741016243838,-0.014883490504631103,0.5715566337263829,-1.234486239886799
1.925321666970474,4.703713565987091,-0.015076218332313937,0.5550481058183356,-1.2750666800264856
1.9224380719234855,4.59981641397059,-0.015277413741250018,0.5386061259343164,-1.3145529311700375
1.919515579392322,4.499036941565471,-0.015485665534154197,0.5222304256985004,-1.3528173128363492
1.9165529851155547,4.4013625660197455,-0.01569953737918512,0.505920895835453,-1.389726745220527
1.9135493605557752,4.306780708938835,-0.015917563250073413,0.489677599753082,-1.4251421787064484
1.910504059044955,4.215278761994071,-0.01613824212698214,0.47350078913914856,-1.458917974035065
1.9074167230157364,4.126844049449694,-0.016360031864791014,0.45739092185430585,-1.4909012278285523
1.9042872924870726,4.041463787040975,-0.01658134212114469,0.44134868244799935,-1.5209310377968386
1.901116014994648,3.9591250366695085,-0.016800526220165788,0.4253750056726866,-1.5488377016383916
1.8979034571818942,3.8798146563050473,-0.01701587180882163,0.40947110342692195,-1.574441843444559
1.8946505182966553,3.803519244395712,-0.017225590141060697,0.3936384956187012,-1.597553461406025
1.891358445872316,3.730225077988848,-0.01742780379935454,0.3778790455061987,-1.6179708909196717
1.8880288539112127,3.659918043652304,-0.017620532633311148,0.3621950001416336,-1.6354796779798222
1.8846637439334128,3.5925835601607474,-0.01780167765931938,0.34658903661159907,-1.6498513592681807
1.8812655293066955,3.528206491774089,-0.01796900262191511,0.33106431482692433,-1.660842148012623
1.877837063335536,3.466771050788264,-0.01812011286397546,0.31562453765543286,-1.6681915290266536
1.8743816716604134,3.4082606878876796,-0.018252431084684013,0.3002740191928409,-1.6716207731936843
1.8709031896072699,3.3526579686838645,-0.01836316947472076,0.2850177618999525,-1.6708313922387024
1.8674060052355088,3.299944434704141,-0.018449297596447364,0.2698615431497663,-1.6655035707272534
1.86389510896935,3.2501004470266714,-0.018507505205225185,0.25481201134990894,-1.655294636495124
1.8603761508739314,3.203105010792484,-0.01853415895707704,0.23987679111521507,-1.6398376670509085
1.8568555068739787,3.15893557903755,-0.018525251568741484,0.2250645957788354,-1.6187403836738348
1.8533403555413275,3.1175678347996687,-0.018476341406533807,0.21038534356726918,-1.5915845654245084
1.84983876755128,3.0789754514536583,-0.018382479541335008,0.1958502706012621,-1.5579263344541183
1.846359810615505,3.043129833001732,-0.0182381197826107,0.18147202889268912,-1.5172978396000665
1.8429136737902783,3.0099998390272624,-0.018037004693461395,0.16726474978595426,-1.4692111221582573
1.8395118167855151,2.9795515038441245,-0.01777201640930857,0.15324404161548402,-1.4131653190677727
1.836167152689045,2.9517477669346945,-0.01743497407984928,0.1394268732206273,-1.3486588845292624
1.8328942770926218,2.9265482432358105,-0.01701634798776555,0.1258312709781591,-1.2752092287808916
1.8297097641712003,2.903909078513667,-0.01650484065877443,0.1124757260970184,-1.1923830873462167
1.8266325628338644,2.883782957862401,-0.015886752365815483,0.09937817549524755,-1.099841939804439
1.8236845469190488,2.8661193631898847,-0.015144994105927748,0.08655440000493066,-0.9974074975895908
1.8208913078615265,2.8508652016436002,-0.014257522289042276,0.07401572153488967,-0.8851516252159289
1.8182833350899243,2.8379659310943346,-0.013194822675191136,0.061766073720554045,-0.7635107553743578
1.8158978250728959,2.827367243968819,-0.011915809083004198,0.04979905391645533,-0.6334128676667838
1.8137815357996412,2.8190171444885515,-0.010360920109151529,0.03809673008637762,-0.49638074249719166
1.8119955050095622,2.812867704331751,-0.0084394039969433,0.02663421893258959,-0.3545392817932426
1.810623730044005,2.8088745420251016,-0.006000332482606351,0.015399068505835849,-0.21042544115598927
1.8097940783509086,2.8069880738748694,-0.0027328432341967327,0.004458490970299777,-0.0665178996454463
