x,y,v_x,v_y,omega
2.375,32.48,0.0,2.6153846153846154,-6.408163265306122
2.373917965882485,31.9881823391335,-0.011389832815947073,2.561643393736441,-6.067732213276723
2.370806727004647,31.506400665490837,-0.02136005010866132,2.5097426446073543,-5.753848222326029
2.365920081412542,31.03431564502835,-0.030078324545078007,2.459573360260934,-5.463769575667971
2.3594820360966904,30.571607753357966,-0.037690573516518826,2.4110360257431083,-5.195095513308404
2.351690638586218,30.117975581550354,-0.044324137120031734,2.3640394669685927,-4.945717030000133
2.34272125468699,29.673134343666064,-0.0500904302402606,2.318499879181817,-4.713775776317358
2.3327293829060487,29.236814554959718,-0.05508716745386021,2.2743400019376248,-4.497629555216211
2.321853079337216,28.808760855448753,-0.05940023853385393,2.2314884139672406,-4.295823220601732
2.310215053522197,28.388730958073854,-0.06310529636108399,2.1898789268211787,-4.107064025952171
2.2979244852266727,27.976494704283834,-0.06626910674969469,2.1494500604421916,-3.9302006583862283
2.285078603573008,27.571833212764368,-0.06895070013098711,2.1101445871311544,-3.7642053400497093
2.271764063094194,27.17453810935599,-0.0712023575407406,2.071909132957017,-3.608158494122953
2.258058145672326,26.784410828093634,-0.073070457426293,2.0346938276993423,-3.461235564342085
2.244029812735445,26.40126197483974,-0.0745962050671874,1.9984519960258542,-3.3226956500865485
2.2297406283056023,26.024910746247382,-0.07581626261536667,1.9631398838937202,-3.191871677881405
2.2152455703603446,25.655184397834,-0.07676329470313473,1.928716415194549,-3.0681618776868818
2.2005937453655737,25.291917755813525,-0.07746644208393168,1.8951429744946386,-2.951022370966801
2.1858290186619915,24.934952768058892,-0.07795173374324517,1.8623832123962452,-2.8399607090680337
2.170990571562381,24.584138090174694,-0.07824244625265624,1.8304028705953108,-2.7345302263237974
2.156113394480471,24.23932870317279,-0.07835941776745028,1.7991696241615431,-2.6343250936240397
2.141228724114095,23.900385559678355,-0.0783213229312457,1.768652938937789,-2.5389759758495027
2.126364431605116,23.5671752559643,-0.07814491400537477,1.7388239422628022,-2.448146211233508
2.111545367663252,23.239569727429018,-0.07784523275108796,1.7096553054770098,-2.361528442947257
2.0967936698434615,22.91744596540468,-0.0774357969309148,1.6811211368844055,-2.2788416434407197
2.08212903648481,22.60068575341848,-0.07692876473910494,1.6531968840229672,-2.1998284806659747
2.0675689712344294,22.28917542123282,-0.07633508000174165,1.6258592442471633,-2.124252982549182
2.0531290015782084,21.9828056151677,-0.07566460059005692,1.599086082754128,-2.051898462193296
2.0388228743675607,21.68147108336313,-0.07492621215360643,1.5728563572939522,-1.982565671475255
2.024662730958595,21.385070474774945,-0.07412792899339796,1.5471500488974868,-1.9160711551034466
2.010659264257408,21.09350615081639,-0.07327698365067954,1.52194809803472,-1.852245780950832
1.9968218596856666,20.806684008662984,-0.07237990657817445,1.497232345685333,-1.7909334256808693
1.9831689548661149,20.524518566722815,-0.07133488099605446,1.4729302010532774,-1.7283557384441852
1.9697162042528358,20.246927273781104,-0.0702730201963571,1.4490834088594562,-1.668547549380892
1.9564664536678342,19.973825127622266,-0.06919803859313309,1.425676024391482,-1.6113541085607008
1.9434218813044493,19.705130087332684,-0.0681132494424969,1.4026928207620322,-1.556630954179242
1.9305840700964854,19.44076294082737,-0.06702160537817767,1.38011924771494,-1.504243118900408
1.917954072786683,19.180647179932137,-0.06592573472500386,1.3579413932875246,-1.4540644056981784
1.9055324704525605,18.92470888250084,-0.0648279740552337,1.336145948094518,-1.4059767263935627
1.893319425164496,18.672876601089833,-0.06373039739807478,1.3147201720213626,-1.359869496818452
1.8813147273775028,18.425081257750016,-0.06263484246501187,1.2936518631346139,-1.3156390831871059
1.8695178385932092,18.181256044531906,-0.06154293421176455,1.272929328634983,-1.2731882948289441
1.857927929771093,17.941336329330603,-0.06045610602103795,1.252541357694482,-1.232425918942947
1.8465439159170807,17.705259566726458,-0.059375618758037596,1.2324771960333876,-1.193266293482632
1.8353644872324382,17.472965213503258,-0.058302577922411336,1.2127265221055332,-1.1556289146784806
1.8243881371657498,17.2443946485499,-0.057237949095358814,1.193279424771931,-1.1194380760580682
1.813613187675116,17.019491096873026,-0.05618257185868027,1.1741263823530785,-1.0846225361384214
1.8030378119759423,16.79819955746832,-0.05513717234314907,1.155258242959631,-1.0511152122449956
1.7926600550214293,16.580466734816248,-0.0541023745464633,1.1366662060095432,-1.0188528981612015
1.7824778519376565,16.366240973784837,-0.053078710545881994,1.1183418048474054,-0.9877760035352068
1.77248904461266,16.155472197737417,-0.05206662971723721,1.100276890388593,-0.9578283131698893
1.762691396618811,15.948111849657376,-0.05106650706012392,1.0824636157171077,-0.9289567645000505
1.7530826066298395,15.744112836114944,-0.0500786507185209,1.064894421571664,-0.9011112417207059
1.7436603204777907,15.543429473912958,-0.04910330877672764,1.047562022659744,-0.8742443851735234
1.734422141980795,15.346017439259601,-0.048140675402174184,1.030459394744037,-0.848311414727141
1.7253656426596597,15.15183371932617,-0.047190896399250976,1.013579762449973,-0.8232699660027575
1.716488370449719,14.960836566057463,-0.04625407423170627,0.9969165877469599,-0.7990799384004929
1.7077955634862438,14.773195864156847,-0.04524915696276691,0.9782486954174067,-0.8196855450681182
1.6992893474634725,14.589091205340818,-0.044289959066404774,0.9596950815934209,-0.8420091572297519
1.690961146634281,14.408501165337285,-0.043375312819819836,0.9412527079174574,-0.865931579326313
1.6828026114955303,14.231404885250988,-0.04250400443018858,0.9229186614119669,-0.8913361147017951
1.674805627043684,14.057782048138403,-0.04167477927345774,0.9046901502994744,-0.9181083017838046
1.6669623200811692,13.887612856334975,-0.0408863466477504,0.8865645002629345,-0.9461356554634262
1.659265065662603,13.72087800945194,-0.040137384074001026,0.8685391511374349,-0.9753074125737109
1.6517064927641147,13.557558682961282,-0.039426541173240244,0.8506116540273821,-1.005514280371685
1.6442794892537014,13.397636507288269,-0.03875244314690177,0.8327796688464325,-1.036648186926254
1.636977206235804,13.241093547331193,-0.038113693883597935,0.815040962280662,-1.068602032303605
1.6297930618391288,13.08791228232754,-0.03750887871298234,0.7973934061788575,-1.1012694394224387
1.6227207445130618,12.938075585984699,-0.036936566824564164,0.779834976377382,-1.1345445034232964
1.615754215894898,12.791566706791613,-0.03639531336663322,0.7623637519708929,-1.168321538358995
1.6088877133074795,12.648369248425169,-0.035883661237774034,0.744977915044308,-1.2024948199663037
1.6021157519447182,12.508467150161799,-0.03540014258076381,0.7276757508859016,-1.236958323221933
1.5954331268008817,12.371844667200538,-0.03494327998593718,0.7104556487063278,-1.2716054533181176
1.5888349143984262,12.238486350798524,-0.034511587408330636,0.693316102893796,-1.3063287686138738
1.5823164743686289,12.108377028113658,-0.034103570800061746,0.6762557148416574,-1.341019694026777
1.5758734509392633,11.98150178164152,-0.03371772845641948,0.6592731953913928,-1.375568223226145
1.5695017743841577,11.857845928124888,-0.0333525510710069,0.6423673679415481,-1.4098626078712213
1.5631976624906772,11.737394996803683,-0.03300652149194687,0.6255371722816614,-1.4437890320068016
1.5569576221030208,11.620134706861041,-0.03267811416759307,0.6087816692198252,-1.47723126958345
1.5507784508017979,11.506050943907237,-0.03236579426633423,0.5921000460833779,-1.5100703229099917
1.544657238783662,11.395129735326787,-0.03206801645088595,0.5754916231845087,-1.5421840396729125
1.538591371008955,11.287357224295391,-0.03178322328287216,0.558955861356495,-1.5734467059719384
1.5325785296903804,11.18271964225173,-0.03150984322843774,0.542492370682064,-1.6037286126258832
1.5266166972018262,11.081203279584376,-0.03124628823002717,0.5261009205532352,-1.6328955918019739
1.5207041594936679,10.982794454265715,-0.030990950803218804,0.5097814512221528,-1.6608085208218284
1.5148395101093635,10.887479478132228,-0.03074220061051171,0.49353408702509477,-1.6873227898080432
1.5090216549080362,10.79524462047356,-0.030498380456091687,0.4773591514872066,-1.7122877296717571
1.5032498176092217,10.70607606855063,-0.030257801636692398,0.4612571845436566,-1.7355459968253553
1.497523546289252,10.61995988461532,-0.030018738573514867,0.44522896214380087,-1.75693291096708
1.4918427209741096,10.53688195895052,-0.02977942263850956,0.429275518538303,-1.7762757423709854
1.4862075624913442,10.456827958388871,-0.029538035074810856,0.41339817158433156,-1.7933929453910387
1.480618642764187,10.379783269701587,-0.02929269889526563,0.39759855143971085,-1.808093335444384
1.4750768967548429,10.305732937174962,-0.029041469624145014,0.3818786330510861,-1.8201752077068782
1.46958363629174,10.234661593612437,-0.02878232472430728,0.36624077287024376,-1.8294253973201637
1.4641405660481626,10.166553383915911,-0.028513151523875534,0.35068775025106086,-1.8356182833382821
1.4587498019784193,10.101391880314118,-0.028231733420791688,0.33522281397834913,-1.838514742309099
1.45341389256421,10.039159988223346,-0.027935734097200043,0.3198497343455723,-1.8378610628262888
1.448135843280687,9.979839841655021,-0.027622679413568888,0.3045728611104682,-1.8333878403624273
1.4429191447625214,9.923412687038457,-0.027289936567120573,0.28939718748496074,-1.8248088832868197
1.4377678052406861,9.869858754326255,-0.02693468997851551,0.27432842001191465,-1.811820177727004
1.4326863879391167,9.819157114325794,-0.026553913195899847,0.2593730536771723,-1.7940989830473748
1.4276800542801036,9.77128552140056,-0.026144335846343823,0.2445384507989491,-1.7713031643101043
1.4227546139687215,9.726220241081649,-0.02570240427346783,0.2298329209790918,-1.7430709175546408
1.41791658334224,9.683935862828307,-0.025224233900019738,0.21526579747715488,-1.7090211142393485
1.41317325383161,9.644405099332829,-0.02470555042240064,0.20084750247523706,-1.6687545912048394
1.4085327730705537,9.60759857560246,-0.02414161548345649,0.1865895894233886,-1.6218568533829016
1.4040042422339822,9.573484613884261,-0.023527130164663287,0.17250474445236388,-1.567902852632338
1.3995978347995988,9.542029024753798,-0.02285610598674442,0.15860672007881135,-1.5064647742399244
1.3953249444357545,9.513194920906518,-0.022121687316878635,0.14491016252413977,-1.4371241180539633
1.3911983736480447,9.486942578980436,-0.021315899922173354,0.13143027880304536,-1.3594898073915298
1.387232580983662,9.463229386591731,-0.02042928601869337,0.11818227265701181,-1.2732245626968686
1.383444014251644,9.442009926571167,-0.019450363792025034,0.10518046440157612,-1.178082215462234
1.379851572263655,9.423236266335138,-0.018364815028912185,0.09243701176713304,-1.0739586943912642
1.376477260875853,9.406858531664458,-0.01715425221110768,0.07996019529264418,-0.9609584043974226
1.3733471450827552,9.392825837243965,-0.01579433508465864,0.06775237755464954,-0.839474366556932
1.37049275593942,9.381087593648918,-0.01425186642413449,0.05580808134058351,-0.7102728934821683
1.3679532104299852,9.371595063959695,-0.01248019156991507,0.04411328380914087,-0.574560037290945
1.3657785146813521,9.364302726137673,-0.010411342626222553,0.03264816694900756,-0.4339888897612781
1.3640351224559641,9.35916835776164,-0.007940154483125777,0.02139781595659363,-0.2905528845609655
1.3628171375712164,9.356149142708134,-0.0048807390405350756,0.010383395132928179,-0.14631690695158062
1.3622810829976388,9.355182443919905,-0.0007619406813342026,-0.00020761841473595707,-0.0030323465014115702
