x,y,v_x,v_y,omega
2.375,32.48,0.0,2.051282051282051,-6.040816326530612
2.374158976973264,32.07355884262389,-0.008410230267357644,2.013129522479052,-5.766121595934362
2.3717280952037147,31.674638146300556,-0.015898587428136893,1.9760774407542605,-5.509273578273795
2.3678823596694567,31.28302361220515,-0.022558767914443185,1.9400679001997916,-5.2687059726195855
2.3627790879625734,30.898512069200542,-0.028473949154392532,1.9050475298462994,-5.0430203928570165
2.3565598794074405,30.520910616578714,-0.03371813639693286,1.8709669963719582,-4.8309652433306045
2.349352334630052,30.150035859277814,-0.03835731137695341,1.837780576637045,-4.631417660956834
2.341271561861083,29.78571322277488,-0.042450416312737174,1.8054457883922796,-4.443368015957828
2.33242150020191,29.427776336964754,-0.04605020027899105,1.7739230697089767,-4.26590655828635
2.322896085179653,29.076066480051658,-0.04920394994358003,1.7431754994220132,-4.098211871951124
2.312780277919044,28.730432074882913,-0.05195412266251257,1.7131685522654236,-3.9395408593471224
2.3021509759778542,28.39072823130706,-0.05433889674938077,1.6838698834930927,-3.789220025753451
2.291077821184099,28.056816329090445,-0.05639265118817274,1.655249138673074,-3.6466378729596234
2.2796239175649533,27.72856363671621,-0.05814638500328706,1.6272777850692752,-3.5112382424856956
2.267846470581407,27.40584296204788,-0.05962808483217243,1.5999289616140107,-3.382514474584398
2.2557973573098398,27.08853233139081,-0.0608630478834999,1.5731773449567337,-3.2600042703238374
2.243523635887006,26.77651469394817,-0.06187416634484024,1.5469990294696412,-3.1432851614591466
2.231068001414515,26.469677649059538,-0.06268217838007323,1.5213714194166865,-3.031970507225532
2.2184691945674713,26.167913193941647,-0.06330589009035933,1.4962731317622022,-2.9257059491875923
2.2057764784030653,25.871125492593297,-0.06362127155370129,1.4716038817213053,-2.819854209449738
2.1930331530837184,25.579222342477816,-0.06381198163976604,1.4474276194334899,-2.718899021989041
2.1802629460072294,25.29210697642006,-0.06389008912512742,1.423726041144074,-2.622554718801391
2.167487280840995,25.00968619827753,-0.06386656253721665,1.400481740281228,-2.530555520578516
2.154725487078617,24.73187020923693,-0.06375137508656295,1.3776781501247497,-2.4426539237204548
2.141994989689746,24.458572445121675,-0.06355359880214358,1.3552994910278102,-2.3586192367881145
2.129311480901357,24.189709423843524,-0.06328148908174883,1.333330721753696,-2.278236250780549
2.116689075921183,23.92520060221424,-0.06294256071998779,1.3117574945391566,-2.2013040294445236
2.104140454214431,23.664968241406413,-0.0625436563475319,1.290566113539118,-2.1276348074108835
2.0916769877693393,23.408937280417984,-0.06209100810338701,1.2697434963451804,-2.0570529853368313
2.0793088576325136,23.15703521695314,-0.06159029326486988,1.2492771383032546,-1.9893942124439046
2.0670451598584845,22.909191995184358,-0.061046684475420276,1.2291550793845891,-1.9245045479022005
2.0548940018972806,22.665339899906915,-0.06046489513661958,1.209365873389831,-1.8622396934426972
2.0428625903369886,22.425413456639117,-0.059849220466303525,1.1898985592881437,-1.8024642903986934
2.0309573108235406,22.189349337258985,-0.05920357466817434,1.1707426345131722,-1.7450512750992748
2.0191838008958483,21.957086270802154,-0.05853152460875132,1.1518880300551302,-1.6898812871750062
2.00754701639958,21.72856495907626,-0.0578363203539257,1.1333250872038076,-1.6368421258995918
1.9960512920762863,21.50372799677477,-0.05712092287901579,1.1150445358110803,-1.5858282501904375
1.9847003968651469,21.282519795798287,-0.05638802923237703,1.0970374739537871,-1.5367403183339077
1.9734975844016365,21.064886513514026,-0.05564009540272726,1.0792953488887993,-1.489484763894577
1.9624456391499736,20.85077598470496,-0.05487935711390242,1.061809939201901,-1.443973404617949
1.9515469185638503,20.64013765697868,-0.05410784874732941,1.0445733380608788,-1.4001230814481735
1.9408033916319454,20.432922529423486,-0.05332742057172069,1.0275779374910876,-1.3578553250607692
1.9302166741306697,20.22908309431449,-0.05253975444103452,1.0108164135988358,-1.3170960475592228
1.9197880608760336,20.028573281687176,-0.0517463781053274,0.9942817126743081,-1.2777752572069963
1.9095248448040554,19.83154633976057,-0.050885782614455054,0.9759877065917565,-1.2784964699439836
1.8994312172566765,19.638165609357667,-0.05005049285933372,0.9578195974372551,-1.2815074982747063
1.8895021004592414,19.44840626837582,-0.04924067511501748,0.9397738123812241,-1.2866722353537094
1.8797323959945516,19.26224419397486,-0.04845636953187963,0.9218469316283665,-1.2938581786874583
1.8701170090089652,19.07965593258028,-0.04769750032398677,0.9040356823174518,-1.3029361290800332
1.86065087045976,18.900618671053266,-0.04696388516806285,0.886336932952683,-1.3137798989159886
1.8513289575561855,18.725110208923326,-0.04625524386768334,0.8687476883467458,-1.3262660285717618
1.8421463125361384,18.553108931582752,-0.04557120633278815,0.8512650850589646,-1.3402735097811613
1.8330980599108249,18.384593784345327,-0.04491131992034727,0.8338863873152677,-1.3556835148064703
1.824179422300988,18.21954424727381,-0.044275056178020945,0.81660898339992,-1.372379130284748
1.8153857349802964,18.05794031068259,-0.043661817028893914,0.7994303825122713,-1.3902450946290799
1.806712459234227,17.899762451222855,-0.04307094043180076,0.7823482120851035,-1.409167537866864
1.7981551946362102,17.74499160845788,-0.04250170554836775,0.7653602155646088,-1.4290337227916718
1.7897096903369085,17.59360916183586,-0.041953337444647805,0.7484642506556037,-1.4497317862917247
1.7813718554572344,17.445596907966365,-0.04142501135209307,0.7316582880393607,-1.4711504796964092
1.7731377686710683,17.300937038104884,-0.040915856509567035,0.7149404105754338,-1.493178906952358
1.7650036870595998,17.159612115747027,-0.04042495960511937,0.6983088130031528,-1.5157062594022177
1.7569660543157575,17.021605054230402,-0.039951367833304614,0.6817618021630982,-1.5386215458920827
1.7490215083743375,16.886899094237698,-0.039494091580894196,0.6652977977639226,-1.5618133168774777
1.74116688854116,16.755477781088764,-0.03905210675088105,0.6489153337254291,-1.5851693811325211
1.7333992421929039,16.62732494170273,-0.03862435673167901,0.6326130601349204,-1.60857651359239
1.7257158311182017,16.502424661103177,-0.03820975401534319,0.6163897458605974,-1.6319201527754683
1.7181141375701223,16.380761258329787,-0.03780718146544981,0.6002442818733007,-1.6550840861388256
1.7105918701003837,16.26231926160883,-0.0374154932319381,0.5841756853362605,-1.6779501216195056
1.7031469692465206,16.147083382622018,-0.037033515306693056,0.5681831045318673,-1.7003977435055793
1.695777613144862,16.03503848969834,-0.03666004570989126,0.5522658247049121,-1.722303750666733
1.6884822231445638,15.92616957973651,-0.03629385429309307,0.5364232749134026,-1.7435418750570701
1.6812594695011858,15.820461748646064,-0.03593368214068493,0.5206550359910531,-1.7639823782868638
1.6741082772324685,15.717900160072958,-0.035578240546488796,0.5049608497399983,-1.783491623951234
1.6670278322241114,15.61847001215013,-0.035226209537081526,0.48934062948826396,-1.8019316233107965
1.6600175876796524,15.522156501984892,-0.03487623590750855,0.47379447216410636,-1.8191595518546073
1.6530772710160502,15.428944787562635,-0.034526930728513296,0.4583226720584642,-1.8350272342566905
1.6462068913155006,15.338819946710057,-0.03417686627698352,0.4429257364673056,-1.8493805952886537
1.6394067474545184,15.2517669327206,-0.03382457233283908,0.42760440342726375,-1.8620590744066918
1.6326774370436556,15.16777052619987,-0.03346853177578669,0.41235966178001005,-1.872895002039569
1.6260198663256886,15.086815282639645,-0.033107175403884304,0.39719277382225343,-1.8817129361316058
1.6194352611970817,15.008885475175681,-0.03273887588218474,0.3821053008173796,-1.8883289583339817
1.6129251795375485,14.933965031928054,-0.03236194071314761,0.3670991316588933,-1.8925499305176687
1.6064915250562353,14.86203746726407,-0.03197460409998369,0.35217651498094704,-1.8941727141812201
1.6001365628914261,14.793085806265854,-0.03157501754810771,0.3373400950012252,-1.8929833580957138
1.5938629372349982,14.72709250163101,-0.031161239016171096,0.3225929513472208,-1.8887562635143755
1.5876736912950458,14.664039342191778,-0.030731220383353214,0.3079386430450888,-1.8812533419590471
1.5815722899628497,14.603907352215156,-0.03028279293860893,0.2933812567211386,-1.8702231886529777
1.575562645617724,14.546676680657939,-0.02981365051264683,0.2789254588510313,-1.8554003060369957
1.5696491475911927,14.49232647961789,-0.029321329752667963,0.26457655154946236,-1.836504427787932
1.5638366959294203,14.44083477137654,-0.028803186865054897,0.2503405308640577,-1.8132400161621978
1.5581307402535118,14.392178303716463,-0.028256369894029413,0.23622414573670591,-1.7852960368070812
1.5525373247420045,14.346332393682335,-0.0276777852210448,0.22223495460455908,-1.7523461588244613
1.5470631405806554,14.30327076073516,-0.027064056392446113,0.2083813748672085,-1.714049588420821
1.5417155876907773,14.262965351455868,-0.026411472506335402,0.19467271792572083,-1.6700528279491393
1.5365028482351046,14.225386159771187,-0.025715922050390513,0.1811191989210782,-1.6199927661010094
1.5314339754271669,14.190501049345919,-0.02497280602898834,0.1677319053315886,-1.5635016582052366
1.5265190027176907,14.158275588622303,-0.024176921065772582,0.1545227019045775,-1.5002147565382467
1.5217690807774507,14.128672914348364,-0.02332229833662825,0.1415040408348051,-1.4297816035118611
1.5171966532618597,14.101653646661468,-0.022401976819281154,0.1286886360341543,-1.3518822963469512
1.5128156877599541,14.07717588801156,-0.02140767819977441,0.11608895046493664,-1.2662503281903847
1.5086419865292875,14.055195348923913,-0.020329334106893505,0.10371644041152789,-1.17270379479756
1.5046936139490699,14.035665653835633,-0.019154391695281558,0.09158051047128905,-1.0711865787304402
1.5009914960629995,14.018538884971417,-0.01786678716542221,0.07968717817086433,-0.9618201026616734
1.4975602752589243,14.003766410857935,-0.016445420875329467,0.06803756296394686,-0.8449635751139536
1.4944295461364232,13.99129999905636,-0.014861870349682102,0.056626555051811904,-0.72127527693977
1.49163567269003,13.981093098024797,-0.013076864114251338,0.04544245526380566,-0.5917586409694462
1.48922454223936,13.973101941634788,-0.01103444039244685,0.034469108636271256,-0.4577658967052187
1.4872560295115358,13.967285685878693,-0.008650686885796038,0.02369344892468458,-0.32092423591065317
1.4858124029113968,13.963603751649774,-0.005785579115593789,0.013125893364487485,-0.18295377448684866
1.4850203327534914,13.962004126764985,-0.0021351224634575377,0.002870355483395917,-0.0453837165428507
