x,y,v_x,v_y,omega
2.375,32.48,0.0,3.230769230769231,-7.26530612244898
2.373064236582014,31.810198053581946,-0.018435842076058452,3.148296925593162,-6.756663935171396
2.367566098332128,31.157313673748032,-0.03392737935142703,3.0696495490155544,-6.301750073950997
2.359076162086067,30.520574476068465,-0.046929156325342086,2.9945332860279366,-5.893218081594906
2.3480776079663133,29.899266313186125,-0.057818978148505215,2.9226873128514774,-5.524914558903241
2.3349808176447757,29.292726884415863,-0.0669123582470891,2.8538786754367242,-5.191656659837395
2.3201352585668986,28.70034031356654,-0.07447391868507493,2.787898189794948,-4.889056474309993
2.303839218388325,28.121532505978564,-0.08072646396800282,2.724557120566705,-4.613381244778409
2.286347822543697,27.555767140022947,-0.08585825836179259,2.663684459962988,-4.361441254722557
2.2678796706893634,27.002542180796386,-0.0900289021556691,2.605124675528091,-4.130499286446504
2.248622354876223,26.46138682790173,-0.09337410558852381,2.548735828230529,-3.918197033735564
2.2287370669825246,25.931858827378864,-0.09600958863717711,2.4943879862729608,-3.7224949445038735
2.208362460488267,25.41354209168582,-0.09803428273670649,2.4419618774703302,-3.5416227760015375
2.1876178987937984,24.90604458227684,-0.09953297149632578,2.3913477359485,-3.374038750025366
2.1666061966004744,24.4089964176041,-0.10057847796390211,2.34244430855377,-3.218395653212123
2.1454159406525886,23.92204817587408,-0.10123348344453649,2.2951579936369066,-3.0735125768682714
2.1241234601137395,23.444869367048305,-0.10155204549688164,2.249402090418121,-2.93835125972861
2.102794504068123,22.977147052707004,-0.10158086922327317,2.2050961414037875,-2.8119962056339842
2.081485673383099,22.518584595727766,-0.1013603753960054,2.1621653536365457,-2.6936379110496906
2.060245645900384,22.068900524444793,-0.10092560062985338,2.12054008715371,-2.582558665435175
2.039116227222713,21.627827498180523,-0.10030695820510704,2.0801554010774232,-2.4781204887802257
2.018133253908882,21.195111362881303,-0.09953088287899355,2.040950649391344,-2.379754851194174
1.9973273714322521,20.77051028711957,-0.09862037880319874,2.0028691197680124,-2.286953883852676
1.9767247055998525,20.353793970007604,-0.09759548626727425,1.965857709869759,-2.1992628423639458
1.9563474431166223,19.944742913648415,-0.09647368023967959,1.9298666364082404,-2.1162736253942533
1.93621433448957,19.543147753665316,-0.09527021144653369,1.8948491729546226,-2.037619185263123
1.916341130402265,19.14880864213212,-0.09399839890875018,1.860761413075794,-1.9629686947926064
1.896740960973049,18.761534677894247,-0.09266988136949715,1.8275620558563483,-1.8920233572314462
1.877424665877991,18.38114337984592,-0.09129483382153182,1.7952122112705509,-1.8245127645633308
1.8584010821213497,18.00746019922566,-0.08988215433695744,1.7636752232081117,-1.7601917247303087
1.8396772952311415,17.640318067423163,-0.08843962556978667,1.7329165082442466,-1.6988374908778563
1.8212588588120582,17.27955697616632,-0.0869740546119611,1.702903408487611,-1.6402473361513359
1.8031499866752352,16.9250235872852,-0.08549139431016169,1.6736050570468342,-1.5842364262402238
1.7853537211620143,16.576570869537747,-0.08399684867289522,1.6449922548336493,-1.530635949094433
1.7678720807685686,16.23405776023506,-0.08249496459801527,1.6170373575729158,-1.4792914672827544
1.7507061897450669,15.897348849627676,-0.08098971181628582,1.5897141720212107,-1.4300614635345146
1.7338563919744656,15.566314086211964,-0.07948455266563341,1.5629978605093937,-1.3828160542707193
1.7173223511217808,15.240828501291027,-0.07798250307421976,1.5368648530233364,-1.3374358495277148
1.701103138776241,14.920771951280653,-0.07648618593092141,1.5112927661230988,-1.2938109407172553
1.6851973120789214,14.60602887638974,-0.07499787785307527,1.4862603280760853,-1.2518400002440722
1.6696244625087693,14.29649238772318,-0.07331497519599392,1.4617062306530613,-1.205606058580075
1.6544017362557075,13.992059457041666,-0.07166337007126042,1.4376550139327777,-1.1615557972823873
1.6395225093242085,13.692626425815519,-0.0700435530858724,1.4140881406019516,-1.1195595844206112
1.6249800733194348,13.398093435697888,-0.06845583743578242,1.3909879557564475,-1.0794969481524093
1.6107676701429887,13.108364248773587,-0.06690038329227636,1.368337633998788,-1.0412558267625933
1.5968785218861443,12.82334607851896,-0.0653772191538588,1.3461211303310072,-1.0047318882946357
1.5833058565178326,12.542949430709122,-0.06388626054434914,1.3243231345245783,-0.9698279125716429
1.570042929889912,12.267087953572666,-0.06242732638822951,1.3029290286797526,-0.9364532292250146
1.5570830445172479,11.995678296551333,-0.06100015335142766,1.2819248477139094,-0.9045232060680946
1.5444195655334862,11.72863997707437,-0.05960440839868387,1.2612972425428726,-0.8739587827828306
1.5320459341740307,11.465895254804572,-0.05823969978660644,1.2410334457409193,-0.8446860454415537
1.5199556790946425,11.207369012855882,-0.05690558668375763,1.221121239484716,-0.8166358378735296
1.5081424257964198,10.952988645521575,-0.055601587585029616,1.2015489256039176,-0.7897434063155789
1.496599904394993,10.70268395208759,-0.05432718766665527,1.1823052975768957,-0.7639480741652459
1.4853219559429427,10.456387036337972,-0.05308184521001326,1.1633796143242143,-0.7391929439901282
1.4743025374892027,10.214032211389082,-0.051864997206557635,1.144761575665227,-0.7154246242436044
1.4635357260370614,9.975555909516192,-0.050676064242408204,1.1264412993146813,-0.6925929784000946
1.4530157215429522,9.740896596660956,-0.0495144547491053,1.1084092993066235,-0.6706508944563148
1.442736849081161,9.50999469133082,-0.04837956869652559,1.0906564657423012,-0.6495540729523382
1.4326935602845747,9.282792487622313,-0.047270800794771604,1.0731740457672996,-0.6292608318507801
1.4228804341584236,9.059234082119204,-0.04618754326381253,1.055953625690874,-0.6097319267768084
1.4132921773523484,8.839265304434079,-0.04512918822261761,1.0389871141674727,-0.5909303852683238
1.4039236239659212,8.622833651177977,-0.0440951297433559,1.0222667263668308,-0.5728213538166117
1.3947697349537322,8.409888223157655,-0.043084765610826,1.0057849690648244,-0.5553719565948824
1.3858255971882298,8.200379665613628,-0.04209749882252921,0.989534626592581,-0.5385511648769423
1.3770950478102466,7.994406771704124,-0.04105059049159554,0.9721119820693753,-0.5504207164138281
1.368579580685285,7.792080295161366,-0.04004909641280228,0.954806842147365,-0.564356373416067
1.3602697403646546,7.5933759089463635,-0.03909223997415336,0.9376158837097878,-0.5802387183626192
1.3521562418065252,7.398269969773889,-0.03817917486517478,0.9205359179328295,-0.597951746891202
1.344229984252854,7.206739490515361,-0.03730899231264534,0.9035638845293589,-0.6173826000604623
1.336482063651741,7.018762113762264,-0.036480727697954504,0.8866968464525121,-0.6384213060229071
1.328903783750286,6.834316086455733,-0.03569336660161721,0.8699319850382689,-0.6609605300271602
1.3214866659738693,6.653380235491973,-0.03494585031663547,0.8532665955689546,-0.684895331706232
1.3142224581993978,6.475933944216791,-0.034237080868808105,0.8366980832423152,-0.7101229286392203
1.3071031425224067,6.301957129725334,-0.0335659255787259,0.8202239595334664,-0.7365424651973892
1.300120942110953,6.131430220885658,-0.03293122119702321,0.8038418389396493,-0.7640547857020128
1.2932683272329117,5.964334137006457,-0.032331777641465276,0.7875494361003607,-0.7925622109307648
1.286538020537589,5.800650267070669,-0.031766381361608254,0.7713445632880899,-0.8219683170117406
1.2799230016674443,5.640360449457319,-0.031233798354054418,0.7552251282676345,-0.8521777157393244
1.2734165112711535,5.4834469520741145,-0.030732776848715473,0.7391891325247931,-0.8830958353338744
1.2670120544852215,5.32989245282285,-0.030262049683969894,0.7232346698682098,-0.9146287006473417
1.2607034039478606,5.179680020318504,-0.0298203363861343,0.7073599254112944,-0.9466827117891534
1.2544846024058613,5.032793094781145,-0.02940634496624079,0.6915631749445122,-0.9791644201105597
1.2483499649727126,4.889215469017213,-0.029018773444699445,0.6758427847119871,-1.0119803004407175
1.2422940810942587,4.748931269403368,-0.02865631111200374,0.6601972116103381,-1.0450365184135058
1.2363118162767242,4.611924936781918,-0.028317639531181254,0.6446250038320419,-1.0782386916598317
1.2303983136310066,4.478181207171605,-0.028001433285176562,0.6291248019804547,-1.11149164356533
1.2245489952867394,4.347685092191313,-0.027706360469748847,0.6136953406890122,-1.1446991482071553
1.2187595637297928,4.220421859086734,-0.027431082929743136,0.598335450783163,-1.1777636649852967
1.2130260031176294,4.096377010241312,-0.027174256233717664,0.5830440620303701,-1.2105860613527468
1.2073445806283105,3.9755362620423504,-0.026934529378844257,0.5678202065311685,-1.2430653219242973
1.201711847900988,3.857885522961219,-0.026710544214703123,0.552663022812928,-1.275098242105119
1.1961246426284868,3.7434108706925926,-0.02650093457102353,0.5375717606977946,-1.306579104227345
1.190580090366124,3.632098528181441,-0.026304325070526845,0.5225457870274441,-1.3373993340156487
1.1850756066253247,3.523934838347863,-0.026119329603751892,0.507584592339975,-1.3674471350219701
1.1796088993259386,3.418906237298252,-0.02594454943802019,0.49268779860869377,-1.3966070984766568
1.1741779716875635,3.3169992257865992,-0.02577857092745644,0.477855168168953,-1.4247597858012406
1.1687811256477416,3.218200338661191,-0.02561996278513252,0.46308661397780215,-1.4517812808216843
1.1634169659037583,3.1224961119994354,-0.02546727287185102,0.44838221137225887,-1.4775427085178312
1.1580844046850998,3.0298730475961975,-0.025319024448707504,0.4337422115157113,-1.50190971695659
1.1527826673756019,2.9403175744284553,-0.025173711832225092,0.41916705674848403,-1.5247419189004041
1.1475112991181755,2.8538160066706233,-0.025029795381360166,0.4046573980880129,-1.545892289484248
1.142270172550978,2.770354497779973,-0.024885695734806066,0.39021411515626603,-1.5652065163507547
1.1370594968423537,2.689918990109671,-0.02473978720447282,0.3758383388466225,-1.5825222987774992
1.1318798282131628,2.6124951594375325,-0.024590390216392644,0.3615314770785131,-1.5976685926996566
1.1267320821597728,2.538068353721755,-0.024435762673034683,0.3472952440241419,-1.610464799235086
1.1216175476196213,2.4666235253106166,-0.02427409009031413,0.33313169322480723,-1.6207198955144833
1.1165379033547227,2.3981451557427853,-0.024103474337292125,0.3190432550402495,-1.628231508531146
1.1114952368679363,2.3326171721805338,-0.02392192077495987,0.30503277888595315,-1.6327849356740551
1.1064920662138187,2.2700228544240844,-0.023727323549969554,0.2911035806992847,-1.6341521200534395
1.1015313651227738,2.2103447313687035,-0.023517448745695963,0.27725949601862276,-1.6320905953267792
1.0966165919273416,2.153564465698672,-0.023289915020325215,0.263504938934063,-1.6263424244265623
1.0917517228679157,2.0996627255824976,-0.023042171259921338,0.2498449669342725,-1.6166331707279156
1.0869412904696847,2.0486190421708237,-0.022771470627992597,0.23628535127213252,-1.6026709607070266
1.0821904278351595,2.0004116518468607,-0.02247484017700984,0.22283265181322592,-1.5841457267939705
1.0775049199061129,1.9550173225065635,-0.022149044861529014,0.2094942942848293,-1.560728761853974
1.0728912630449539,1.9124111637538483,-0.021790544292366043,0.19627864621723592,-1.5320727781081713
1.0683567347160932,1.8725664219352254,-0.02139543979202198,0.18319508538871224,-1.4978127511022608
1.0639094756891387,1.8354542626285735,-0.020959408083733606,0.17025405086510514,-1.4575679541590243
1.059558588160794,1.8010435458565652,-0.020477615995739096,0.15746706124924947,-1.4109457645264847
1.0553142546993912,1.7693006033524306,-0.01994460744619275,0.14484667688535788,-1.357548066103129
1.0511878852741234,1.7401890332369625,-0.0193541489849288,0.1324063718333752,-1.2969814026878699
1.0471923033508872,1.7136695361533931,-0.018699012188748653,0.12016026705775235,-1.2288724603395944
1.0433419879277168,1.6896998288983873,-0.017970658508112212,0.10812265918038327,-1.1528909604069066
1.039653397709853,1.6682346870704414,-0.01715877213821039,0.0963072629905135,-1.0687825360814374
1.036145418328953,1.649226185938634,-0.01625055529893382,0.08472608112193124,-0.9764143893538864
1.032839996539111,1.632624223675581,-0.015229652223370159,0.07338784519286634,-0.8758358941170389
1.0297630612686,1.6183774106472377,-0.014074493210069056,0.06229608841038805,-0.7673536688125184
1.0269458884914828,1.6064343657695161,-0.012755723714855675,0.05144719613933394,-0.6516141227218334
1.0244271647365923,1.5967453269450544,-0.011232121569816301,0.04082936409363523,-0.5296740641783114
1.0222562058122557,1.5892636771980087,-0.009443677709579067,0.030424443021097192,-0.4030219420375707
1.0204983383731425,1.583946363068634,-0.007297916948642178,0.020216643925335384,-0.2734960384176611
1.019245511883882,1.5807506710413293,-0.004633763901459454,0.01021851823948375,-0.14304759963703634
1.0186474167117985,1.579617542042051,-0.0010623805945724671,0.0005731865155547498,-0.01336303222341581
