x,y,v_x,v_y,omega
2.375,32.48,0.0,2.41025641025641,-4.081632653061225
2.3740446016878676,31.931775354575777,-0.008307811409847633,2.356914419519405,-3.842700896670401
2.3713091474265315,31.395591755528933,-0.01547874738437708,2.305551659148824,-3.6244250427039484
2.3670381362065975,30.871007920336773,-0.02166048061505031,2.2560469077395253,-3.4244653300564636
2.361444500714236,30.35760924512345,-0.026979828014182583,2.2082893984632954,-3.2407976331973147
2.3547140291066797,29.85500554079418,-0.03154601205152138,2.1621775957042426,-3.0716646843383746
2.347009101715086,29.362829029174588,-0.0354533565710348,2.117618157509594,-2.9155357704076845
2.338471860245617,28.880732560405107,-0.038783525772171576,2.0745250491815597,-2.771073267312915
2.329226904712223,28.408388019949424,-0.04160739190951444,2.0328187808678595,-2.6371047233030382
2.3193835956916304,27.945484899162672,-0.04398659957390273,1.9924257477125915,-2.5125994707816353
2.3090380254532454,27.49172900779463,-0.04597488075987658,1.953277655487784,-2.3966489525729964
2.2982747102726275,27.046841310345208,-0.047619164288977,1.9153110179854462,-2.2884501094982466
2.2871680471759834,26.610556871044874,-0.04896051481227725,1.8784667150609158,-2.187291302230404
2.275783571020373,26.182623894552513,-0.050034930019118455,1.8426896022639747,-2.0925403399264226
2.2641790418335446,25.76280285136206,-0.050874019431560925,1.807928164609493,-2.0036342671682124
2.2524053874429706,25.350865678474662,-0.05150558396473292,1.774134208324426,-1.9200706238634353
2.240507522400791,24.946595047192005,-0.051954112054220285,1.7412625854378148,-1.8413999434348627
2.2285250608913882,24.549783690971836,-0.052241205418848906,1.7092709469114922,-1.76721929551982
2.2164929385579537,24.160233787198305,-0.05238594530666922,1.6781195206844213,-1.6971667125529348
2.2044419558978166,23.777756387490687,-0.052405208259741654,1.6477709115557369,-1.6309163666000988
2.19239925396889,23.402170891828895,-0.05231393894831349,1.6181899202859202,-1.568174384884288
2.180388731553439,23.033304562333775,-0.05212538640343605,1.589343379671637,-1.5086752105632142
2.1684314115856504,22.670992073020308,-0.05185130896863771,1.5612000056628925,-1.4521784302483682
2.156545763521824,22.315075092255945,-0.05150215245594,1.53373026185327,-1.3984660021001263
2.144747987380196,21.965401895014946,-0.051087205297345464,1.5069062358945673,-1.3473398285761624
2.1330522643720045,21.621827002331102,-0.05061473390432256,1.4807015265736587,-1.2986196264360448
2.1214932444230348,21.28421433230423,-0.04989848304323615,1.455060821486054,-1.247153807968002
2.110101678677739,20.952433175110833,-0.04915861039412096,1.4299927193261026,-1.1983146624307803
2.09888246945454,20.626354430540232,-0.048399730677175984,1.405474624766109,-1.15193422491511
2.0878395208117237,20.305854062252756,-0.04762590969513745,1.3814850994727959,-1.1078573057123726
2.076975857590676,19.99081284024477,-0.04684072700962869,1.3580037875531625,-1.0659403657682174
2.0662937308973377,19.681116099797983,-0.046047331193308824,1.335011346766735,-1.026050504260449
2.055794711622355,19.376653515647014,-0.045248488589150614,1.3124893849808297,-0.9880645458344871
2.045479773400473,19.077318890213192,-0.04444662638373725,1.290420401400216,-0.9518682165569191
2.035349366236447,18.783009954854826,-0.04364387069475021,1.2687877321508048,-0.9173553989706785
2.0254034818742195,18.49362818317593,-0.042842080281138215,1.2475754998395825,-0.8844274577837604
2.01564171185525,18.209078615518045,-0.04204287640555564,1.2267685667507093,-0.852992628722116
2.006063299097887,17.929269693834037,-0.041247669310642186,1.206352491371112,-0.8229654639475571
1.9966671837302847,17.65411310620997,-0.040457681711988394,1.1863134879686057,-0.7942663282010761
1.9874520438225238,17.383523640361798,-0.0396739696598445,1.1666383889720149,-0.7668209404961639
1.9784163315877126,17.11741904548849,-0.03889744107764399,1.147314609926334,-0.7405599567684694
1.9695583055553487,16.855719901912998,-0.038128872247260304,1.1283301168170456,-0.7154185893985514
1.9608760591619694,16.598349497987734,-0.03736892247777525,1.1096733955765552,-0.6913362599730102
1.9523675461529684,16.34523371378213,-0.0366181471657117,1.0913334236026124,-0.6682562820440652
1.9440306031445105,16.096300911107445,-0.035877009429575994,1.0732996431337596,-0.6461255709956425
1.9358629696549485,15.851481829467904,-0.035145890479658555,1.0555619363404949,-0.6248943784312525
1.927862305880322,15.610709487558388,-0.03442509886491972,1.0381106020031292,-0.6045160487705464
1.9200262084578181,15.373919089957312,-0.0337148787220693,1.0209363336583985,-0.5849467959819087
1.9123522244339892,15.1410479386893,-0.03301541713731314,1.0040301991069045,-0.566145498591633
1.9048378636305807,14.912035349356017,-0.032326850718413395,0.9873836211825059,-0.5480735112994933
1.8974864513683862,14.686935984496454,-0.031598473300668076,0.9700021602049944,-0.5505592343988812
1.890299291702788,14.46581927685341,-0.030898567269751435,0.9527518192997325,-0.5555556126026957
1.8832697864590413,14.248655526675734,-0.03022756528456808,0.9356286170278886,-0.5629261696984649
1.876391255595842,14.035415930653638,-0.029585746569338756,0.918628739685974,-0.5725389552776957
1.869656970968237,13.82607254426939,-0.028973250192444622,0.9017485332205395,-0.5842662201816343
1.8630601871587351,13.620598245937813,-0.028390087281484986,0.884984495749703,-0.5979841057569455
1.8565941696120358,13.418966702800986,-0.027836152255030545,0.8683332706574951,-0.6135723455626823
1.8502522202910434,13.221152338048842,-0.027311233144903132,0.8517916402307228,-0.6309139782351197
1.844027701055562,13.027130299643979,-0.026815021076674155,0.8353565198115732,-0.6498950702728292
1.8379140549501491,12.836876430334755,-0.02634711897039316,0.8190249524425489,-0.6704044475511836
1.8319048255739507,12.65036723884575,-0.02590704951828725,0.8027941039835697,-0.692333434413651
1.8259936746928522,12.467579872138952,-0.025494262491266035,0.7866612586842341,-0.7155755992169813
1.820174398242886,12.28849208864257,-0.025108141421484913,0.7706238151973411,-0.7400265052288673
1.8144409408634639,12.113082232347246,-0.024748009703922786,0.7546792830228605,-0.765583465789927
1.8087874090895864,11.941329207671533,-0.024413136155883006,0.7388252793746481,-0.7921453026568686
1.803208083323668,11.773212454999932,-0.02410274006949429,0.7230595264653717,-0.8196121064403487
1.7976974286999827,11.60871192679745,-0.02381599578863818,0.7073798492083707,-0.8478849980391039
1.7922501049478927,11.447808064204551,-0.023552036838229987,0.6917841733385863,-0.8768658899511301
1.7868609753540006,11.290481774015412,-0.023309959630399082,0.6762705239582905,-0.9064572463126005
1.7815251149180902,11.136714405940733,-0.023088826768820785,0.6608370245171848,-0.9365618404753714
1.776237817793216,10.98648773005359,-0.02288766996921448,0.6454818962405869,-0.9670825088837414
1.7709946040965137,10.83978391431317,-0.02270549261080809,0.6302034580239328,-0.9979218999499185
1.765791226174281,10.696585502056486,-0.022541271930344754,0.6150001268167917,-1.028982216554654
1.7606236744025936,10.55687538934217,-0.022393960866937707,0.5998704185250814,-1.0601649507138504
1.755488182603182,10.42063680202316,-0.02226248956272711,0.5848129494663014,-1.0913706088527353
1.7503812331535744,10.287853272416296,-0.02214576652081747,0.5698264384194746,-1.122498426015412
1.745299561870572,10.158508615426346,-0.02204267941833323,0.5549097093192322,-1.1534460672082758
1.7402401627470776,10.032586903969626,-0.02195209556857558,0.5400616946522462,-1.1841093139299546
1.735200292624145,9.910072443527838,-0.02187286202214311,0.5252814396241677,-1.2143817337772513
1.7301774758829684,9.790949745645754,-0.021803805292435124,0.5105681071765699,-1.2441543308354441
1.7251695092454342,9.67520350016662,-0.02174373068612364,0.49592098394632333,-1.2733151743620383
1.7201744667769332,9.562818545976214,-0.02169142121388593,0.48133948727460873,-1.3017490030561554
1.7151907051914885,9.453779839999825,-0.02164563605085044,0.46682317338964535,-1.329336801972695
1.7102168695670215,9.348072424165768,-0.02160510850973038,0.4523717469064927,-1.3559553488943081
1.7052518995879278,9.245681390013456,-0.021568543482390786,0.43798507180926016,-1.381476726720454
1.7002950364432414,9.146591840583195,-0.021534614297488135,0.4236631841060568,-1.4057677981801815
1.695345830521772,9.050788849177838,-0.021501958932682683,0.4094063063753144,-1.4286896389374855
1.690404150060913,8.958257414532472,-0.021469175509567152,0.3952148644539662,-1.4500969249559827
1.685470190923733,8.868982411866618,-0.021434816987650637,0.3810895065534677,-1.469837269854361
1.6805444876997315,8.782948539223167,-0.021397384960189995,0.3670311251287163,-1.4877505079614508
1.6756279263488258,8.70014025841865,-0.021355322438988803,0.3530408818670862,-1.5036679189370274
1.670721758636191,8.620541729839903,-0.021307005496966437,0.3391202362089798,-1.5174113902592485
1.6658276186382444,8.544136740222491,-0.021250733615614227,0.325270977855459,-1.5287925147337362
1.6609475416382367,8.470908622436816,-0.021184718558363992,0.311495263759106,-1.537611621657903
1.656083985774755,8.400840166190108,-0.02110707155886829,0.29779566012533426,-1.5436567426741405
1.6512398568595987,8.33391351842991,-0.021015788572926145,0.28417518996335106,-1.5467025170966535
1.6464185368452773,8.270110072113201,-0.020908733290739,0.2706373867036818,-1.5465090472213303
1.6416239165001092,8.209410341895605,-0.020783617536809764,0.25718635431888454,-1.5428207227281705
1.636860432945603,8.151793825214881,-0.020637978589330384,0.24382683420914572,-1.5353650460701647
1.6321331128340715,8.097238847220137,-0.020469152815293018,0.23056427878862337,-1.523851509610716
1.6274476221061147,8.045722388077639,-0.020274244819111373,0.2174049311461262,-1.5079706029794362
1.6228103234864206,7.997219891434863,-0.02005009100431601,0.20435590922584118,-1.4873930696527213
1.6182283431821411,7.951705053352846,-0.01979321598941963,0.19142529148734763,-1.4617695908780506
1.613709648689255,7.909149591984217,-0.019499779600893857,0.17862219867463858,-1.430731160953272
1.6092631402673516,7.869522999921454,-0.0191655110243537,0.1659568627407003,-1.3938905420639733
1.604898759640791,7.832792283821405,-0.018785624858782463,0.1534406685640824,-1.350845365085886
1.6006276210352228,7.798921700134873,-0.018354710841810236,0.1410861461014165,-1.3011836952956106
1.5964621721093992,7.767872502230155,-0.017866584165351095,0.12890687915698737,-1.2444932323965927
1.5924163962601257,7.739602723784316,-0.017314075393548792,0.1169172812416114,-1.18037578333518
1.5885060740843993,7.714067036994869,-0.016688726134506397,0.10513216910139397,-1.1084692337823756
1.5847491319562987,7.691216742588207,-0.01598033584897763,0.09356604313044997,-1.028479884287019
1.5811661220522972,7.670999971030959,-0.015176272011905918,0.08223197041085092,-0.9402284812883164
1.577780904370775,7.653362196205329,-0.014260403479591361,0.07113998459461315,-0.8437129785872581
1.5746216430557856,7.638247170709512,-0.013211434042053806,0.060295019716845435,-0.7391887665349326
1.571722296599391,7.625598355128151,-0.012000274274420507,0.04969468099065001,-0.627260598891507
1.5691248967616502,7.615360772064044,-0.01058581127115122,0.03932778043636709,-0.508966918636568
1.5668831450268554,7.607482866748413,-0.00890768207489154,0.029175744047394356,-0.3858159107324825
1.565068487739231,7.601917212356721,-0.006871946513149018,0.01922125066297832,-0.2597106807102205
1.563782225446564,7.598617086721806,-0.004312942988300742,0.009475493988454722,-0.132698086876923
1.5631919982509954,7.597517077294061,-0.0008194674079481106,8.9805383244752e-05,-0.006550121259747355
