x,y,v_x,v_y,omega
2.375,32.48,0.0,2.9743589743589745,-2.4897959183673475
2.3742497074468902,31.804648260555638,-0.006524283070519353,2.8982648468963355,-2.3140895380405424
2.3721215077821802,31.146406482618485,-0.011981800970435733,2.8255767003832517,-2.157014464987092
2.368841507100443,30.50451867895603,-0.01653994408815012,2.756056374942452,-2.0160244754380305
2.3646005744136542,29.878281075133092,-0.02033773144914578,2.6894880061265547,-1.8889826014277595
2.359560262395529,29.267037287894638,-0.023491068708464145,2.625675361164333,-1.7740867291253897
2.3538576408942133,28.670174070728613,-0.026096944346455514,2.5644395707141734,-1.6698101778567631
2.3476092607092314,28.087117543869276,-0.028236796392517832,2.505617184584418,-1.5748539632044565
2.340914417995915,27.51732984068583,-0.029979227201537798,2.4490584952716334,-1.488108233206166
2.3338578535356667,26.960306113985148,-0.03138220288757679,2.3946260847342766,-1.4086209508836691
2.326511993233862,26.415571854998664,-0.03249484321507243,2.34219355862647,-1.3355723344009753
2.3189388145597474,25.88268048527095,-0.03335888438592543,2.29164443900584,-1.2682538971755886
2.311191406733405,25.36121118772561,-0.03400987932139836,2.242871191823198,-1.206051182209862
2.3033152791836846,24.85076694815348,-0.03447818632834319,2.1957743696735705,-1.1484294779557143
2.2953494623152193,24.350972782476106,-0.034789786440920005,2.150261853607962,-1.0949219518801108
2.2873274363031837,23.861474128557013,-0.03496696148982374,2.106248180471109,-1.0451197533619825
2.279277917002958,23.381935384198087,-0.035028858512142116,2.0636539443891246,-0.9986637276192037
2.2712255227524087,22.912038575372232,-0.034991961057850685,2.0224052627922195,-0.95523745299846
2.2631913415755562,22.451482140788556,-0.03487048395825868,1.9824332988049562,-0.9145613696364626
2.2551934148501447,21.999979820627146,-0.034676704958360414,1.943673833033411,-0.8763878115988565
2.2472471507088123,21.55725963876924,-0.03442124409670392,1.9060668787744652,-0.8404967896928658
2.2393656781718136,21.12306296912704,-0.03411329970328442,1.8695563355055242,-0.8066924001953452
2.231560151154841,20.69714367777936,-0.033760848270390595,1.834089676213459,-0.7747997572489119
2.2238400099765117,20.279267333572776,-0.03337081414986699,1.7996176647133548,-0.7446623648213032
2.216213206741805,19.869210480675616,-0.03294921397801594,1.766094099609781,-0.7161398588022808
2.208686399948635,19.466759967292663,-0.03250127987563954,1.7334755819811032,-0.6891060617343793
2.2012651228137274,19.071712325378016,-0.032031564775726606,1.7017213042332227,-0.6634473023917721
2.1939539291081975,18.683873196734638,-0.0315440326636659,1.6707928578831257,-0.6390609603708706
2.186756519706147,18.30305680137323,-0.031042136049815934,1.640654058303017,-0.6158542023809755
2.179675852560028,17.929085444429106,-0.030528882612089157,1.6112707846893761,-0.5937428822963003
2.172714238407047,17.56178905831161,-0.030006892631223216,1.58261083372363,-0.5726505814693574
2.165873424167634,17.201004777093196,-0.02947844858106398,1.55464378556693,-0.5525077694838159
2.159154665708465,16.846576540439763,-0.02894553802040548,1.5273408809846625,-0.5332510685819285
2.1525587913994526,16.49835472464557,-0.02840989075361465,1.5006749085300488,-0.5148226075497383
2.1460862576888324,16.156195798568792,-0.027873011077867663,1.4746201008332482,-0.4971694529731863
2.1397481607325237,15.819962740084389,-0.027240875498727123,1.4491456251180796,-0.477570681773719
2.1335542981224465,15.489523945720848,-0.02661879937150953,1.424235195434446,-0.4589646678006841
2.127502296006889,15.164752216737927,-0.026007305981166087,1.399866795721376,-0.44128840185498425
2.121589673529724,14.845525290657918,-0.025406802515920195,1.3760195180178294,-0.42448363039277215
2.1158138676990004,14.531725594412855,-0.024817596012111396,1.3526734928087938,-0.40849644027180715
2.110172254827216,14.22324001291424,-0.024239907220796345,1.329809824570472,-0.3932768845378879
2.1046621689893907,13.919959671901115,-0.023673882673337834,1.3074105320653848,-0.37877864473396144
2.0992809178857383,13.621779734020642,-0.023119605184507036,1.2854584929822037,-0.36495872576132365
2.09402579644468,13.328599207183942,-0.022577102998612913,1.2639373925543123,-0.35177717979708795
2.088894098457902,13.0403207643202,-0.022046357755972416,1.2428316758260507,-0.33919685618505835
2.0838831265011812,12.75685057372452,-0.021527311432906072,1.222126503266816,-0.3271831745769866
2.078990200361804,12.478098139260808,-0.02101987238776616,1.2018077094611281,-0.3157039189152969
2.0742126641650187,12.203976149740583,-0.02052392062775882,1.1818617646277974,-0.304729050123005
2.0695478923672783,11.93440033685285,-0.020039312396069184,1.1622757387437896,-0.2942305356070957
2.064993294762678,11.66928934106943,-0.01956588416567124,1.1430372680685528,-0.28418219389262955
2.0605463206304138,11.408564584995034,-0.01910345611489019,1.1241345238827227,-0.2745595528902379
2.0562044621349487,11.152150153672302,-0.01865183515002103,1.105556183271474,-0.2653397204628054
2.051965257076531,10.899972681389368,-0.0182108175318699,1.087291401797525,-0.2565012661009024
2.047826291077451,10.65196124457161,-0.017780191155785125,1.0693297879221204,-0.24802411264341764
2.0437851992787675,10.408047260370466,-0.0173597375284216,1.0516613790443534,-0.23988943709198152
2.039839667612914,10.168164390590757,-0.016949233478998516,1.034276619040084,-0.2320795796670268
2.0359874337094537,9.932248450624115,-0.016548452638049348,1.0171663371915831,-0.22457796034129715
2.0322262874841375,9.700237323080163,-0.016157166712525005,1.000321728407987,-0.2173690021646808
2.028554071455208,9.472070875829093,-0.015775146582510422,0.9837343346447821,-0.21043806076361493
2.024971763466334,9.24779567866078,-0.01537535766857057,0.9664847711666494,-0.22197133342847847
2.0214786310803614,9.027473518403504,-0.014999706557279068,0.9493601006357509,-0.23573247362980804
2.018069069558318,8.811076094451874,-0.014648654503968992,0.9323566293784366,-0.2515984168374735
2.014737384648848,8.598575938591225,-0.014322518621853544,0.9154708128880709,-0.26944995272002437
2.011477824314856,8.389946381487352,-0.01402148428242419,0.8986992488847388,-0.2891714433028599
2.0082846077220475,8.185161520713098,-0.013745616524608633,0.8820386708913941,-0.31065055194754543
2.0051519517087835,7.984196190196162,-0.013494870547251459,0.865485942299348,-0.33377798202440867
2.002074094940222,7.787025930978345,-0.01326910135328538,0.849038050899066,-0.3584472241943291
1.9990453199346476,7.593626963181606,-0.013068072608229347,0.8326921038551749,-0.38455431125182943
1.9960599731361128,7.403976159080909,-0.012891464770332827,0.8164453231074236,-0.4119975795103737
1.9931124831948797,7.218051017187612,-0.012738882544738091,0.8002950411821034,-0.44067743573230206
1.9901973776056523,7.0358296372505365,-0.012609861709412935,0.7842386974011629,-0.4704961286201096
1.9873092978430982,6.857290696084323,-0.012503875356276027,0.7682738344789637,-0.5013575238927734
1.9844430131246376,6.682413424136815,-0.012420339586859603,0.7523980954993601,-0.5331668819704215
1.9815934329218794,6.511177582708502,-0.012358618697994525,0.7366092212685786,-0.5658306372826006
1.9787556183343373,6.343563441737757,-0.01231802988932746,0.7209050480422508,-0.599256178199462
1.9759247924321546,6.179551758065681,-0.012297847520956404,0.7052835056279678,-0.6333516265609248
1.973096349668447,6.0191237540936555,-0.012297306946066715,0.6897426158679123,-0.6680256157458393
1.970265864456534,5.86226109674525,-0.012315607940133097,0.6742804915095284,-0.7031870661807359
1.9674290990027448,5.708945876641927,-0.01235191774499078,0.658895335475881,-0.7387449571352257
1.9645820104816445,5.559160587398793,-0.012405373742837974,0.6435854405513793,-0.7746080935876796
1.961720757637441,5.412888104942542,-0.012475085771976428,0.628349189502977,-0.8106848668695076
1.9588417068929926,5.2701116667485834,-0.012560138092790702,0.6131850556618867,-0.8468830077081141
1.9559414380462785,5.130814850887884,-0.012659591009070137,0.5980916039963636,-0.8831093301861942
1.953016749633417,4.994981554766387,-0.012772482146247792,0.5830674927123167,-0.9192694650171174
1.95006466403739,4.862595973430533,-0.01289782738442164,0.5681114754255343,-0.9552675804012414
1.947082432422572,4.733642577301506,-0.013034621440083766,0.5532224039572999,-0.9910060885745193
1.9440675395770426,4.608106089187771,-0.013181838086257034,0.5383992318143009,-1.026385335987048
1.9410177087475644,4.485971460410344,-0.013338429996162424,0.5236410184241861,-1.06130327485356
1.9379309065560932,4.367223845857396,-0.013503328190543647,0.5089469342101377,-1.0956551135986607
1.9348053480919036,4.25184857776404,-0.013675441063278861,0.4943162666016535,-1.1293329434754427
1.931639502279937,4.139831137988963,-0.01385365295382242,0.47974842709467685,-1.1622253383659245
1.928432097634,4.031157128531426,-0.014036822228239817,0.46524295949262046,-1.1942169244753045
1.9251821285131063,3.925812239999452,-0.014223778823008952,0.4507995494810772,-1.2251879163101236
1.9218888620107792,3.823782217702071,-0.01441332119722545,0.43641803571353466,-1.2550136149858608
1.918551845620739,3.7250528249944423,-0.014604212629212117,0.4220984226136726,-1.2835638645477745
1.9151709158383796,3.629609803453654,-0.014795176782609375,0.40784089513231275,-1.3107024616198102
1.9117462078761007,3.5374388294039925,-0.014984892454597007,0.3936458357342962,-1.3362865133362976
1.908278166692281,3.4485254662422626,-0.01517198740470588,0.37951384393292,-1.3601657381855763
1.9047675595589038,3.362855111935179,-0.015355031146399353,0.36544575873737917,-1.382181704143051
1.9012154904221124,3.2804129409707024,-0.015532526564831683,0.35144268443197063,-1.40216699835324
1.897623416343881,3.201183839942143,-0.015702900202397313,0.337506020164191,-1.419944322725659
1.8939931663523666,3.1251523358269395,-0.015864491028161627,0.32363749388104257,-1.435325510271036
1.8903269630742703,3.0523025158907515,-0.016015537477024347,0.30983920121624536,-1.4481104580195434
1.886627447575982,2.982617938001937,-0.016154162508089962,0.29611364999083456,-1.4580859742227232
1.8828977079030365,2.9160815299836784,-0.016278356387090683,0.2824638110374863,-1.4650245406753633
1.8791413118817384,2.852675476465052,-0.016385956841586866,0.268893176081005,-1.4686829960370258
1.8753623448359837,2.792381091526906,-0.01647462616497606,0.25540582338114554,-1.468801153921969
1.8715654529809984,2.7351786752887612,-0.016541824747940824,0.24200649173316593,-1.4651003816457773
1.8677558933912128,2.681047352475023,-0.016584780380629688,0.22870066316891596,-1.457282183917039
1.863939591612953,2.6299648909756463,-0.01660045247380084,0.21549465421696914,-1.4450268634788535
1.8601232082220167,2.581907498547391,-0.016585490056082345,0.20239571472439472,-1.4279923722323749
1.8563142159405697,2.5368495961971433,-0.016536181956499252,0.18941213179950311,-1.405813528351085
1.852520989375117,2.49476356762154,-0.01644839687352442,0.1765533340753208,-1.3781018670692193
1.8487529100974025,2.455619485614598,-0.01631750988920994,0.1638299877241653,-1.3444465293618695
1.845020490797339,2.419384819004758,-0.0161383101113427,0.15125406975269,-1.3044167937829807
1.8413355238184397,2.3860241280510195,-0.015904881009520828,0.13883889506243316,-1.2575671499237526
1.8377112619268363,2.3554987631886206,-0.015610439787029633,0.12659906026277276,-1.2034462325309419
1.8341626433177232,2.327766592756081,-0.015247113335693277,0.11455024784626043,-1.1416115214279408
1.8307065797304558,2.3027818013030767,-0.01480561351011043,0.10270880826683182,-1.0716524870642834
1.8273623379702593,2.2804948225977775,-0.014274749622033994,0.09109100656184824,-0.9932257820523246
1.8241520641643683,2.260852500529168,-0.013640674777018146,0.07971179403476397,-0.906106913581574
1.8211015316619588,2.2437986023690115,-0.012885694809150606,0.06858297257529941,-0.8102628938449846
1.8182412456889254,2.2292748268506806,-0.011986357130269775,0.057710727584112026,-0.7059480341180574
1.8156081248976348,2.217222414944473,-0.010910345402692596,0.04709285420900178,-0.5938171729456397
1.8132481335502493,2.2075843015576133,-0.00961131848761648,0.036716827415853026,-0.47503270752896665
1.8112205589956418,2.200307291948576,-0.008019764595926515,0.026561517010572397,-0.3513115678533897
1.809605539522722,2.1953427189765975,-0.006023882994679851,0.016608682745756036,-0.22482561036863816
1.8085202455384919,2.1926412811191334,-0.0034134559986272015,0.006882081232182539,-0.09786423849956702
