x,y,v_x,v_y,omega
2.375,32.48,0.0,3.948717948717949,-4.448979591836735
2.3731936145046726,31.586451893378765,-0.015707699959368545,3.821265587118862,-4.039786649889105
2.36815116707603,30.72134438668588,-0.02813966898534872,3.7014083841235843,-3.6878540318378503
2.360550110584294,29.883010777450522,-0.03795647442105054,3.588449087488235,-3.38301537827053
2.350932456613355,29.069934749456483,-0.04567529923929201,3.4817772428947276,-3.1172090821663696
2.3397338559163696,28.28073202073548,-0.05170383725623109,3.380855180766144,-2.883988169179289
2.3273058840094016,27.514134886772872,-0.05636548367392484,3.285206853691313,-2.678156072255262
2.313933255926853,26.768979084690685,-0.05991823878301998,3.1944088165885884,-2.495493062037564
2.2998472212706416,26.044192543233258,-0.06256901909707845,3.108082848258609,-2.3325487534688776
2.28523605746472,25.338785682778667,-0.06448457921528633,3.025889851346537,-2.186483305136812
2.270253341294985,24.65184300217309,-0.06579990921719085,2.947524762614979,-2.05494486359321
2.2550245071225063,23.982515743202732,-0.06662473576088324,2.8727122719098803,-1.9359742381762315
2.2396520749376014,23.3300154644244,-0.06704858758611666,2.801203195727797,-1.8279302105550677
2.2242198392419,22.693608387536834,-0.06714476628954771,2.732771385903188,-1.7294306068615855
2.20879624130592,22.072610404007406,-0.06697347663201493,2.6672110795701163,-1.6393055016132378
2.1934370961340073,21.466382649035555,-0.06658430747157629,2.6043346158372853,-1.5565598253504331
2.1781878068596257,20.874327565391606,-0.06601820795783052,2.5439704593274817,-1.4803433103234087
2.1630851699880833,20.29588539212743,-0.06530906918601505,2.485961482100108,-1.4099261987423641
2.148158852515095,19.730531023284463,-0.06448499579649267,2.4301634643604992,-1.3446795037013102
2.133432604740903,19.17777119002467,-0.06356933267473988,2.3764437813768184,-1.2840588875931433
2.1189252592960237,18.6371419264601,-0.06258149728073224,2.324680249619462,-1.2275914306967866
2.104651556553482,18.108206285145755,-0.061537657002241015,2.274760109635721,-1.1748647209483394
2.090622828522079,17.590552272953722,-0.06045128240126228,2.2265791268167323,-1.125517817272308
2.07684756697012,17.083790982038263,-0.05933360065925073,2.180040794187255,-1.0792337324367274
2.063331896522892,16.58755489397081,-0.05819396844708097,2.135055623790591,-1.0357331539786152
2.050079969509602,16.10149633798024,-0.05704017949456956,2.091540515257853,-0.9947691783468445
2.0370942961773837,15.625286086665628,-0.055878719046459496,2.0494181918257426,-0.9561228777789955
2.0243760213657946,15.158612074627204,-0.05471497496735812,2.008616695464915,-0.9195995543851984
2.011925156709726,14.701178227244132,-0.05355341334628502,1.9690689339531025,-0.8850255635854722
1.9997407758070909,14.252703388362399,-0.052397724937496185,1.9307122737141331,-0.8522456110567007
1.9878211784686763,13.812920336981257,-0.05125094757045713,1.8934881730784066,-0.8211204449286098
1.9761640290974636,13.381574884174466,-0.050115568700958166,1.8573418513284798,-0.7915248790756058
1.96476647337372,12.9584250424796,-0.0489936115055073,1.8222219894964475,-0.7633460947171385
1.9536252367108449,12.543240260857079,-0.04788670730210353,1.7880804593950435,-0.7364821767328866
1.9427367073642872,12.135800719078954,-0.046796156581007,1.7548720778060387,-0.7108408485644283
1.932097006597125,11.735896676071405,-0.04572298052474929,1.7225543831291825,-0.6863383756597304
1.921702047911436,11.343327867317488,-0.04466796456819894,1.6910874321222724,-0.66289861239405
1.911547587028672,10.957902946939146,-0.043631695281922026,1.6604336146459064,-0.6404521714865181
1.9016292640322572,10.579438970529118,-0.04261459164342623,1.6305574845717252,-0.6189356982968419
1.8919426388613692,10.207760915202375,-0.04161693158168646,1.6014256052260358,-0.5982912351674063
1.88248322115817,9.842701233689858,-0.04063887453308951,1.5730064079262887,-0.5784656632813615
1.873246495314922,9.4840994396104,-0.03968048062558775,1.5452700623298639,-0.5594102114242869
1.8642279414371057,9.131801721334988,-0.03874172700759766,1.51818835745633,-0.5410800226359177
1.8554230528293902,8.785660582105127,-0.037822521755143036,1.4917345923685612,-0.5234337710758862
1.8468420722852854,8.445535548944125,-0.03679470036750965,1.4658743916401378,-0.5026761835876797
1.8384940307970674,8.111291735691331,-0.035796964747429424,1.4405935496885174,-0.4829761767125837
1.8303720916095059,7.782798512108688,-0.03482859340527918,1.4158692640736013,-0.4642662391380555
1.8224695868408083,7.459930359287437,-0.03388883936600548,1.3916798908938086,-0.44648398630027014
1.8147800223756643,7.1425666116358215,-0.03297693859176752,1.3680048712941622,-0.42957170988548254
1.8072970809799231,6.830591215133282,-0.03209211702337252,1.3448246635105232,-0.4134759721459652
1.8000146239308523,6.523892500633323,-0.031233596446807513,1.3221206799673926,-0.3981472400648328
1.792926691413037,6.222362971102722,-0.03040059936028391,1.2998752289943631,-0.38353955500916975
1.7860275018926282,5.925899101779969,-0.029592352991095656,1.2780714607687262,-0.3696102340357197
1.7793114506508623,5.634401152321669,-0.02880809258947952,1.256693317129534,-0.35631959946946284
1.7727731076306614,5.347772990083424,-0.028047064107918223,1.2357254849421488,-0.3436307337724322
1.7664072147270335,5.0659219237519935,-0.027308526358410686,1.2151533527224714,-0.33150925706635426
1.7602086826322454,4.788758546609351,-0.026591752726704963,1.1949629702570268,-0.31992312497516034
1.7541725873299119,4.516196588767176,-0.025896032510976115,1.1751410109792846,-0.30884244471807765
1.748294166317748,4.248152777762861,-0.025220671942622785,1.1556747368843077,-0.2982393076159796
1.74256881462642,3.984546706956081,-0.02456499493849093,1.136551965783347,-0.2880876363773098
1.736992080691424,3.725300711208476,-0.023928343626691904,1.1177610407175678,-0.2783630457089386
1.7315596621259153,3.4703397493688755,-0.02331007868208006,1.0992908013659253,-0.26904271495497123
1.7262674014347188,3.219591293122697,-0.02270957950223646,1.0811305572964947,-0.26010527160555996
1.7211112817031728,2.9729852217974013,-0.022126244250338812,1.0632700629234624,-0.2515306846405648
1.7160874222888245,2.7304537227461836,-0.021559489787472106,1.0456994940436584,-0.24330016678149846
1.7111920745391949,2.4919311969599,-0.021008751513655635,1.0284094258370737,-0.23539608482136984
1.7064216175547084,2.2573541695827153,-0.02047348313405011,1.0113908122253903,-0.22780187728732507
1.7017725540123871,2.0266612050303046,-0.019953156364395968,0.9946349664912376,-0.22050197876672636
1.6972457695831067,1.7998886477428329,-0.01941018649891333,0.9773003142693746,-0.230201543827772
1.6928405845375591,1.5770883958642976,-0.018895770418890966,0.960093180326594,-0.24222661093088602
1.688550392959165,1.358231557870738,-0.018410243306276063,0.9430097587478351,-0.2564502546039317
1.6843685281412264,1.143290099750434,-0.017953798588842624,0.9260463988200244,-0.2727496685158131
1.6802882937536303,0.9322368101573772,-0.01752650043372987,0.9091995976413488,-0.29100586984280497
1.6763029922520885,0.7250452672018248,-0.017128295231852848,0.8924659932764916,-0.31110341568891586
1.672405950753186,0.521689806755834,-0.016759022149906336,0.875842358427768,-0.3329301303569541
1.66859054458161,0.322145492158171,-0.016418422820320386,0.8593255945953691,-0.3563768423197543
1.664850218680404,0.12638808520885902,-0.01610615023364638,0.8429127267030221,-0.38133712978565704
1.661178507060908,-0.0656059816513519,-0.01582177689240573,0.8266008981683602,-0.40770707378910287
1.657569050456038,-0.25385963207673257,-0.015564802280373904,0.8103873664001716,-0.43538501776631106
1.654015612328691,-0.43839517156411745,-0.015334659696557796,0.7942694987075137,-0.46427133259758874
1.6505120933762347,-0.6192343123054513,-0.015130722498715169,0.7782447686084603,-0.4942681861118946
1.647052544662213,-0.7963981972362646,-0.0149523097971244,0.7623107525290175,-0.5252793160558229
1.643631179497472,-0.9699074233689373,-0.0147986916354057,0.7464651268855557,-0.5572098055280469
1.6402423841848792,-1.1397820644986751,-0.01466909369148833,0.730705665546964,-0.5899658598712568
1.636880727734606,-1.3060416933692807,-0.014562701528279454,0.7150302376757095,-0.6234545839964313
1.6335409706505324,-1.4687054033862452,-0.014478664420187573,0.6994368059500894,-0.6575837590885012
1.6302180728826998,-1.6277918299654317,-0.014416098778355441,0.6839234251732697,-0.6922616176075878
1.626907201035852,-1.7833191716073529,-0.014374091194232351,0.6684882412782397,-0.7273966154554196
1.6236037349199535,-1.9353052107896431,-0.01435170111793125,0.6531294907416515,-0.7628972001215283
1.620303273525158,-2.083767334773661,-0.01434796318463913,0.637845500423711,-0.7986715735575496
1.6170016405010226,-2.228722556425822,-0.014361889199144409,0.6226346878559242,-0.8346274484494408
1.6136948892178142,-2.3701875351596726,-0.014392469785275594,0.6074955620036603,-0.870671796465575
1.6103793074865855,-2.508178598111762,-0.014438675703671794,0.5924267245362729,-0.9067105869522529
1.607051422014318,-2.642711761672494,-0.014499458837784428,0.5774268716440352,-0.9426485144258291
1.6037080026708788,-2.7738027535031407,-0.014573752844294059,0.5624947964485264,-0.9783887130709117
1.6003460666458662,-2.9014670351817955,-0.014660473460164596,0.5476293920615073,-1.0138324562953989
1.5969628825757036,-3.0257198256349156,-0.014758518454292028,0.5328296553569225,-1.0488788392138475
1.5935559747246468,-3.1465761255271048,-0.014866767207071878,0.5180946915316649,-1.0834244417292447
1.5901231273077778,-3.264050742800734,-0.014984079896137028,0.5034237195433781,-1.1173629696581984
1.5866623890497158,-3.378158319578958,-0.015109296260923782,0.4888160785281193,-1.1505848710947082
1.58317207807977,-3.488913360671198,-0.015241233912517029,0.4742712353174751,-1.1829769249323976
1.5796507872727763,-3.5963302639500228,-0.015378686148299767,0.4597887931940637,-1.214421798164648
1.5760973901550575,-3.7004233529027033,-0.015520419223167468,0.445368502046666,-1.244797568258208
1.5725110475070558,-3.8012069117009446,-0.01566516902032442,0.43101027011193355,-1.27397720655252
1.568891214808417,-3.898695223178521,-0.015811637054795064,0.4167141775191889,-1.3018280182815474
1.5652376506879855,-3.992902610160435,-0.015958485731567225,0.40248049188873575,-1.328211034459756
1.5615504265605917,-4.0838434806490085,-0.01610433276750756,0.3883096862727804,-1.3529803505389557
1.5578299376550973,-4.171532377444144,-0.016247744671574835,0.37420245977189853,-1.3759824064589545
1.5540769156643446,-4.255984032856965,-0.016387229161057046,0.3601597612091452,-1.397055202529483
1.5502924432780278,-4.337213429270314,-0.016521226372130948,0.3461828162982318,-1.4160274455644593
1.5464779708946867,-4.415235866406718,-0.016648098700400838,0.33227315880091446,-1.432717619947821
1.542635335849893,-4.490067036285282,-0.016766119080415406,0.3184326662300684,-1.446932978999037
1.5387667845452897,-4.561723106984012,-0.016873457481351547,0.30466360071541077,-1.4584684533565595
1.53487499791883,-4.630220816472061,-0.016968165357428296,0.29096865570238933,-1.4671054754486004
1.5309631207622045,-4.695577577934806,-0.017048157743662924,0.27735100919104166,-1.4726107229730803
1.5270347954696453,-4.757811598177504,-0.01711119262641785,0.2638143842237045,-1.474734790399778
1.523094200896776,-4.816942010849395,-0.01715484713766271,0.2503631172710034,-1.473210806925193
1.5191460971245543,-4.872989026360692,-0.01717649001209116,0.23700223500116635,-1.4677530336604583
1.5151958770701963,-4.925974100437536,-0.017173249591021563,0.22373753958009623,-1.4580554944885726
1.511249626077816,-4.975920123222963,-0.017141976429675923,0.21057570203228568,-1.4437907274984159
1.5073141908780499,-5.022851630601721,-0.01707919922046646,0.19752436213082075,-1.4246087923708601
1.5033972596635945,-5.0667950388722645,-0.01698107220958048,0.1845922315260683,-1.4001367411792311
1.4995074555449064,-5.107778902806125,-0.016843311431186052,0.17178919398574027,-1.3699788668996986
1.4956544464249544,-5.145834195210405,-0.016661115698831466,0.15912639213845103,-1.3337182015155735
1.4918490755280849,-5.180994602871614,-0.016429066013076265,0.14661628317642736,-1.290919966370717
1.4881035187128688,-5.213296828516675,-0.01614099324967157,0.1342726354763059,-1.241138011285564
1.4844314777608534,-5.24278088020602,-0.015789797637419684,0.12211042269192332,-1.1839257519535764
1.4808484238530943,-5.269490317101308,-0.01536719286483307,0.1101455503106114,-1.1188537608948015
1.4773719137497254,-5.293472402406479,-0.014863329773159007,0.0983943219082634,-1.0455369894016742
1.4740220149712608,-5.314778089512984,-0.014266224822184497,0.08687252249613625,-0.9636754983632868
1.4708218991270805,-5.333461737241237,-0.013560869475035585,0.07559397948865441,-0.8731131895241979
1.4677987002224115,-5.34958042215149,-0.012727816652520572,0.06456849799183446,-0.7739183906400041
1.464984796822609,-5.363192712680082,-0.011740908563152953,0.05379924573507448,-0.6664861564737125
1.4624197813103568,-5.374356843580223,-0.0105635741520846,0.043280153396584274,-0.5516511241539892
1.460153572042851,-5.38312848204891,-0.009142593391444262,0.03299496372242604,-0.43077752852736545
1.4582515693466618,-5.389558888825121,-0.007396560488461065,0.022921616940274434,-0.305760599181796
1.4568042025222483,-5.3936956642598375,-0.005189237984698515,0.013050343361633902,-0.17884812640851724
1.4559503873359443,-5.395592892257312,-0.002235241896207195,0.0034472913990021437,-0.05221051678270003
