x,y,v_x,v_y,omega
2.375,32.48,0.0,2.051282051282051,-2.2448979591836737
2.3747451905121,32.11397148797026,-0.002831216532222195,2.0157014157149904,-2.151454181652137
2.3740071315398317,31.75426954730431,-0.005369438715202885,1.9809868139067082,-2.063441202970769
2.3728360984869674,31.400741565363816,-0.00764203964995482,1.9471018743210036,-1.9804330341657257
2.3712776877914705,31.05324129225541,-0.009673634744455692,1.914012271327948,-1.9020440683346789
2.3693732857026646,30.711628486077572,-0.01148638846449975,1.881685575092464,-1.8279246827873636
2.3671604852267776,30.375768583932818,-0.013100283489800439,1.8500911154048247,-1.7577573788996477
2.3646734575530055,30.04553239633995,-0.014533357329889213,1.8191998578492292,-1.6912533869028894
2.3619432834292704,29.72079582294997,-0.015801910711610818,1.7889842909283569,-1.6281496736358958
2.358998249236862,29.401439587701102,-0.01692069142625997,1.7594183229479545,-1.568206300343468
2.3558641118965986,29.087348991749764,-0.017903056798892373,1.7304771876224925,-1.5112040852204383
2.3525643362098547,28.778413682689106,-0.01876111749825806,1.7021373574958962,-1.4569425318220837
2.349120307782361,28.474527438719875,-0.019505865029454072,1.6743764643844532,-1.4052379898933172
2.345551524285868,28.175587966572174,-0.020147284931578323,1.6471732261455931,-1.3559220197754591
2.3418757674733084,27.88149671209475,-0.020694457430192915,1.6205073791590594,-1.3088399354663067
2.338109258069039,27.592158682532393,-0.021155647061694514,1.5943596159782742,-1.263849504748218
2.3342667954006133,27.30748227960393,-0.021538382587473384,1.5687115276712804,-1.2208197876521527
2.3303618834167072,27.027379142575356,-0.02184952834481812,1.543545550424022,-1.1796300969694042
2.3264068445425634,26.751764000594928,-0.022095348034557653,1.5188449160251605,-1.1401690666205226
2.3224129226557606,26.480554533622374,-0.022281561818807503,1.4945936058921365,-1.102333815495568
2.3183891322981207,26.2136721740384,-0.02242721993274777,1.4707659450409134,-1.0652054665792483
2.3143430502597715,25.951041019509837,-0.022529247160019927,1.4473579941653179,-1.0296536856274794
2.3102821775481215,25.692586783685986,-0.022591560747204448,1.4243557372108098,-0.995593784640345
2.3062133402380187,25.438237649649288,-0.022617742698379156,1.4017457520858432,-0.9629464809174001
2.3021427471153757,25.1879241658772,-0.022611069775434988,1.3795151787151272,-0.931637496815012
2.2980760421797988,24.94157914776936,-0.022574540619864518,1.3576516891497703,-0.9015971931232144
2.294018352497589,24.6991375843838,-0.022510900293579644,1.3361434595786827,-0.8727602329069345
2.2899743318458787,24.46053655005279,-0.022422662503198586,1.3149791440991885,-0.8450652729833265
2.285948200543713,24.22571512057333,-0.02231212974308499,1.2941478501170374,-0.8184546804967929
2.281943781825831,23.994614293689665,-0.022181411566716262,1.273639115257032,-0.7928742723106282
2.2779645350792324,23.767176913605738,-0.022032441173266925,1.2534428856754543,-0.7682730751630497
2.274013586230777,23.543347599284246,-0.021866990476237254,1.2335494956744832,-0.7446031047391072
2.2700937555456266,23.323072676306115,-0.021686683803210226,1.2139496485269707,-0.7218191619915851
2.2662075830709294,23.106300112080227,-0.021493010360096702,1.194634398427338,-0.699878645206115
2.262357351936385,22.89297945420757,-0.02128733557928283,1.1755951334910886,-0.6787413764506007
2.2585451097029656,22.68306177181753,-0.021070911458710335,1.1568235597315497,-0.6583694411786862
2.2547726879327694,22.476499599706372,-0.02084488598791244,1.1383116859480227,-0.6387270398731193
2.2510417201366066,22.273246885119235,-0.02061031174723253,1.120051809464602,-0.6197803507190138
2.24735365824116,22.0732589370277,-0.02036815375772659,1.1020365026635548,-0.6014974023905161
2.2437097877043324,21.876492377764453,-0.020119296651469602,1.084258600261389,-0.5838479561184272
2.2401112413954465,21.68290509688576,-0.019864551225040602,1.0667111872796042,-0.5668033962819575
2.236559012346245,21.492456207140687,-0.019604660432755952,1.049387587665675,-0.5503366288359025
2.2330539654689368,21.305106002433703,-0.0193403048706708,1.0322813535230537,-0.534421986945949
2.22959684832881,21.12081591767455,-0.019072107797401174,1.0153862549119677,-0.5190351432602507
2.2261883010510406,20.939548490415774,-0.018800639733368492,0.9986962701855245,-0.5041530282954917
2.2228294282371768,20.76148877289524,-0.018520169309563805,0.9797450355981777,-0.5380877524194322
2.2195183239209966,20.58683078535594,-0.018269878647995636,0.9608992703940907,-0.5732977760742921
2.2162496224795762,20.415555781153273,-0.01804902625667636,0.9421563318577706,-0.6096792155119125
2.2130180963356354,20.247645479990993,-0.01785681978710671,0.9235136810564424,-0.6471296475680646
2.2098186646858857,20.083082049477554,-0.01769242076566885,0.9049688802039936,-0.6855478892948254
2.2066464014165694,19.921848087124804,-0.017554948893401832,0.886519590382095,-0.7248337783696246
2.2034965422816697,19.76392660272467,-0.017443485938815385,0.8681635696194012,-0.7648879533401717
2.20036449141508,19.609301001038997,-0.01735707924551633,0.8498986713325165,-0.8056116327376195
2.1972458272443585,19.457955064736886,-0.017294744873610858,0.8317228431353736,-0.8469063920556469
2.1941363078705365,19.309872937512285,-0.017255470391080763,0.8136341260268514,-0.8886739375500968
2.1910318759757663,19.165039107312577,-0.017238217328585832,0.7956306539699151,-0.9308158757617883
2.1879286633184383,19.02343838960614,-0.017241923308391163,0.7777106538793376,-0.973233477603392
2.1848229948737035,18.885055910613474,-0.017265503855328716,0.7598724460392309,-1.015827435779022
2.181711392676188,18.749877090422082,-0.01730785389484658,0.7421144449762411,-1.0584976142215223
2.1785905794210296,18.61788762590047,-0.017367848940244738,0.7244351608194319,-1.101142788136312
2.175457481879278,18.48907347332019,-0.017444345968107604,0.7068332011836862,-1.1436603731309778
2.172309234184157,18.363420830587856,-0.017536183977682678,0.6893072736200054,-1.1859461417853818
2.1691431810457824,18.24091611898054,-0.017642184226479108,0.671856188683509,-1.227893925876615
2.165956880953643,18.12154596426797,-0.017761150130623318,0.6544788636783694,-1.2693953023153817
2.162748109428586,18.00529717709355,-0.017891866814458784,0.6371743271485342,-1.3103392606740838
2.1595148623892335,17.892156732472714,-0.01803310028945577,0.6199417241940722,-1.3506118499908046
2.156255359701795,17.78211174825175,-0.01818359623763867,0.6027803227055518,-1.390095802316627
2.152968048987164,17.675149462352156,-0.018342078369370178,0.5856895206232653,-1.428670130235733
2.1496516097651774,17.571257208605047,-0.018507246319369057,0.5686688543446354,-1.4662096953286423
2.1463049580229976,17.470422390956042,-0.018677773038186334,0.5517180084220794,-1.5025847442699438
2.1429272513029582,17.372632455793678,-0.01885230162891469,0.5348368267153151,-1.537660408955748
2.1395178944150084,17.277874862122474,-0.01902944157053073,0.5180253251869323,-1.5712961667480212
2.1360765458902766,17.186137049265394,-0.01920776425982334,0.501283706558402,-1.6033452566116577
2.132603125305507,17.097406401738304,-0.019385797793169342,0.4846123770759242,-1.6336540466194478
2.1290978216233674,17.011670210890998,-0.019562020897272617,0.46801196567195325,-1.6620613480313104
2.125561102711241,16.9289156328541,-0.01973485590412985,0.45148334584909805,-1.6883976709493536
2.1219937262214046,16.84912964226843,-0.01990266064960773,0.4350276606583851,-1.7124844164570627
2.1183967520388367,16.77229898120178,-0.020063719156702565,0.4186463511932519,-1.7341330002391546
2.11477155652984,16.698410102577803,-0.020216230943261772,0.4023411890731428,-1.753143903050432
2.1111198488557426,16.627449107351236,-0.02035829876893367,0.38611431344429037,-1.7693056442058086
2.107443689651969,16.55940167456435,-0.020487914606326922,0.369968273076695,-1.7823936757148695
2.103745512414725,16.494252983311284,-0.020602943585273807,0.35390607417957315,-1.7921691970949782
2.1000281479867526,16.431987625522655,-0.020701105614414825,0.3379312345829581,-1.7983778947191833
2.096294852591975,16.372589508366914,-0.020779954327557578,0.3220478449252748,-1.8007486154445493
2.0925493399389787,16.316041744955726,-0.020836852927958432,0.30626063742126436,-1.798991993174216
2.0887958179991744,16.26232653195167,-0.020868946403202273,0.29057506262382066,-1.792799060314016
2.0850390311730265,16.211425012630425,-0.020873129442883928,0.2749973742788847,-1.7818398957998491
2.0812843086962083,16.163317123981933,-0.02084600918843378,0.25953472181547943,-1.7657623904135529
2.077537620321413,16.117981426601506,-0.020783861642623126,0.24419524907816884,-1.7441912527082135
2.0738056405640863,16.075394916509044,-0.020682580105447924,0.2289881963936364,-1.716727441153239
2.070095823159041,16.035532818773753,-0.02053761328394319,0.21392400066517156,-1.6829482988762214
2.066416487901164,15.998368364111691,-0.020343889581360044,0.1990143844688468,-1.6424087990732463
2.062776922837928,15.96387255175815,-0.020095722232373922,0.1842724194594017,-1.5946444990007407
2.059187506010538,15.932013905322304,-0.019786686960846133,0.16971254093889865,-1.5391770712638047
2.0556598528792875,15.902758233603993,-0.019409458941940856,0.15535047815344144,-1.475523660691325
2.0522069986713767,15.8760684162763,-0.018955587812621327,0.14120304770982844,-1.4032118313811244
2.048843629902804,15.851904245831026,-0.01841517628263505,0.12728773501544483,-1.3218025338565935
2.045586387466185,15.830222373037362,-0.01777640634646354,0.11362196269192473,-1.2309242927283108
2.0424542768980856,15.810976423283538,-0.01702482218797474,0.10022192346168025,-1.1303224972008368
2.039469242840205,15.794117372761391,-0.016142222899587635,0.08710086011771179,-1.0199277358205847
2.0366569992054497,15.779594287168521,-0.015104928597690614,0.07426675758084553,-0.8999453437898499
2.0340482624658156,15.767355508469016,-0.01388103517602068,0.061719672413658735,-0.7709624288624176
2.0316806299666963,15.757350279968826,-0.012425992591974943,0.04944953314401974,-0.6340552532576019
2.0296015269493584,15.749530542178984,-0.010675152045112657,0.037436442298646,-0.49085660805425463
2.0278730955319517,15.743852065368664,-0.008529641481625484,0.025657744482697777,-0.34351461390029414
2.026581439015854,15.740272797867547,-0.005822097586126472,0.014111894418581261,-0.1944608446067389
2.025860673625355,15.738741412158202,-0.002186406752755,0.0029035023519189667,-0.04594683358299581
