x,y,v_x,v_y,omega
2.375,32.48,0.0,3.5897435897435894,-7.63265306122449
2.372936734068996,31.771626089356666,-0.02063265931003877,3.4939955166897305,-7.069673540083299
2.3670931018731225,31.081934462470485,-0.03780366264869872,3.402920752172054,-6.569505933839873
2.358105239425185,30.4100278280261,-0.05207496183067498,3.3161455922718184,-6.123115115813365
2.3465068431434455,29.755079299679235,-0.063909000986721,3.233339691196814,-5.723004619859883
2.3327471139563842,29.116324417012112,-0.07368829088388945,3.1542091354744253,-5.362916713935485
2.3172052158991563,28.493054409328067,-0.08173068968839291,3.078490941366015,-5.037598296457354
2.3002020028318966,27.884610452694197,-0.08830144098420245,3.0059486249726786,-4.742616512807337
2.2820095853848272,27.290378730950852,-0.09362273348649146,2.93636859246079,-4.474212346407925
2.262859177344601,26.709786155125137,-0.09788134691576914,2.8695571657963774,-4.2291835020019235
2.2429475620185015,26.142296627825132,-0.10123480634522727,2.805338107203631,-4.004790086176671
2.222442444917875,25.5874077631371,-0.10381636466103786,2.7435505396767015,-3.7986781742300813
2.201486902695901,25.04464799061732,-0.10573905755869843,2.6840471855210954,-3.6088175141682743
2.180203094970522,24.513573985772396,-0.10709901969509684,2.62669286292817,-3.4334504803331884
2.158695372126417,23.993768380086827,-0.10797820874595214,2.5713631939275143,-3.271050034981804
2.1370528860133726,23.48483771198931,-0.10844665238449187,2.5179434870476274,-3.1202849447291037
2.115351789882186,22.98641058672745,-0.10856430892737588,2.4663277655709486,-2.9799908715878334
2.0936570976213846,22.498136018365727,-0.1083826136806372,2.4164179180463186,-2.8491462450663216
2.072024259405037,22.01968193134274,-0.10794576848283877,2.3681229521835627,-2.7268520439044597
2.0505005004991417,21.550733802450992,-0.10729182057611497,2.3213583367339163,-2.612314789252322
2.0291259616422628,21.09099342690781,-0.10645356799267393,2.2760454186978754,-2.50483218703179
2.0079346726861775,20.640177794500453,-0.10545932156817747,2.232110905375699,-2.4037809645162844
1.9869553857228417,20.198018063711295,-0.10433354806518114,2.1894864025159184,-2.3086065313130675
1.9662122894771747,19.76425862333756,-0.10309741439148758,2.1481080012214155,-2.218814162852934
1.9457256231093552,19.338656232473987,-0.10176924928670929,2.1079159074142932,-2.1339614589308784
1.925512204586843,18.920979230873,-0.10036493593841171,2.0688541085956005,-2.053651873673416
1.9055858863298027,18.511006812672782,-0.09889824663198912,2.0308700734065814,-1.977529148752914
1.885957948804301,18.108528357318384,-0.09738112862302856,1.993914480137396,-1.905272510449409
1.866637441056103,17.71334281221837,-0.09582394885895018,1.957940970862706,-1.836592514620723
1.8476314757803465,17.325258122298983,-0.09423570389861796,1.9229059283311867,-1.7712274428372632
1.8289454853575444,16.9440907021545,-0.0926242003294009,1.888768273113632,-1.7089401687003323
1.8105834443128876,16.569664946959698,-0.09099621011716819,1.8554892788344215,-1.6495154263506813
1.7925480628400603,16.201812778717883,-0.08935760461110594,1.823032403583718,-1.5927574239112117
1.774840955345531,15.840373224775423,-0.08771347033418436,1.791363135840899,-1.538487753512482
1.757462787392193,15.48519202584734,-0.08606820919919439,1.7604488534399436,-1.4865435569574132
1.7404134039341272,15.13612127107534,-0.08442562538146425,1.7302586942800644,-1.4367759122622537
1.723691941322175,14.793019057883914,-0.08278900073806043,1.7007634376341771,-1.3890484114824688
1.7072969252106063,14.45574917461676,-0.08116116037762487,1.6719353950373763,-1.343235904571547
1.691226356198308,14.124180804127981,-0.07954452974535849,1.6437483098504213,-1.299223387671409
1.6754777847851565,13.79818824667376,-0.07794118438615548,1.616177264691771,-1.256905017312512
1.6600483770086334,13.477650660602784,-0.07635289337907715,1.5891985960179982,-1.2161832346057582
1.644934971941432,13.162451819480165,-0.07478115729293514,1.5627898152081956,-1.176967985715768
1.630134132073001,12.852479884401877,-0.07322724139137578,1.5369295355746784,-1.1391760267808004
1.615642187462571,12.547627190366292,-0.07169220471292302,1.5115974047811553,-1.1027303030421274
1.6014552744348816,12.247790045668019,-0.07017692556397338,1.4867740422015914,-1.0675593933093512
1.5875846879560065,11.95287179596367,-0.06852893922477488,1.4624084548418967,-1.0292827049150122
1.5740399814192867,11.662779187303116,-0.06691812614242386,1.4385176317636534,-0.9927483240266559
1.5608137544822052,11.377418961678774,-0.06534414322839105,1.415084624479776,-0.9578563341506874
1.5478986837404982,11.096701173191445,-0.06380656418867878,1.39209326039352,-0.9245136374047194
1.5352875379897069,10.82053903734812,-0.06230489331923495,1.3695280980397324,-0.8926334151142098
1.5229731909068907,10.548848789003479,-0.060838577508928654,1.3473743854066573,-0.8621346367824806
1.5109486314883247,10.281549548353698,-0.059407016676730956,1.325618021091151,-0.8329416125947652
1.4992069725366153,10.018563194438304,-0.05800957284036082,1.3042455180627965,-0.8049835851501965
1.4877414574537546,9.759814245648752,-0.05664557798824535,1.2832439698327305,-0.7781943565848437
1.4765454655644659,9.505229746781357,-0.055314340904643204,1.2626010188412295,-0.7525119476623464
1.4656125161661306,9.254739162207784,-0.05401515307870934,1.2423048268945154,-0.7278782857735576
1.4549362714770866,9.00827427476873,-0.052747293811729996,1.222344047496013,-0.7042389191090539
1.4445105386336756,8.765769090026065,-0.05151003462237966,1.2027077999306264,-0.6815427545537466
1.434329270867703,8.52715974553574,-0.05030264303734885,1.1833856449726359,-0.6597418171057347
1.4243865679795873,8.292384424828608,-0.049124385843807,1.1643675620987033,-0.6387910288459779
1.4146766762081384,8.061383275809003,-0.047974531870680376,1.1456439280973307,-0.6186480056848042
1.4051939875853252,7.834098333301764,-0.04685235435745226,1.1272054969750533,-0.5992728702887101
1.395933038853383,7.610473445497483,-0.04575713296197092,1.1090433810677551,-0.5806280797489983
1.386888510011942,7.3904542040634205,-0.04468815545244019,1.091149033272868,-0.5626782666947897
1.378055222554373,7.173987877703642,-0.04364471912324938,1.073514230324914,-0.5453900926788747
1.369428137445101,6.9610233489668545,-0.04262613196946918,1.0561310570429594,-0.5287321127774474
1.361002352883093,6.751511054114147,-0.04163171365060994,1.0389918914841074,-0.5126746504455425
1.352773101890979,6.54540292587151,-0.04066079627053053,1.0220893909422444,-0.4971896817603055
1.3447357497642125,6.342652338903697,-0.03971272499713341,1.0054164787358801,-0.482250728265242
1.3368857914102366,6.143214057856792,-0.03878685854262663,0.9889663317331766,-0.4678327577013584
1.3292271242010512,5.947224723272662,-0.03779981354922762,0.9709270141081254,-0.4901292782231157
1.3217608851682054,5.754831984034087,-0.03686257677923024,0.9530003782776095,-0.5141680485547739
1.3144772398538649,5.566013609404102,-0.03597387636417644,0.9351833680222601,-0.5398353152172012
1.3073666120153435,5.380747967697925,-0.035132402021036055,0.9174730490395052,-0.5670200210438261
1.3004196908016346,5.199014002354634,-0.03433681011605288,0.8998666043933913,-0.5956135514340987
1.2936274369651715,5.020791208876812,-0.03358572824857822,0.8823613303848272,-0.6255094869987534
1.2869810882013901,4.846059612555393,-0.03287775938923498,0.864954632829361,-0.6566033615479433
1.2804721637021153,4.674799746899218,-0.03221148560351422,0.8476440237323734,-0.6887924243889267
1.27409246800288,4.506992632690544,-0.03158547138883836,0.8304271183543581,-0.7219754059079535
1.2678340941989756,4.342619757588928,-0.03099826665020443,0.8133016326617875,-0.7560522854112344
1.2616894266002827,4.181663056206553,-0.030448409336724876,0.7962653811619635,-0.7909240601922485
1.2556511428907415,4.024104890578027,-0.029934427758686696,0.7793162751232815,-0.8264925147769081
1.2497122158546599,3.869928030947147,-0.029454842602129393,0.7624523211855028,-0.8626599892739414
1.2438659147289095,3.719115636791795,-0.02900816865537416,0.7456716203680187,-0.8993291457248676
1.2381058062374324,3.571651238006222,-0.02859291625939605,0.7289723674877129,-0.9364027313056317
1.2324257553623534,3.4275187161572553,-0.02820759249139266,0.7123528510019674,-0.9737833371797517
1.2268199259043802,3.28670228572739,-0.027850702088340337,0.695811453296671,-1.011373151740036
1.2212827808840747,3.149186475253341,-0.027520748114714378,0.6793466514438341,-1.0490737069017904
1.2158090828350179,3.014956108263089,-0.027216232375852988,0.6629570184586979,-1.086785616024108
1.210393894039869,2.883996283908008,-0.02693565557563411,0.6466412250921206,-1.1244083019363904
1.2050325767608883,2.756292357178733,-0.026677517214174454,0.6303980422006443,-1.1618397134337342
1.1997207935176595,2.6318299185842555,-0.026440315218113002,0.6142263437441214,-1.198976028476212
1.1944545074665818,2.5105947731629215,-0.026222545292664993,0.5981251104692369,-1.2357113421824157
1.1892299829392172,2.39257291868131,-0.02602269998097984,0.5820934343468742,-1.2719373375460303
1.1840437861998836,2.2777505228624015,-0.025839267412355912,0.5661305238422122,-1.3075429366249767
1.1788927864869982,2.1661138994672875,-0.02567072971649777,0.5502357101089171,-1.3424139297554591
1.1737741574077303,2.0576494830350924,-0.025515561076181477,0.5344084542130396,-1.3764325801283106
1.1686853787615776,1.9523438020629378,-0.025372225385345976,0.5186483555084977,-1.4094772008334526
1.1636242388756763,1.8501834503816283,-0.025239173473667414,0.5029551613046018,-1.4414217012325397
1.1585888375431097,1.7511550564524434,-0.02511483985199963,0.4873287779872621,-1.4721350992643474
1.1535775896653535,1.6552452502757546,-0.02499763892556207,0.47176928377961475,-1.5014809960295654
1.1485892297114684,1.5624406275622817,-0.02488596061328948,0.4562769433551194,-1.5293170087528771
1.1436228171199234,1.472727710772073,-0.02477816530216079,0.44085222454696976,-1.5554941579982198
1.1386777427842678,1.3860929065741665,-0.024672578054395336,0.42549581743210046,-1.5798562048442437
1.1337537367815396,1.302522459220338,-0.024567481972887748,0.41020865610616825,-1.6022389336501341
1.1288508775226689,1.2220023992589866,-0.02446111061581828,0.39499194350734607,-1.6224693761139257
1.123969602527629,1.1445184869391696,-0.02435163933458247,0.37984717969082654,-1.6403649726287386
1.119110721055228,1.0700561495699823,-0.02423717538942723,0.3647761940010396,-1.6557326675963302
1.1142754288489252,0.9986004120066809,-0.024115746673602,0.3497811816319807,-1.6683679365341908
1.1094653252967464,0.9301358193331772,-0.023985288848186147,0.33486474510304454,-1.6780537447603558
1.10468243334651,0.8646463507027953,-0.023843630654178005,0.32002994120077205,-1.6845594405168998
1.099929222568782,0.8021153231893337,-0.023688477123100633,0.30528033393384524,-1.6876395901145653
1.0952086358216797,0.7425252843958887,-0.023517390347922086,0.29062005400060864,-1.6870327697915883
1.0905241200473228,0.6858578924812164,-0.023327767395647184,0.27605386514609703,-1.6824603395547
1.0858796618246944,0.6320937822121877,-0.023116814830635487,0.2615872375441927,-1.6736252398636917
1.0812798284260192,0.5812124156665739,-0.022881519156117122,0.2472264279119392,-1.6602108748791844
1.076729815286167,0.5331919163409502,-0.022618612242404995,0.23297856534430678,-1.6418801793595397
1.0722355010170972,0.4880088857370346,-0.022324530448292763,0.21885174069484967,-1.6182750148344807
1.0678035114140083,0.44563820211826055,-0.021995365582595287,0.20485509549286188,-1.589016111073353
1.0634412943583738,0.40605280221407014,-0.021626804973749903,0.19099890354906254,-1.553703870535051
1.059157208209326,0.3692234484503345,-0.021214056516728072,0.17729463408826682,-1.511920499486797
1.0549606273256538,0.3351184871598747,-0.020751752319992586,0.1637549788163098,-1.4632341372254118
1.05086206999922,0.30370360768169746,-0.020233820944345934,0.15039381596547546,-1.4072059460173396
1.046873356670828,0.27494161896662916,-0.019653312339573296,0.13722607118519337,-1.3434015222646565
1.0430078104319975,0.24879227009051164,-0.019002150048730085,0.12426741757599127,-1.271408509447068
1.0392805184399458,0.22521215473854994,-0.01827076987178606,0.1115337359436077,-1.1908629181746797
1.0357086834922695,0.2041547575533187,-0.017447579604978128,0.09904023590870967,-1.101487279615806
1.0323121119628331,0.1855707207607935,-0.016518135689385798,0.08680013201651304,-1.0031440535072014
1.0291139111913403,0.16940842676993384,-0.015463872025542806,0.0748228078920758,-0.8959069204506177
1.0261415119455843,0.1556149909262885,-0.014260120432016386,0.06311155054437534,-0.7801491884947847
1.0234282001812476,0.144137704809971,-0.012872997211350976,0.05166131061882637,-0.6566400648663346
1.0210154629268897,0.13492580264964715,-0.011254375332227722,0.04045771098443777,-0.5266233891463249
1.0189567129887145,0.12793203947643406,-0.009333124049523758,0.029479920747677184,-0.3918304474030234
1.0173237137756703,0.12311276535985627,-0.006996868080917583,0.01871282041810845,-0.25435948772997274
1.016220123407079,0.12042303535807974,-0.004039035604997061,0.008184479599631794,-0.11636158194655316
