x,y,v_x,v_y,omega
2.375,32.48,0.0,2.2051282051282053,-5.061224489795919
2.3742198431575243,32.043201433380744,-0.007801568424755759,2.1628574610642937,-4.817768767799568
2.371969004126689,31.614729525399717,-0.014706821883595709,2.1218616187460086,-4.591198467471899
2.36841714508986,31.194336015481607,-0.020811768484694383,2.0820734804350733,-4.379948723873772
2.363715852042176,30.78178556917289,-0.026201161992148815,2.043430982652102,-4.18262991023039
2.3580007375143133,30.37685480579796,-0.030949983286475708,2.0058766510972124,-3.9980048671929196
2.3513932690195105,29.979331427617126,-0.03512470166155577,1.9693571307111128,-3.824969505330737
2.344002363557872,29.589013436712765,-0.03878435295482636,1.9338227783324957,-3.6625362170438955
2.3359257818131085,29.205708428098713,-0.0419814644928089,1.899227307808049,-3.5098196395564347
2.3272513502328898,28.82923294938755,-0.044762851309378474,1.8655274793035819,-3.366024394223223
2.318058034731046,28.459411918850666,-0.04717030370905943,1.8326828260652435,-3.2304344940553427
2.3084168860859795,28.096078094936473,-0.049241182741605764,1.8006554130766799,-3.102404164898745
2.2983918740786335,27.739071591327008,-0.05100893733185478,1.7694096230179837,-2.9813498689356477
2.288040624893195,27.388239432454558,-0.05250355452252906,1.738911965706515,-2.8667433542934053
2.2774150741984887,27.04343514510117,-0.05375195242453754,1.7091309078273398,-2.7581055832158983
2.2665620465617686,26.70451838229119,-0.05477832394266231,1.6800367202724655,-2.655001414776147
2.255523770358792,26.371354576181258,-0.05560443808710035,1.6516013408268666,-2.557034937499056
2.244338336086013,26.043814617070183,-0.056249904640689734,1.6237982502838724,-2.463845363315932
2.2330401049132895,25.72177455600606,-0.056732407086548454,1.5966023603573547,-2.3751034076166837
2.221660073406768,25.405115328770854,-0.05706790797866222,1.5699899119947014,-2.2905080913013314
2.210226199575632,25.093722499282197,-0.05727083033270242,1.5439383828918671,-2.2097839100592105
2.198763694731838,24.787486020675303,-0.05735421810523735,1.5184264031770869,-2.1326783239429274
2.187295285081337,24.486300012520708,-0.05732987839977336,1.4934336783688742,-2.058959526913795
2.175853486811301,24.19006766564969,-0.057088104300585515,1.4688897903412874,-1.9846702389781863
2.164466771500563,23.898695691517666,-0.05677904880679184,1.4448299509789553,-1.913801613498386
2.1531478535754136,23.612089038125305,-0.05641013044470541,1.4212365829446627,-1.8461552618681472
2.1419080347044717,23.33015608604468,-0.0559880582647135,1.3980929378615474,-1.7815464949628972
2.1307573387693615,23.05280848763337,-0.055518901086388885,1.375383046251583,-1.7198032249753024
2.1197046337045697,22.77996101589198,-0.05500814956152869,1.353091671162293,-1.6607649673146634
2.1087577415628336,22.511531422260077,-0.05446077185583218,1.3312042651567422,-1.604281932354153
2.09792353801189,22.247440302706863,-0.053881263653605016,1.3097069303754143,-1.5502141979659587
2.087208042335922,21.987610971528504,-0.05327369310607635,1.2885863814081495,-1.4984309547966226
2.0766164988982263,21.731969342313647,-0.0526417412708754,1.2678299107404398,-1.4488098171228214
2.0661534509184944,21.480443815583456,-0.05198873852644265,1.2474253565614868,-1.4012361929081625
2.0558228073269125,21.23296517265311,-0.05131769738937925,1.2273610727419477,-1.3556027073685142
2.045627903376586,20.989466475298165,-0.05063134211388384,1.2076259008075205,-1.3118086749591569
2.035571555624241,20.749882970842336,-0.049932135409566654,1.188209143750769,-1.269759615232057
2.025656111825657,20.514152002313452,-0.04922230257627384,1.1691005415380857,-1.2293668084848768
2.0158834962358876,20.282212923341476,-0.048503853321423,1.150290248181661,-1.19054688754266
2.006255250754129,20.054007017497515,-0.04777860149615988,1.1317688102579404,-1.1532214623852024
1.9967725723084238,19.82947742179527,-0.04704818296089325,1.1135271467644865,-1.1173167746637211
1.9874363468355327,19.608569054097167,-0.04631407176801653,1.0955565302165367,-1.0827633794446003
1.9782471801757806,19.391228544186216,-0.04557759482950553,1.0778485688929862,-1.0494958517800956
1.9692054261709033,19.177404168282003,-0.044839945219265875,1.0603951901491528,-1.0174525159397179
1.9603112122245459,18.967045786795033,-0.04410219424431047,1.0431886247205515,-0.9865751953449059
1.9515644625596316,18.760104785128163,-0.04336530240483061,1.026221391948137,-0.9568089814364358
1.9429649193840715,18.55653401734724,-0.04263012935077073,1.0094862858611142,-0.9281020198713238
1.9345121621558503,18.356287752555275,-0.04189744293144097,0.9929763620585296,-0.9004053125959913
1.9262111897418897,18.15951091842831,-0.04111228120816611,0.9747919792110972,-0.9110866147516359
1.9180640885563576,17.966358972366223,-0.04035873064715507,0.9567274814097922,-0.9237986101480397
1.9100645623481798,17.776808270654357,-0.03963653143462203,0.9387795357088503,-0.9384164550537352
1.9022063765542403,17.590835822382353,-0.03894532650477232,0.9209449470112105,-0.9548184296364064
1.8944833769061988,17.408419262406106,-0.03828466997564175,0.9032206527512381,-0.9728856641199104
1.886889506418273,17.229536825326033,-0.03765403490361797,0.8856037180494986,-0.9925018725148652
1.879418820887529,17.05416732038872,-0.037052820403819534,0.868091331323619,-1.0135530928248933
1.8720655030292022,16.882290107222133,-0.036480358179450396,0.8506808003422587,-1.0359274326529193
1.8648238753613138,16.713885072316685,-0.0359359184994338,0.8333695487121886,-1.059514819146642
1.8576884119453674,16.54893260616632,-0.03541871566003031,0.8161551127914728,-1.084206752229473
1.8506537490830912,16.387413580984695,-0.03492791296273102,0.7990351390247915,-1.1098960600627985
1.843714695063072,16.22930932891221,-0.03446262723746105,0.7820073817000833,-1.1364766556772643
1.8368662390456256,16.074601620629306,-0.03402193293700464,0.7650697011289521,-1.1638432936947114
1.8301035591693706,15.923272644290737,-0.033604865825543735,0.7482200622567238,-1.1918913260381498
1.82342202995869,15.775304984693896,-0.03321042628126286,0.731456533711697,-1.2205164554944181
1.816817229107555,15.63068160259202,-0.03283758223008641,0.7147772873070641,-1.249614485952555
1.810284943712071,15.48938581405999,-0.0324852717247552,0.6981805980132375,-1.2790810680899598
1.8038211760215366,15.351401269816368,-0.03215240518058901,0.6816648444229745,-1.3088114392176406
1.7974221487758384,15.21671193440039,-0.03183786727639274,0.6652285097368118,-1.3387001559247347
1.7910843101955976,15.08530206509651,-0.03154051852601615,0.6488701833019949,-1.3686408180804566
1.7848043386906922,14.957156190491872,-0.0312591965230381,0.6325885627443983,-1.398525782658205
1.7785791473526,14.832259088543434,-0.03099271685788272,0.6163824567399917,-1.4282458657412271
1.7724058882964768,14.710595764021402,-0.03073987370334864,0.600250788480325,-1.4576900309516958
1.7662819569200416,14.592151425183829,-0.03049944006100353,0.5841925998954218,-1.4867450624151453
1.7602049961482296,14.476911459523535,-0.03027016765711884,0.5682070567075204,-1.5152952202301695
1.7541729007352433,14.36486140841274,-0.030050786472744416,0.552293454400452,-1.543221876259842
1.7481838216991594,14.255986940452466,-0.02984000388809255,0.5364512252022728,-1.5704031278979926
1.742236170968695,14.150273823312915,-0.029636503416552037,0.5206799461932453,-1.5967133872929218
1.7363286263272086,14.047707893826832,-0.029438942998311072,0.5049793486675959,-1.6220229433376296
1.730460136745613,13.948275026070487,-0.02924595281764726,0.48934932889584826,-1.6461974935657935
1.724629928203714,13.85196109713539,-0.029056132601341288,0.47378996045510274,-1.6690976429364304
1.7188375101087534,13.758751950258127,-0.0288680483482649,0.4583015083175417,-1.6905783663619922
1.713082682430744,13.6686333549351,-0.02868022843183138,0.4428844449127264,-1.710488431755632
1.7073655436868123,13.581590963603144,-0.02849115900748528,0.42753946840681495,-1.7286697803738489
1.7016864999214139,13.497610264415329,-0.028299278646498123,0.4122675234713499,-1.7449568613538944
1.6960462748462946,13.41667652958369,-0.02810297210469529,0.39706982484504943,-1.7591759176526034
1.690445921323834,13.338774758696903,-0.027900563119910675,0.3819478840228277,-1.771144221171736
1.6848868344004118,13.263889616351126,-0.02769030611431096,0.36690353943495396,-1.7806692558275456
1.6793707661233475,13.192005363357389,-0.02747037665633249,0.3519389905024088,-1.7875478488631797
1.6738998424066656,13.123105780710475,-0.027238860510486795,0.33705683596672176,-1.7915652530576762
1.6684765822486456,13.057174085425245,-0.02699374106971335,0.32226011688555645,-1.7924941860027475
1.663103919649548,12.994192837272053,-0.026732884921263033,0.3075523646463736,-1.7900938377908253
1.6577852286335564,12.934143835381363,-0.026454025238652448,0.29293765426052215,-1.7841088659827289
1.6525243518485029,12.877008003652264,-0.02615474261188218,0.27842066303045965,-1.7742684075896222
1.6473256333058437,12.822765263910124,-0.025832442814711178,0.2640067343909364,-1.7602851534128086
1.6421939559399894,12.771394395846222,-0.02548433084383092,0.24970194624807868,-1.7418545524192033
1.6371347848233384,12.722872882982777,-0.025107380322680523,0.23551318238636754,-1.7186542456878902
1.6321542170912076,12.677176744309229,-0.024698296998627692,0.22144820434911117,-1.6903438747690027
1.6272590399406734,12.634280351931086,-0.02425347450671335,0.2075157194323309,-1.6565654735013682
1.6224567985184795,12.594156236208075,-0.023768939715223838,0.19372543779776705,-1.6169447428813462
1.617755876183827,12.556774881643733,-0.02324028363130051,0.18008810784566948,-1.5710936353271379
1.6131655906459295,12.52210451951639,-0.022662571747676902,0.16661551342776135,-1.5186148500539913
1.6086963110301367,12.490110927304581,-0.022030224410249606,0.15332040869033317,-1.459109079363338
1.6043596033306051,12.46075725085112,-0.021336852585067144,0.14021635584427022,-1.3921861588426456
1.6001684154490845,12.434003873474698,-0.020575026230136503,0.12731741791994608,-1.3174816642793477
1.59613731885465,12.409808367299224,-0.019735939714209005,0.11463764383480755,-1.234680933710054
1.592282832984004,12.388125575786862,-0.0188089189922533,0.10219027128879551,-1.1435528659857035
1.588623872574451,12.368907891128867,-0.017780685103273786,0.08998657529114461,-1.0439958843652823
1.585182379784066,12.352105800525848,-0.01663424280057625,0.07803433073905466,-0.9360975723833947
1.5819842362907544,12.337668769192835,-0.015347192132540655,0.06633598259109742,-0.8202066194151473
1.579060603165129,12.325546480629331,-0.013889139123713663,0.05488690304394633,-0.697009264447663
1.5764499270776215,12.315690323548445,-0.012217621751360257,0.04367466776490196,-0.5675909436196568
1.574201041349249,12.308054731877593,-0.010271235532365613,0.032681248943626354,-0.4334482690403305
1.5723783111586571,12.30259741906563,-0.007956066373553573,0.02189187917601809,-0.2964038358983606
1.571071687335909,12.299276180727762,-0.0051101718539290075,0.011320504202661095,-0.1583802388666628
1.5704254498350159,12.298033450009317,-0.0013522031550014736,0.001106802981774492,-0.021050038353220307
