x,y,v_x,v_y,omega
2.375,32.48,0.0,2.1538461538461537,-4.571428571428571
2.374313586859613,32.05330175546926,-0.006864131403873226,2.1131362914612035,-4.3557750353048785
2.3723320650521464,31.634626386506845,-0.012951086670789069,2.0736173981629498,-4.154726197558446
2.3692027034987095,31.22374176398018,-0.018342528863579476,2.0352288271037167,-3.966959163576554
2.365057374959004,30.820427445402178,-0.023110756533478292,1.9979143586762989,-3.7912957400932097
2.360014308762181,30.424473834161986,-0.027319905434749648,1.96162175372563,-3.626684106111896
2.3541796205271677,30.03568142224224,-0.031026976915384828,1.9263023654718046,-3.4721831235681018
2.347648650723865,29.65386010562165,-0.03428272111764258,1.8919108007341003,-3.3269488600218464
2.3405071388132184,29.278828563269638,-0.03713239798882118,1.858404622786018,-3.190222973042227
2.332832255512651,28.910413692035636,-0.03961643501685577,1.825744089554019,-3.06132266780661
2.3246935122779395,28.548450090882486,-0.04177099733025742,1.793891921977473,-2.939631989204205
2.3161535642289843,28.19277958886123,-0.04362848315929318,1.7628130982350736,-2.824594250004946
2.307268920362071,27.84325081201171,-0.04521795550983915,1.73247467026015,-2.7157054294197573
2.2980905728961414,27.499718785030723,-0.04656551914946076,1.702845599549696,-2.61250840317295
2.288664555924485,27.162044564101027,-0.04769465056710051,1.673896609747289,-2.514587888224984
2.279032442129655,26.8300948977393,-0.04862648738119807,1.6456000538699482,-2.421566003457651
2.269231785122782,26.503741912915274,-0.049380082687535916,1.6179297943703224,-2.3330983626987134
2.259296513952098,26.18286282402908,-0.0499726290193008,1.5908610944916384,-2.248870629001071
2.249257285459427,25.867339662620502,-0.050419655907409676,1.5643705195941477,-2.168595469565996
2.2391417994232024,25.55705902592942,-0.05073520445483631,1.538435847316679,-2.0920098594818546
2.228975080792214,25.25191184263855,-0.05093198185504874,1.513035985592026,-2.018872689837471
2.218779732769105,24.951793154312785,-0.051021498376040864,1.4881508976655942,-1.9489626420042345
2.2085863275317017,24.656606233136614,-0.05091255399799289,1.4637183140961127,-1.878800028987917
2.198421625372865,24.366257872407246,-0.05073446759037654,1.4397652931975933,-1.8118596409111747
2.1882987227518593,24.080653893462586,-0.05049455861967699,1.4162744962490006,-1.7479550789800284
2.178229321260358,23.799703504114824,-0.05019945629533629,1.3932293972286431,-1.686912780466517
2.168223858987029,23.523319140982288,-0.04985516643795727,1.370614234096717,-1.6285709927387306
2.158291629198568,23.251416321209113,-0.049467131446649826,1.348413963634986,-1.5727788404856384
2.148440887640722,22.98391350289228,-0.049040284131806985,1.3266142195333739,-1.519395476654188
2.1386789496187655,22.72073195359445,-0.04857909608776293,1.3052012734449296,-1.4682893086852054
2.129012277890005,22.461795626374098,-0.048087621199839586,1.2841619987585957,-1.419337292571217
2.119446562288964,22.207031042811842,-0.04756953481056912,1.2634838368639474,-1.3724242880813884
2.10998679190701,21.95636718255505,-0.04702816900897445,1.2431547657039888,-1.327442469221592
2.1006373205607627,21.70973537894149,-0.046466544453496794,1.223163270431573,-1.2842907846342726
2.0914019262061676,21.4670692202981,-0.04588739909245418,1.20349831600235,-1.2428744632044497
2.0822838648864304,21.228304456542602,-0.04529321410492025,1.1841493215526089,-1.2031045606345265
2.0732859197410503,20.993378910744923,-0.044686237348879256,1.1651061364242028,-1.1648975431898378
2.0644104455489827,20.762232395331388,-0.04406850457179496,1.1463590177111216,-1.1281749052062107
2.055659409230726,20.53480663263894,-0.043441858610774244,1.1278986092133712,-1.092862817296415
2.047034426691165,20.311045179548223,-0.04280796678483197,1.1097159216937973,-1.0588918024995855
2.038536796346686,20.090893355944598,-0.042168336659959504,1.0918023143424644,-1.0261964378911557
2.0301675296458495,19.87429817677422,-0.04152433034840713,1.0741494773612938,-0.9947150794145777
2.0219273788623586,19.661208287479194,-0.04087717748650172,1.0567494155889698,-0.9643896079136346
2.0138168624116917,19.451573902611024,-0.040227987020165466,1.0395944330927323,-0.9351651945385417
2.0058362879182905,19.245346747435786,-0.03957775791384614,1.0226771186596528,-0.906990083872955
1.9979857732382449,19.04248000235728,-0.03892738888661046,1.0059903321254213,-0.8798153932848041
1.9902652656227326,18.842928249996376,-0.03827768726851171,0.9895271914835938,-0.8535949271435957
1.9826792156946407,18.646837700636844,-0.037582812012409005,0.9713783021117322,-0.865876219098881
1.975229176315897,18.454365075124414,-0.036917581775028026,0.9533479530125855,-0.8801299850403218
1.967909239208766,18.265486993121094,-0.03628178929628143,0.9354328670206151,-0.8962337742244763
1.9607135473237596,18.08018071625785,-0.03567512955378213,0.9176299016118007,-0.914068123357064
1.9536363135542705,17.898424121717007,-0.035097208141108636,0.8999360437966147,-0.9335162898237052
1.946671837843023,17.72019567679022,-0.034547548971367054,0.882348405471259,-0.954463991906288
1.9398145228106436,17.545474414321845,-0.034025601352425654,0.8648642192124866,-0.9767991549198334
1.933058888027783,17.374239908950173,-0.03353074647618078,0.8474808345042459,-1.0004116622228485
1.9263995830441216,17.20647225406102,-0.03306230336043346,0.8301957143872966,-1.0251931100648934
1.9198313992802398,17.0421520393697,-0.03261953427838407,0.8130064325258857,-1.0510365652384137
1.9133492808816657,16.881260329048253,-0.03220164970735907,0.7959106706885876,-1.0778363244977158
1.9069483346284155,16.723778640315043,-0.03180781282514186,0.7789062166435166,-1.1054876746961266
1.900623838987985,16.569688922403554,-0.03143714357916214,0.7619909624713799,-1.1338866525726343
1.894371252394991,16.418973535826087,-0.031088722350778707,0.7451629033032768,-1.1629298030913704
1.8881862208365188,16.271615231846376,-0.03076159323394265,0.728420136493827,-1.192513935200777
1.8820645848186621,16.127597132072577,-0.03045476694462542,0.7117608612441696,-1.2225358738337728
1.8760023857867483,15.98690270807879,-0.03016722337451158,0.695183378693689,-1.2528922069151986
1.869995872069341,15.849515760959019,-0.02989791379956165,0.6786860925040417,-1.2834790260777282
1.8640415044142733,15.715420400712187,-0.029645762751116665,0.6622675099642746,-1.3141916597117003
1.8581359611837405,15.584601025350597,-0.029409669554212065,0.6459262436516102,-1.3449243968873357
1.8522761432748531,15.457042299616543,-0.029188509534661188,0.6296610136889325,-1.375570200588992
1.8464591788320646,15.332729133182927,-0.028981134893222044,0.6134706506472444,-1.4060204085898995
1.8406824278185687,15.21164665820325,-0.028786375241736648,0.5973540991495064,-1.4361644201718442
1.8349434865151464,15.093780206064157,-0.02860303779248683,0.5813104222414417,-1.46588936675729
1.829240192017088,14.979115283179485,-0.028429907188097302,0.5653388066052663,-1.4950797643716272
1.8235706268027703,14.867637545648556,-0.028265744955082602,0.5494385687040308,-1.5236171456912733
1.8179331234513099,14.7593327725824,-0.028109288559520263,0.5336091619575408,-1.5513796692607282
1.8123262695915308,14.654186837880061,-0.02795925003827026,0.5178501850658394,-1.5782417032810274
1.8067489131703465,14.552185680212158,-0.027814314173572635,0.5021613916132075,-1.6040733811876962
1.8012001681357241,14.453315270940362,-0.027673136172650634,0.48654270110475456,-1.6287401260550152
1.7956794206377573,14.357561579668975,-0.027534338807017906,0.4709942116091237,-1.6521021406953351
1.790186335861215,14.264910537087584,-0.02739650895840602,0.4555162142047696,-1.674013860182344
1.7847208656144309,14.175347994721733,-0.027258193509432826,0.4401092094537299,-1.6943233634374604
1.7792832568127754,14.088859681160788,-0.027117894507121258,0.4247739261557232,-1.7128717405104292
1.7738740610104742,14.005431154278572,-0.02697406351589107,0.4095113426664432,-1.7294924123038562
1.7684941451525518,13.92504774890229,-0.026825095063334307,0.39432271109636463,-1.7440103998011702
1.763144703739571,13.847694519318761,-0.02666931906647307,0.3792095847389413,-1.7562415404497458
1.757827272622162,13.773356175934111,-0.02650499210761666,0.3641738491075387,-1.7659916503553288
1.7525437446707581,13.702017015324838,-0.026330287406423222,0.3492177569852127,-1.773055632544324
1.7472963875994239,13.633660842835834,-0.026143283306918067,0.3343439679048297,-1.7772165340075383
1.74208786426244,13.56827088679833,-0.02594195006291947,0.3195555924702151,-1.7782445579222799
1.7369212557902105,13.505829703362455,-0.025724134659377465,0.3048562418885303,-1.7758960428839943
1.731800087989709,13.446319070874651,-0.025487543345635303,0.29025008298951094,-1.7699124289091697
1.726728361507949,13.389719872692911,-0.025229721471965515,0.27574189882789824,-1.7600192414573288
1.721710586350652,13.336011967344554,-0.024948030101002563,0.2613371546556577,-1.7459251412667003
1.7167518214713395,13.285174045024718,-0.024639618692123662,0.2470420685427201,-1.7273211115418543
1.7118577203121603,13.23718346965849,-0.024301392899667703,0.23286368511955088,-1.7038798879948251
1.7070345834084186,13.19201610617981,-0.023929976137751604,0.2188099496672481,-1.675255785675858
1.7022894194976796,13.14964613342471,-0.023521662969638396,0.20488977788374416,-1.6410851453551494
1.697630017055023,13.110045844254625,-0.02307236145692709,0.19111311381709772,-1.6009877195286462
1.6930650288934097,13.0731854364445,-0.02257752015920642,0.1774909642841377,-1.5545694546605824
1.6886040735576644,13.039032800808101,-0.022032033198246755,0.1640353920798416,-1.5014273155387476
1.684257858917851,13.007553317414828,-0.02143011319988803,0.1507594418528872,-1.4411570548166384
1.6800383359751492,12.978709677111222,-0.02076511622713055,0.13767696118316142,-1.3733651689044208
1.6759588949703814,12.952461754476072,-0.020029293820544664,0.12480226516835119,-1.2976867003502264
1.6720346222732725,12.928766570233673,-0.019213433150546882,0.11214957725563021,-1.2138110088233398
1.6682826465205376,12.907578395770432,-0.01830632437680063,0.09973216737679455,-1.1215180092110841
1.664722618014213,12.888849067653787,-0.01729396068644632,0.08756111378964941,-1.0207273462534985
1.6613773894357546,12.872528589712878,-0.01615832509813686,0.07564366561944752,-0.9115618644761144
1.6582740031987577,12.858566089929816,-0.014875537271832846,0.06398133221116528,-0.7944233159519736
1.6554451503864445,12.846911140739437,-0.013412990851297085,0.05256815969262979,-0.670070768154452
1.6529313720264471,12.837515295427536,-0.01172479274867724,0.04139029342636276,-0.5396792213243848
1.650784505165432,12.830333361730045,-0.009743875861473973,0.030429043548541323,-0.4048392172364975
1.6490735471398632,12.825323260882247,-0.007365704394212023,0.019671964929447186,-0.2674465047093624
1.6478967568437093,12.822441538452793,-0.004402198567328049,0.00914525936510159,-0.12943943416739864
1.6474214159903515,12.821621145762489,-0.0003512099662482159,-0.0009413324620598518,0.00753834884028598
