x,y,v_x,v_y,omega
2.375,32.48,0.0,3.230769230769231,-7.387755102040816
2.3732249895789987,31.84180168458266,-0.01775010421001036,3.1512139234041614,-6.892877669704811
2.368172187738709,31.21916242918721,-0.03277791419288821,3.0751786305503015,-6.447846897701191
2.36034578067374,30.611404196509042,-0.045486156456803185,3.0024036962313896,-6.046141154084478
2.350175931669793,30.017898075206396,-0.05621233358266547,2.932657516795071,-5.682254425883887
2.3380306457640403,29.438059089135173,-0.06524052547486169,2.865732343917138,-5.351514349176276
2.3242255138811543,28.8713417652327,-0.07281079335400067,2.801440895107598,-5.049937146254106
2.3090317611675903,28.31723631711663,-0.07912673378163805,2.739613586053127,-4.774111080060219
2.292682928791215,27.775265333764757,-0.08436158998211463,2.6800962474655967,-4.5211021562057665
2.275380447038715,27.244980886652407,-0.0886632275428837,2.622748223657908,-4.288377332575998
2.2572983034069733,26.725961986780497,-0.09215820877453322,2.5674407750611983,-4.073741615240925
2.2385869678935584,26.21781233675641,-0.0949551463596184,2.514055725179663,-3.8752862476646266
2.2193767055704625,25.720158333638878,-0.09714747687134037,2.4624843059956727,-3.691345820353013
2.1997803814330505,25.23264728644599,-0.09881576450277707,2.4126261659331822,-3.5204625971570436
2.1798958427554123,24.754945818642526,-0.10002962227360701,2.3643885121014714,-3.361356712580886
2.1598079485071517,24.28673843099856,-0.10084932020899859,2.3176853643381596,-3.2129011702170565
2.139590302868329,23.827726204262344,-0.10132713617922798,2.2724369030240275,-3.074100786455054
2.1193067398223815,23.37762562435056,-0.10150849428024752,2.2285688960938104,-2.944074390916122
2.0990125976829357,22.93616751540469,-0.10143292711420966,2.18601219336491,-2.8220397267278683
2.078755815814751,22.50309606822502,-0.10113489156763793,2.144702278431808,-2.7073005980054647
2.058577880429144,22.078167953375605,-0.10064446228843493,2.104578870062339,-2.5992358949326717
2.0385146419270597,21.661151509731056,-0.09998792273240613,2.065585566383109,-2.4972901933134746
2.0185970226380667,21.2518260004697,-0.09918827015752302,2.027669526230489,-2.400965678960224
1.9988516308108621,20.849980929553872,-0.09826564811452317,1.9907811829277646,-2.309815190535654
1.9793012942314125,20.45541541261394,-0.09723771767997352,1.9548739864715445,-2.2234362095911604
1.9599655247837293,20.067937596896307,-0.0961199767968575,1.919904170704814,-2.1414656551890934
1.9408609235495278,19.687364125571243,-0.09492603554515913,1.8858305425457984,-2.063575363950851
1.9220015346054709,19.313519642241552,-0.0936678538954086,1.8526142907511525,-1.9894681556487315
1.9033991544709425,18.94623633196297,-0.092355947449876,1.8202188120346086,-1.9188744003590013
1.88506360314518,18.58535349549446,-0.0909995658077484,1.788609552650529,-1.8515490163530326
1.8670029618174906,18.230717153849845,-0.08960684746914524,1.7577538637955923,-1.7872688388306535
1.849223781611411,17.882179680531387,-0.088184954591651,1.7276208693890012,-1.725830308702185
1.8317312671111725,17.539599459095648,-0.08674019041073404,1.6981813449683958,-1.667047438230717
1.8145294378986376,17.20284056393979,-0.08527810171461375,1.6694076065901933,-1.6107500167187145
1.7976212708861043,16.871772462405424,-0.08380356841071968,1.641273408753482,-1.5567820247777546
1.7810088258526982,16.546269736482152,-0.08232088192334354,1.6137538504792492,-1.505000230231755
1.7646933562692637,16.226211822556788,-0.08083381391100014,1.5868252887743834,-1.4552729425151438
1.7486754072201984,15.911482767799868,-0.07934567657965384,1.5604652587948384,-1.4074789056548853
1.7329549019934358,15.601971001910734,-0.07785937568797073,1.5346524000964878,-1.3615063126651656
1.7175312187058518,15.297569123058377,-0.07637745718787041,1.5093663884270831,-1.3172519265149938
1.7024032581557118,14.998173696958698,-0.07490214831352772,1.484587872569695,-1.2746202948174246
1.6875856017947672,14.703689216671286,-0.0732744152959183,1.4602569303044244,-1.2289264588991626
1.673090682575517,14.414023518177945,-0.0716747768965852,1.436400054628973,-1.1853137229080706
1.6589128273278928,14.129083483197292,-0.0701037755796562,1.4130002951775469,-1.1436626656291822
1.6450462707883537,13.84877930567594,-0.06856178981573423,1.3900414800359513,-1.1038620206322731
1.6314851862540252,13.57302434061289,-0.06704905552755049,1.36750817059457,-1.065808030728881
1.618223712204192,13.301734961600019,-0.06556568497078119,1.3453856195341414,-1.0294038603669196
1.6052559753710867,13.034830426477605,-0.06411168336027444,1.3236597316900156,-0.994559060160749
1.592576110683774,12.772232750552178,-0.06268696351285095,1.3023170275642593,-0.9611890783948452
1.5801782784580953,12.513866586868136,-0.06129135874393744,1.281344609276164,-0.9292148149023923
1.5680566791611175,12.259659113064451,-0.05992463422583954,1.2607301287606976,-0.898562213216268
1.5562055660395488,12.009539924384235,-0.05858649698984766,1.240461758041479,-0.8691618873276268
1.5446192558673575,11.763440932438069,-0.057276604732065126,1.2205281614201706,-0.8409487797740623
1.5332921380378106,11.521296269352256,-0.05599457356340482,1.2009184694379729,-0.8138618481215618
1.522218682198747,11.283042196960725,-0.054739984827231074,1.1816222544773332,-0.7878437772077139
1.5113934446066941,11.04861702072467,-0.05351239109329747,1.1626295078832078,-0.7628407147826947
1.500811073354998,10.817961008087014,-0.052311321423663806,1.143930618493354,-0.738802028423611
1.4904663126131394,10.591016310990046,-0.05113628599492185,1.1255163524763179,-0.7156800818104485
1.4803540059985363,10.367726892304002,-0.049986780151109536,1.1073778343841034,-0.693430028641304
1.4704690991881288,10.148038455932188,-0.04886228795296396,1.0895065293340604,-0.6720096226335281
1.4608066418646826,9.93189838037464,-0.04776228528149897,1.0718942262413926,-0.651379042208264
1.4513617890818171,9.71925565554751,-0.04668624254715664,1.0545330220299245,-0.6315007285907319
1.4421298021221158,9.510060822669072,-0.04563362704985622,1.0374153067544534,-0.6123392361793248
1.4331060489141256,9.304265917036307,-0.04460390503004686,1.0205337495731903,-0.5938610941447381
1.4242860040664933,9.101824413527638,-0.043596543446273686,1.003881285513521,-0.5760346783173889
1.4156652485707948,8.90269117467842,-0.042611011510712754,0.9874511029786395,-0.5588300925085122
1.4072482580467107,8.70700626943594,-0.04155889373012866,0.9693979494461491,-0.5790747307136821
1.399036683652476,8.514920627457272,-0.040556850212218824,0.9514584703405382,-0.6011088095181312
1.391020636646998,8.326411823401376,-0.0396036198425617,0.9336295702184265,-0.6248161339171037
1.3831904846042757,8.141458038524753,-0.038697900584659314,0.9159082785477911,-0.6500832968856477
1.3755368590737391,7.960038036167717,-0.037838354720706055,0.8982917450225895,-0.676799419164009
1.3680506622416646,7.78213113813435,-0.03702361360004005,0.8807772353110902,-0.7048558957894235
1.3607230726886113,7.607717201880803,-0.03625228193049289,0.863362127224376,-0.7341461482960471
1.3535455503311058,7.436776598428931,-0.035522941644562295,0.8460439072943473,-0.7645653815227949
1.3465098406297276,7.269290190924156,-0.03483415536921905,0.8288201677534205,-0.796010343979077
1.3396079781402859,7.105239313757711,-0.03418446952519884,0.8116886039110228,-0.8283790907207681
1.332832289479886,6.9446057521741125,-0.03357241707879808,0.7946470119249656,-0.8615707476831289
1.3261753957753597,6.787371722284728,-0.03299651996646557,0.777693286968872,-0.8954852764035961
1.3196302146577295,6.633519851407833,-0.032455291209835896,0.7608254218000822,-0.9300232380450925
1.3131899618631198,6.483033158654234,-0.03194723673626179,0.7440415057359043,-0.965085555599419
1.3068481524977589,6.335895035675666,-0.03147085691734675,0.7273397240497783,-1.0005732731099146
1.3005986020224811,6.192089227490396,-0.03102464783543129,0.7107183578029194,-1.0363873107023767
1.294435427010396,6.051599813296967,-0.030607102285420164,0.6941757841313829,-1.0724282141526043
1.2883530457301813,5.914411187182498,-0.03021671051672636,0.6777104770133042,-1.1085958976471613
1.2823461786067665,5.780508038626529,-0.029851960717421237,0.661321008546402,-1.1447893783102843
1.2764098486110356,5.649875332694709,-0.029511339239888006,0.6450060507717885,-1.1809065009734658
1.2705393816306125,5.522498289808851,-0.02919333056434346,0.6287643780867995,-1.2168436515542624
1.2647304068748297,5.398362364970463,-0.028896416993483706,0.612594870297071,-1.2524954572864588
1.258978857368663,5.277453226304097,-0.02861907806818279,0.5964965163665829,-1.287754471904069
1.2532809705927865,5.159756732774039,-0.028359789690583535,0.5804684189340131,-1.3225108437261046
1.2476332893300264,5.045258910913169,-0.02811702293701734,0.5645097996746848,-1.3566519644171942
1.242032662782433,4.933945930385718,-0.027889242538917787,0.5486200055998285,-1.390062096010996
1.2364762480280225,4.825804078185829,-0.027674905005188107,0.5327985163990542,-1.4226219735795953
1.2309615118920765,4.720819731251115,-0.027472456354272506,0.5170449529480704,-1.4542083807143966
1.2254862333148109,4.6189793272441015,-0.02728032941838293,0.5013590871220543,-1.4846936947555809
1.2200485063053876,4.520269333224302,-0.027096940675850056,0.4857408530759551,-1.5139453984733737
1.214646743581774,4.42467621189904,-0.026920686560286927,0.47019036017665905,-1.5418255546736799
1.2092796810070412,4.332186385101512,-0.026749939187040973,0.4547079077986234,-1.568190239986188
1.203946382945527,4.242786194099203,-0.026583041428101393,0.4392940022244798,-1.5928889339144405
1.1986462486771148,4.156461856284224,-0.026418301256020137,0.4239493759253101,-1.615763859113552
1.1933790200249892,4.073199417738525,-0.026253985265236125,0.4086750095316818,-1.6366492688544692
1.1881447903719533,3.9929847011007915,-0.026088311265122593,0.39347215684564957,-1.6553706777950943
1.1829440152631765,3.915803248087748,-0.025919439822645617,0.3783423732847936,-1.671744032596451
1.1777775248196032,3.8416402559402556,-0.02574546461308645,0.3632875481901232,-1.6855748197231624
1.172646538216902,3.770480506974529,-0.02556440141392474,0.3483099414671593,-1.696657109133794
1.1675526805206735,3.7023082903219624,-0.02537417554836081,0.33341222505849893,-1.704772534759064
1.162498002210931,3.6371073148402786,-0.025172607549063492,0.3185975297583264,-1.7096892160588493
1.1574850017793743,3.574860612078286,-0.024957396766503378,0.30386949786160034,-1.7111606300796072
1.1525166518442305,3.515550428084847,-0.024726102584934948,0.28923234207279486,-1.7089244510740413
1.147596429303206,3.4591581027825526,-0.024476122825311215,0.2746909109501569,-1.7027013860041795
1.1427283501410321,3.405663935599094,-0.024204668796427624,0.2602507608844379,-1.6921940507233963
1.1379170096329192,3.355047036097144,-0.023908736284701502,0.24591823413506905,-1.6770859556168083
1.1331676288525312,3.307285158517068,-0.02358507151917916,0.23170054166569592,-1.657040704265687
1.1284861086242979,3.2623545195227415,-0.023230130763154527,0.217605848277568,-1.6317015589958288
1.1238790923891235,3.2202295991346688,-0.02284003158858823,0.20364335560315366,-1.600691599644066
1.1193540399346105,3.180882926018132,-0.022410492956541836,0.1898233755622238,-1.5636148058588792
1.114919314664148,3.144284850218373,-0.021936759748082058,0.17615738243536846,-1.520058541466297
1.1105842881865964,3.1104033094590413,-0.02141350502743574,0.16265802515794495,-1.4695981285051618
1.1063594677313133,3.0792035997405627,-0.02083469952539509,0.1493390720268531,-1.4118044884442928
1.10225665460594,3.050648167838901,-0.020193431728338103,0.1362152469897763,-1.3462562186435962
1.098289146217188,3.024696453166772,-0.019481652159182263,0.12330189973151479,-1.2725579720929159
1.0944720010218048,3.00130481998357,-0.018689799794649666,0.11061443210050302,-1.1903675883377116
1.0908223966574995,2.9804266381458824,-0.017806243848403642,0.0981673862763725,-1.099434954343904
1.0873601287119479,2.962012589533373,-0.016816435607112427,0.08597309984873609,-0.9996557041227895
1.0841083246100893,2.946011291305876,-0.01570160541147309,0.07403988242623623,-0.8911418048650308
1.081094489485067,2.93237031982434,-0.014436745838751696,0.06236983238910961,-0.7743073141867102
1.0783520691706932,2.9210376564955496,-0.012987457304986356,0.050956800898790386,-0.6499588209833984
1.0759228370056713,2.911963398578237,-0.011304864345232618,0.039785778274346116,-0.5193642190675878
1.073860680336445,2.905101185783881,-0.009316702347031108,0.028836349669221918,-0.3842522759580043
1.0722381676345762,2.9004079786576753,-0.006908424671655887,0.01809572159284411,-0.24668021579828997
1.0711606474446256,2.8978385627710637,-0.003866777227850241,0.007598437273273093,-0.10871765927283492
