x,y,v_x,v_y,omega
2.375,32.48,0.0,3.0769230769230766,-5.061224489795919
2.3738351291653363,31.87187482118014,-0.011648708346635126,3.0043287112754884,-4.737265897748537
2.3705128335530032,31.27796997441932,-0.021574247776698148,2.9347197563326968,-4.444321343667641
2.3653533229155532,30.69770830437438,-0.03002085859779982,2.8678969441167266,-4.178535270403988
2.3586317207847083,30.130550637397686,-0.03719516271065171,2.80367972565022,-3.936620201479249
2.3505849480638954,29.57599227572337,-0.043272564497478135,2.741903891092944,-3.715761154924329
2.3414174468951163,29.033559928424427,-0.04840244719030876,2.68241958189645,-3.5135380890266745
2.3313059606556137,28.502809008657923,-0.05271241520471795,2.625089615768601,-3.3278626070805157
2.3204035415932793,27.983321240696874,-0.05631177541862826,2.5697880638419006,-3.156926017502521
2.3088429233099586,27.474702530995845,-0.05929440741458021,2.5163990331684007,-2.999156495716912
2.296739368543288,26.976581065888432,-0.061741140252124745,2.4648156179057357,-2.853183585189375
2.284193081660195,26.48860560507,-0.06372172857880284,2.414938990278585,-2.717808649211791
2.27129125861938,26.010443945214448,-0.06529650182935096,2.3666776082769347,-2.591980172659083
2.2581098338892684,25.54178153222977,-0.06651774547176034,2.3199465215698245,-2.4747730356949074
2.2447149731725857,25.082320204011015,-0.06743086169507025,2.274666760617737,-2.3653710551434246
2.231164352219854,24.631777048278266,-0.06807534783224431,2.230764796709773,-2.2630522256420798
2.2175082550762535,24.189883362325567,-0.06848562360376056,2.1881720628172223,-2.1671762004220425
2.2037905194631513,23.756383703355965,-0.06869173252726357,2.146824526878765,-2.0771736371349645
2.190049352386112,23.331035019616557,-0.06871993824312848,2.1066623105153153,-1.99253710247484
2.1763180352809055,22.913605853836003,-0.06859323280893537,2.06762934729026,-1.9128132841770396
2.162625534897163,22.503875611552893,-0.0683317710284926,2.0296730755408285,-1.8375963031846474
2.1489970335486315,22.101633887843583,-0.06795324245682273,1.992744161552281,-1.7665219545712427
2.135454390228201,21.706679846742148,-0.06747319074747923,1.9567962494620432,-1.6992627349199236
2.1220165423141077,21.31882164831676,-0.06690528839345533,1.9217857347918508,-1.6355235376241946
2.1086998561160106,20.937875918944314,-0.06626157358751326,1.887671558932582,-1.5750379170519344
2.0955184332736194,20.56366726082459,-0.06555265483640066,1.8544150222646683,-1.5175648385310454
2.0824843789837866,20.196027797208195,-0.06478788806192651,1.8219796138992828,-1.4628858443339845
2.0696080371600996,19.834796750190073,-0.06397553017494279,1.790330856281929,-1.41080257678327
2.056898196893844,19.47982004825003,-0.06312287248761571,1.7594361631185147,-1.3611346086910476
2.0443622739638636,19.130949961011083,-0.06223635681218938,1.7292647092709725,-1.3137175389199072
2.0320064706164107,18.78804475894097,-0.06132167666233609,1.6997873114301387,-1.2684013171809825
2.0198359163890545,18.450968395946738,-0.06038386561122783,1.6709763185121893,-1.2250487674886363
2.0078547923722807,18.119590213011026,-0.05942737455651129,1.642805510844904,-1.1835342841470498
1.9960664409779778,17.79378466119511,-0.058456139386516205,1.6152500073142568,-1.1437426778980433
1.9844734630067098,17.473431042490418,-0.057473640326164255,1.5882861797326568,-1.1055681530301353
1.9730778035682417,17.158413267140197,-0.056482954058514896,1.561891573769572,-1.0689133989334534
1.9618808282060698,16.84861962617775,-0.055486799563203675,1.536044835854869,-1.0336887818636316
1.950883390401582,16.543942578039626,-0.054487578481674126,1.5107256455264015,-0.9998116246161777
1.9400858914826817,16.244278548212254,-0.053487410707330735,1.4859146527472986,-0.967205563465497
1.929499731520973,15.949529990581858,-0.05237418890975462,1.4615709235566392,-0.9325204993284403
1.9191346568931087,15.659602822110674,-0.0512765573688897,1.43770076115519,-0.899415929567973
1.90898747405633,15.374404016288345,-0.050195270998896875,1.414287297068094,-0.8678011550272986
1.8990548534167355,15.093843843336124,-0.049130935397048756,1.3913144324541196,-0.83759166787133
1.8893333573531979,14.817835720701236,-0.0480840252383276,1.3687667938947587,-0.8087086618267999
1.8798194647777322,14.546296072090662,-0.04705490051632827,1.346629692210988,-0.7810785863303454
1.8705095926372315,14.279144194462951,-0.046043820888677915,1.3248890840661092,-0.7546327401939686
1.8614001147130872,14.016302132442831,-0.0450509583527649,1.3035315361351025,-0.729306900880838
1.8524873780328666,13.757694559665254,-0.04407640844944218,1.2825441916406746,-0.7050409859098853
1.8437677171711289,13.503248666593791,-0.043120200167935996,1.2619147390739436,-0.6817787432826083
1.8352374666839415,13.252894054393028,-0.04218230470393669,1.2416313829336754,-0.6594674681564122
1.826892971893114,13.006562634466423,-0.0412626432043383,1.2216828163323843,-0.6380577432812913
1.8187305982110846,12.764188533300125,-0.040361093615953296,1.2020581953306102,-0.617503200975521
1.8107467391753453,12.52570800227982,-0.03947749674143914,1.1827471148724198,-0.597760304645452
1.8029378233418658,12.291059332171997,-0.03861166159335895,1.163739586205811,-0.5787881480581175
1.7953003201698774,12.060182771983285,-0.03776337012652469,1.1450260156813212,-0.5605482707563059
1.7878307450152913,11.833020451932068,-0.036932381419334366,1.12659718483087,-0.5430044881667578
1.7805256633367037,11.6095163102853,-0.036118435366540774,1.1084442316367977,-0.5261227350955857
1.7733816942061869,11.389616023830794,-0.03532125593862721,1.0905586329082662,-0.509870921432968
1.7663955132066658,11.173266941771093,-0.034540554056585564,1.072932187688746,-0.49421879900344384
1.759563854788479,10.96041802283979,-0.03377603012528162,1.0555570016242983,-0.47913783860030956
1.7528835141495853,10.75101977545458,-0.033027376263653825,1.0384254722277964,-0.4646011163340834
1.746351348696656,10.545024200733877,-0.032294278265641,1.021530274979225,-0.4505832085069773
1.7399642791379022,10.34238473821528,-0.031576417321897615,1.0048643502067294,-0.43706009429885434
1.7337192902528153,10.143056214124883,-0.030873471528969666,0.9884208906972525,-0.42400906561620194
1.7276193878797343,9.947174607743346,-0.03012555220183895,0.9703951731181324,-0.4473129368541107
1.7216648647504496,9.754886936821126,-0.029419679091009253,0.9524815361040595,-0.4723208901564846
1.715847404679403,9.566171088152021,-0.028754921619456576,0.9346769505869746,-0.49892158619849414
1.7101588829161682,9.38100554240032,-0.028130296012892103,0.916978506930023,-0.527006248633025
1.7045913762066034,9.199369350653548,-0.027544771082755607,0.8993834105376923,-0.5564684199690292
1.699137171749129,9.021242111812722,-0.026997273491987498,0.8818889778705585,-0.5872037231362174
1.6937887751459564,8.84660395074037,-0.0264866925397413,0.8644926328529597,-0.6191096277424927
1.688538917442199,8.675435497088618,-0.026011884497831615,0.8471919036645699,-0.6520852200407534
1.6833805613395634,8.507717864731209,-0.025571676528524014,0.8299844199095142,-0.686030975624675
1.6783069066656873,8.343432631724319,-0.025164870210236927,0.8128679101593986,-0.7208485338686855
1.673311395175182,8.182561820721435,-0.02479024469481638,0.7958401998694346,-0.7564404731153743
1.6683877147539765,8.025087879767515,-0.024446559517237485,0.7788992096697832,-0.792710085593721
1.663529803094667,7.870993663396803,-0.024132557075857142,0.7620429540373446,-0.8295611510234386
1.6587318509072149,7.720262413957414,-0.023846964798665507,0.7452695403565309,-0.8668977078239217
1.6539883047265147,7.572877743083648,-0.023588497008333764,0.7285771683811375,-0.9046238208002297
1.6492938693760608,7.428823613234204,-0.02335585649620616,0.7119641301133129,-0.942643344122574
1.6446435101451695,7.288084319210881,-0.023147735812707515,0.6954288101199031,-0.9808596783491697
1.6400324547360081,7.150644469567773,-0.02296281827890401,0.6789696863111634,-1.0191755201642332
1.6354561950360045,7.016488967815448,-0.022799778721133823,0.6625853312120961,-1.0574926034124157
1.630910488771123,6.885602993317981,-0.022657283927681102,0.6462744137625586,-1.0957114299070652
1.6263913610960183,6.757971981772833,-0.022533992823365216,0.6300357016889221,-1.1337309883713116
1.6218951061782203,6.633581605154184,-0.02242855635461662,0.6138680644975572,-1.1714484597369668
1.6174182888353519,6.512417750989535,-0.022339617074066592,0.5977704771489323,-1.2087589068754825
1.612957746286961,6.39446650082656,-0.022265808409840777,0.581742024480796,-1.2455549466666846
1.608510590085921,6.2797141077324845,-0.02220575360056091,0.5657819064599612,-1.2817264021237857
1.6040742082986186,6.168146972651005,-0.022158064272462707,0.5498894443548372,-1.3171599320866987
1.5996462680083763,6.059751619421991,-0.02212133862996086,0.5340640879353039,-1.3517386357698606
1.5952247182228447,5.954514668246155,-0.022094159225354543,0.5183054238230593,-1.3853416292063903
1.5908077932736013,5.852422807350397,-0.022075090267077626,0.5026131851345026,-1.417843590369452
1.5863940168050084,5.7534627625789625,-0.022062674418852152,0.4869872625798549,-1.4491142694781245
1.5819822064597053,5.657621264600287,-0.02205542903417949,0.47142771720691334,-1.4790179607155542
1.5775714793801217,5.564885013379005,-0.0220518417616571,0.4559347950059134,-1.507412931312539
1.5731612586593091,5.475240639516038,-0.022050365446468413,0.44050894362375254,-1.5341508036966407
1.5687512808904773,5.388674662006508,-0.02204941224184959,0.4251508314715322,-1.5590758862007623
1.5643416049831795,5.305173441904447,-0.02204734683112849,0.40986136954908864,-1.5820244477034455
1.5599326224354944,5.2247231313141675,-0.022042478645723784,0.39464173635371264,-1.6028239315912953
1.5555250692762375,5.147309617050102,-0.022033052946843924,0.37949340628695355,-1.6212921046727506
1.5511200399197596,5.07291845821922,-0.022017240617935547,0.36441818202186593,-1.6372361372493962
1.5467190032089309,5.0015348168829625,-0.021993126490353933,0.3494182313407028,-1.6504516116365024
1.542323820960391,4.933143380849348,-0.021958695995043152,0.33449612899543324,-1.6607214582650613
1.537936769371246,4.867728277532482,-0.021911819896407055,0.3196549041732142,-1.6678148214500454
1.5335605636997782,4.805272977699733,-0.021850236818271192,0.3048980941542726,-1.6714858614903831
1.529198386696789,4.745760187813115,-0.021771533211619842,0.2902298047119129,-1.671472506723305
1.5248539213423324,4.689171729572472,-0.021673120332946848,0.27565477769452634,-1.6674951795739983
1.5205313885400449,4.6354884052027465,-0.02155220768992862,0.2611784660027376,-1.6592555360950012
1.5162355905459943,4.584689847026212,-0.02140577225057741,0.2468071157626038,-1.6464352812633078
1.5119719610734093,4.536754349970558,-0.021230522475273666,0.232547854793926,-1.6286951557104168
1.5077466232386092,4.491658685958729,-0.02102285587272826,0.21840878532435662,-1.6056742383942766
1.5035664568286888,4.44937789971916,-0.020778808226475282,0.20439907707135285,-1.5769897808742912
1.4994391768295312,4.409885086615809,-0.02049399176509854,0.19052905396214806,-1.5422378921260131
1.4953734258376183,4.37315115488008,-0.020163518154031067,0.1768102633951465,-1.5009955419154695
1.4913788840288336,4.339144577501948,-0.01978189993381618,0.16325551038616443,-1.4528245641065052
1.4874664019988801,4.307831143531779,-0.019342920365718153,0.14987882931551474,-1.3972786422772796
1.4836481643959538,4.279173725368345,-0.01883945566354609,0.13669535231882426,-1.3339146745610595
1.479937896447487,4.2531320886435395,-0.018263223821122814,0.12372101492924466,-1.2623104619027554
1.4763511322304046,4.229662785455684,-0.0176044183497014,0.11097201694932299,-1.1820913311413233
1.4729055744367456,4.2087191903585115,-0.016851159586886655,0.098463934022406,-1.0929689863271586
1.4696215929463934,4.190251760318269,-0.01598865531663618,0.08621036638003331,-0.9947962517411721
1.4665229376358169,4.174208618828558,-0.014997897789130266,0.07422104851707416,-0.8876406372588572
1.4636377857662448,4.16053656439065,-0.013853620906590664,0.06249949586200969,-0.7718762056165446
1.4610003174681339,4.14918254923349,-0.0125210620745186,0.05104065570959956,-0.6482843711979086
1.4586531425582228,4.140095499114274,-0.010950687024591517,0.03982984548258002,-0.5181370928496019
1.4566511834508389,4.133227937910334,-0.009068904049247569,0.028845766556819488,-0.38321113573590915
1.455068447263974,4.128536014836836,-0.006758457819401072,0.018073464178166375,-0.24566122249695949
1.4540125880058312,4.125974159097396,-0.0038001347620254707,0.007545093216239454,-0.10768735852417027
