x,y,v_x,v_y,omega
2.375,32.48,0.0,4.0,-7.63265306122449
2.372426715597589,31.652708229512083,-0.024507470499149735,3.8789692427420532,-6.98099385263833
2.3652025658080253,30.85011440074639,-0.04429395606812464,3.76478150740739,-6.414017140492766
2.354226329354661,30.07084651065176,-0.060241629202014785,3.6568174458748066,-5.917677985653233
2.3402303060980847,29.313654209253922,-0.0730538303844245,3.5545378055331596,-5.480668495120488
2.3238136766919015,28.577393460253536,-0.08329502110303566,3.457469327803856,-5.093811814904829
2.3054685070168732,27.86101382817759,-0.0914208805639012,3.3651938348242223,-4.749605989537246
2.285600185416064,27.16354781361118,-0.09780122991999561,3.277339637236815,-4.441876715272659
2.2645436017055336,26.484101811922194,-0.10273766256124567,3.1935746645630574,-4.1655103050276985
2.24257603914457,25.821848377967275,-0.10647721897174192,3.1136008969123496,-3.9162464560631736
2.2199275083205516,25.1760195552049,-0.10922307459033562,3.0371497960626574,-3.6905160876575986
2.196789075662725,24.545901082472216,-0.11114295072230138,2.9639785156771783,-3.4853134769589964
2.173319609443349,23.930827331950354,-0.11237577517651678,2.8938667273881604,-3.29809472688338
2.1496512693829826,23.330176861891296,-0.11303698730316217,2.8266139398409993,-3.1266966139857306
2.1258939931971206,22.74336849043987,-0.1132227858955233,2.7620372168392344,-2.969271327414704
2.102139178188937,22.16985781436707,-0.11301354751574899,2.699969221949318,-2.8242336845792213
2.0784627137460117,21.609134110134743,-0.11247659003592222,2.640256532644285,-2.6902182060162723
2.054927488052754,21.060717565425765,-0.1116684165665299,2.582758178869785,-2.56604402821635
2.0315854670924995,20.524156797805674,-0.11063654495970332,2.5273443698929987,-2.4506860830195345
2.0084794243240482,19.99902662404549,-0.10942100521602395,2.4738953802039583,-2.34325131418468
1.9856443839703632,19.484926049209392,-0.10805556958097526,2.4223005706160334,-2.2429589635666183
1.9631088286744347,18.98147644917585,-0.10656876657072462,2.3724575249415043,-2.149124161128104
1.9408957126216517,18.48831992402942,-0.1049847196462564,2.324271285976907,-2.0611442094990573
1.919023313539579,18.005117802893256,-0.10332384304015248,2.27765367722465,-1.9784870758579098
1.8975059508370262,17.531549283394614,-0.10160342079368267,2.232522698952885,-1.9006816996476033
1.876354592205932,17.06731019116297,-0.0998380899786422,2.1888019889675356,-1.8273098001231263
1.8555773670277036,16.612111846629354,-0.09804024505210344,2.146420339924031,-1.7579989275396792
1.8351800017028372,16.165680027985623,-0.09622037708948127,2.105311266206772,-1.6924165494097456
1.8151661894047058,15.727754020521715,-0.09438735908319909,2.065412614401889,-1.6302650013412407
1.7955379046244488,15.298085743726158,-0.09254868644305775,2.0266662122224623,-1.5712771625592017
1.7762956711286546,14.876438948541004,-0.09071068018355428,1.989017551445677,-1.515212740887093
1.757438790519633,14.462588478032888,-0.0888786589499859,1.9524155010125828,-1.4618550719447894
1.7389655374096658,14.056319585497604,-0.08705708495446378,1.9168120469424907,-1.4110083535634612
1.7208733262479594,13.657427304673838,-0.08524968801416853,1.8821620561409942,-1.3624952496711817
1.7031588540339047,13.26571586731674,-0.08345957116730593,1.8484230615456563,-1.3161548087560107
1.6858182224819949,12.880998163885945,-0.08168930075564441,1.8155550663666582,-1.271840650931158
1.668847042647633,12.503095243545253,-0.0799409833811333,1.783520365449443,-1.2294193849790915
1.652240524559082,12.131835850061023,-0.07821633174792345,1.7522833820194172,-1.188769222832565
1.6359935540127633,11.767055990530562,-0.07651672107416023,1.7218105182706864,-1.149778763996018
1.6201007583638019,11.408598534176331,-0.07484323748737934,1.6920700184362678,-1.1123459266097147
1.6045565628703724,11.056312838711861,-0.07319671959289964,1.6630318431301208,-1.0763770053636492
1.5893552389202328,10.710054402025282,-0.07157779421795497,1.6346675538849031,-1.0417858394018
1.5744909452735834,10.369684537140103,-0.069986907178704,1.6069502069263342,-1.0084930758196333
1.5599577632921597,10.035070068603428,-0.06842434978723608,1.579854255327724,-0.9764255164300996
1.5457497269852856,9.706083048622268,-0.0668902817068022,1.5533554587785534,-0.9455155372220672
1.5318608485855,9.382600491421055,-0.06538475067210824,1.5274308002806203,-0.9157005714144987
1.5182851402658915,9.06450412443025,-0.06390770951464048,1.5020584091556126,-0.8869226482642806
1.5050166325256922,8.751680155038837,-0.06245903086820865,1.4772174898102284,-0.8591279808521869
1.4920665928828996,8.444021530186323,-0.060874680015531646,1.4528646516422923,-0.827573467877457
1.4794447668954727,8.14142508483867,-0.05933318653139135,1.4290062564305939,-0.7974977416787534
1.4671422573889474,7.843788883459823,-0.057833570673611154,1.4056242328917594,-0.7688136756942282
1.4551503757284157,7.551014696252462,-0.056374826093356846,1.3827013595593056,-0.7414402534594746
1.4434606464739332,7.263007825963957,-0.05495592871123835,1.3602212146169512,-0.7153020721218211
1.4320648103143399,6.979676944856994,-0.053575844237269604,1.3381681292588894,-0.6903288916754949
1.420954825544619,6.70093394113448,-0.05223353452197578,1.3165271442888717,-0.6664552252226147
1.4101228683153046,6.426693774165987,-0.05092796290006626,1.2952839696967604,-0.6436199660957729
1.3995613318508777,6.156874337915433,-0.049658098665905856,1.2744249469751945,-0.6217660481433817
1.3892628248068557,5.89139633201718,-0.04842292080096851,1.253937013960555,-0.6008401358876715
1.3792201689117602,5.630183139991139,-0.047221421057084795,1.2338076720017437,-0.5807923416247246
1.3694263960198196,5.373160714126797,-0.04605260648520665,1.214024955277691,-0.5615759668525956
1.3598747446827089,5.120257466602123,-0.04491550148727787,1.1945774021001752,-0.5431472656929442
1.3505586563334193,4.871404166436076,-0.04380914945833679,1.175454028052668,-0.5254652282184145
1.3414717711622144,4.626533841903534,-0.04273261407694863,1.156644300828683,-0.508491381816358
1.332607923753237,4.385581688068836,-0.0416849802942663,1.1381381166446471,-0.4921896089129575
1.3239611385404848,4.14848497911931,-0.040665355065277006,1.1199257781127567,-0.47652597955342335
1.315525625133335,3.915182985203252,-0.03967286785995917,1.1019979734687542,-0.46146859748639363
1.3072957735544017,3.685616893497926,-0.0387066709870246,1.084345757058149,-0.44698745853626637
1.2992661494261168,3.4597297332526367,-0.03776593975854589,1.0669605309922143,-0.43305432016795437
1.2914314891368721,3.237466304569775,-0.03684987251997591,1.0498340278921874,-0.4196425812562353
1.2837866950127632,3.018773110703208,-0.035957690566776536,1.032958294646561,-0.40672717116800094
1.2763268305168198,2.803598293668532,-0.035088637966018014,1.0163256771122469,-0.39428444735163415
1.2690471154940106,2.59189157297369,-0.03424198129883101,0.9999288056957565,-0.3822921007046319
1.2619429214772022,2.3836041872913114,-0.03341700933743962,0.9837605817554549,-0.37072906805947325
1.2550169740471866,2.1788347444668226,-0.03254439475794815,0.9664245880015806,-0.3874978867732656
1.2482697292162832,1.9776938978962555,-0.031715079822083166,0.9492025221942851,-0.40617746174823605
1.2416921759477444,1.780158055887771,-0.030928284640190803,0.9320912112198623,-0.426655032280547
1.235275473686208,1.5862042799438925,-0.03018316546968007,0.9150876072932649,-0.448820913616626
1.2290109650613188,1.3958102589901813,-0.029478821434026307,0.8981887827420785,-0.4725682481689823
1.2228901872411482,1.2089542846550465,-0.028814300662837147,0.8813919252115848,-0.4977927647610744
1.2169048820525392,1.0256152275141552,-0.028188605895343454,0.8646943332731086,-0.5243925449097991
1.2110470049769937,0.8457725142163355,-0.027600699586042318,0.8480934124203964,-0.5522677951828593
1.2053087331229388,0.6694061054108609,-0.027049508547813947,0.8315866714412773,-0.5813206246901622
1.1996824722681318,0.4964964743983238,-0.02653392816463315,0.8151717191543255,-0.6114548267835868
1.194160863059533,0.3270245864293315,-0.02605282620297391,0.798846261502715,-0.6425756640479532
1.1887367864521663,0.1609718785765537,-0.025605046248138596,0.7826080989999527,-0.674589655667777
1.1834033684632659,-0.0016797598935411884,-0.025189410789008267,0.7664551245247287,-0.707404366249268
1.178153984313351,-0.16094800672243537,-0.024804723972084927,0.7503853214647634,-0.7409281951648393
1.1729822620217505,-0.3168501255085232,-0.02444977404315775,0.7343967622122924,-0.7750701654678559
1.1678820855205116,-0.469402984277572,-0.024123335492451107,0.7184876070167583,-0.8097397113981177
1.162847597347553,-0.6186230738506922,-0.023824170916679665,0.7026561032034025,-0.8448464634632205
1.1578732009773542,-0.7645265260878844,-0.02355103260902182,0.6869005847698318,-0.8803000300369381
1.1529535628454186,-0.9071291320882295,-0.023302663885603033,0.6712194723763125,-0.9160097743625512
1.148083614121194,-1.0464463604314531,-0.023077800154629798,0.6556112737495949,-0.9518845857858994
1.1432585522831182,-1.1824933755502371,-0.0228751697318062,0.6400745845245485,-0.9878326439691243
1.1384738425489562,-1.3152850563283636,-0.022693494403069652,0.6246080895528755,-1.0237611747507238
1.1337252192146723,-1.444836015026361,-0.02253148973296885,0.6092105647137666,-1.0595761962197718
1.1290086869557256,-1.5711606166444128,-0.02238786511414197,0.5938808792676519,-1.0951822534609883
1.1243205221459593,-1.6942729988416545,-0.022261323550298823,0.5786179988013199,-1.1304821403017888
1.119657274251186,-1.814187092541971,-0.022150561161826475,0.5634209888207471,-1.1653766062515538
1.1150157673572387,-1.9309166433691516,-0.022054266399577492,0.5482890190571654,-1.1997640466662234
1.1103931018956892,-2.0444752340692034,-0.021971118948513002,0.5332213685623644,-1.2335401739972984
1.1057866566347423,-2.154876308094778,-0.02189978829860103,0.5182174316811774,-1.2665976677930266
1.101194091008046,-2.2621331945465926,-0.02183893195564998,0.5032767250027688,-1.2988258009111968
1.0966133478604538,-2.36625913468972,-0.021787193259513185,0.488398895407956,-1.3301100391785945
1.092042656697224,-2.46726731028906,-0.021743198771249223,0.47358372934765686,-1.3603316114941557
1.0874805375318948,-2.5651708740388983,-0.02170555518426658,0.4588311635079199,-1.389367047125455
1.0829258054383006,-2.65998298239645,-0.021672845707106165,0.4441412970401927,-1.4170876766984934
1.07837757592405,-2.7517168311696594,-0.021643625857187203,0.4295144055617856,-1.4433590931400013
1.0738352712565284,-2.8403856942555663,-0.02161641859539889,0.4149509571611631,-1.4680405686167552
1.0692986278883418,-2.926002965978455,-0.021589708720663875,0.4004516306758975,-1.4909844233533616
1.0647677051473876,-3.0085822075369535,-0.021561936431280404,0.38601733654786474,-1.512035342136416
1.0602428953778105,-3.0881371981375096,-0.021531489945645656,0.3716492406002563,-1.5310296343842678
1.055724935742381,-3.1646819914685054,-0.02149669705844427,0.35734879112348245,-1.5477944339582799
1.0512149219249032,-3.238230978255025,-0.0214558154889637,0.34311774970052733,-1.5621468355300157
1.046714324003783,-3.308798955729209,-0.021407021855038497,0.3289582262440788,-1.5738929654675078
1.0422250048058124,-3.376401204953922,-0.02134839907801546,0.31487271875321327,-1.5828269871056124
1.037749241093748,-3.4410535770465174,-0.021277921989263197,0.30086415831910646,-1.588730043270876
1.0332897479941165,-3.502772589460079,-0.02119344086436981,0.28693595990528886,-1.5913691435462565
1.028849707135291,-3.561575533585014,-0.021092662553017016,0.2730920793797752,-1.5904960107163577
1.024432799043866,-3.617480595021185,-0.020973128793886457,0.2593370771551689,-1.585845911186489
1.020043240445118,-3.670506987920689,-0.020832191194187864,0.2456761885544028,-1.577136509448325
1.0156858272392122,-3.72067510478157,-0.020666982195392626,0.23211540059685734,-1.5640668090844234
1.0113659840918487,-3.7680066829342493,-0.020474381112830307,0.21866153419057532,-1.5463162755620896
1.0070898218069035,-3.8125249886290007,-0.02025097398188576,0.20532232956895585,-1.523544283771724
1.002864203972451,-3.854255018988667,-0.019993005393852608,0.19210653099929853,-1.4953901025089626
0.9986968248440129,-3.893223720962297,-0.019696319638889778,0.17902396398766512,-1.4614737282034322
0.9945963011372065,-3.929460224545103,-0.01935628709259987,0.16608559394379213,-1.4213980240551016
0.9905722814888442,-3.9629960845455017,-0.01896770955847061,0.15330354891715398,-1.3747528255276344
0.9866355790445538,-3.993865520557833,-0.01852469467286658,0.14069107977172418,-1.3211219601536404
0.9827983353241534,-4.022105637842728,-0.018020483616661667,0.1282624181796564,-1.2600945213475925
0.9790742278251507,-4.047756601686331,-0.01744720685003032,0.11603247556894539,-1.1912822463062533
0.9754787407526349,-4.070861723701995,-0.016795527173930874,0.10401630553262432,-1.1143454564244097
0.9720295294049934,-4.091467400239949,-0.016054104708368162,0.09222823292411426,-1.0290306094200425
0.9687469265922322,-4.109622822310925,-0.01520877922269132,0.08068054870424515,-0.935222749407763
0.9656546678810456,-4.125379359805848,-0.014241303740990667,0.0693817131521394,-0.8330152392237063
0.9627809576592663,-4.138789527309783,-0.013127365037859984,0.05833416783774236,-0.7227955652320573
0.9601600716927339,-4.149905500669647,-0.011833453691020285,0.0475322451133682,-0.6053372506095579
0.9578348239763637,-4.158777338883354,-0.010311762655362159,0.036961452160036504,-0.48187157776026274
0.9558605193333864,-4.165451484853648,-0.008491138706326526,0.026601842795124894,-0.35409033186912675
0.9543118994915933,-4.169971006524662,-0.006257621691703354,0.016441220738309274,-0.22401376942136716
0.9532983975581499,-4.172381574874123,-0.0033947776744240755,0.006516573066088903,-0.09366895206477041
