x,y,v_x,v_y,omega
2.375,32.48,0.0,2.1538461538461537,-7.510204081632653
2.3741287928175185,32.09581508051857,-0.009680079805349575,2.1148751737252325,-7.183861190205283
2.3716070952226027,31.718546754556453,-0.01833878236038406,2.076995114742769,-6.877689369378503
2.367609772283059,31.348003836432294,-0.026075916967874764,2.0401484199700812,-6.58998967671536
2.3622947026018757,30.984005087570928,-0.03298041282305232,2.0042821229340193,-6.319239612041623
2.355804613278094,30.626378436236926,-0.03913169077451977,1.969347336332667,-6.064071405326547
2.348268686082035,30.274960282826935,-0.04460083362613849,1.935298812667202,-5.8232534167623085
2.3398039680210045,29.92959487884494,-0.049451589274200375,1.9020945649105199,-5.595674136295736
2.330516613898621,29.590133769624366,-0.05374123430783982,1.8696955375403335,-5.380328365611514
2.3205029839673066,29.25643529244385,-0.05752132048454246,1.8380653200209305,-5.176305241353847
2.309850616109446,28.928364122981858,-0.060838322380573615,1.8071698962234497,-4.98277781877854
2.298639088982585,28.605790864125257,-0.06373420125121447,1.7769774244054197,-4.798993983486371
2.286940790092673,28.28859167203315,-0.06624689752558773,1.7474580432846933,-4.624268498004296
2.2748216007119164,27.976647915093807,-0.06841076226059592,1.718583700485793,-4.45797602173931
2.262341507852447,27.669845862028215,-0.07025693617795309,1.6903280002429804,-4.299544968757417
2.249555152079343,27.368076395909625,-0.07181368352320415,1.6626660677413678,-4.148452089118463
2.2365123187456564,27.071234751303116,-0.07310668685109031,1.6355744278864945,-4.004217677047031
2.223258379217401,26.77922027209655,-0.0741593079073027,1.6090308966309355,-3.866401323761843
2.209834687795447,26.49193618790573,-0.07499281900329353,1.58301448326706,-3.7345981448902004
2.196278939307772,26.209289407202107,-0.0756266086375446,1.5575053023287277,-3.6084354225114335
2.1826254917182677,25.93119032553792,-0.07607836457916713,1.5324844939400273,-3.4875696103642007
2.1689056575600714,25.65755264743815,-0.07636423717857373,1.50793415161301,-3.371683657905458
2.155147967537921,25.388293220695893,-0.07649898528976325,1.4838372566342883,-3.2604846149567326
2.1413777422872564,25.123341358839625,-0.07650351749539618,1.4600723195464456,-3.15084021682004
2.127616089883108,24.862628856335036,-0.0764037314395915,1.436733263837888,-3.045846700569266
2.113880913081309,24.606080386406372,-0.0762093441359454,1.4138052909250332,-2.9452536723799754
2.1001884402682336,24.353623225345167,-0.07592924267600948,1.3912742764217039,-2.8488268244331074
2.0865533682243593,24.105187134792654,-0.07557155781147934,1.3691267297173135,-2.756346728486176
2.0729889922758105,23.860704251026476,-0.07514373050573095,1.3473497565735657,-2.6676077329933263
2.0595073250333114,23.6201089807329,-0.0746525721887011,1.3259310244661129,-2.5824169537277517
2.0461192047935035,23.383337902792544,-0.07410431936472399,1.3048587304267762,-2.500593348951613
2.0328343945672427,23.150329675649054,-0.07350468314928457,1.2841215711675273,-2.421966871138349
2.0196616726016474,22.92102494986788,-0.07285889424621832,1.2637087152899666,-2.3463776880977676
2.0066089151756517,22.69536628552543,-0.07217174382040094,1.2436097774039072,-2.2736754671005146
1.9936831723713944,22.473298074099418,-0.07144762067134744,1.2238147939962358,-2.20371871625835
1.9808907374547218,22.25476646455815,-0.0706905450694588,1.2043142009067824,-2.1363741780010908
1.9682372104364385,22.03971929337118,-0.06990419957813294,1.185098812281736,-2.071516270009642
1.9557275563308232,21.828106018185956,-0.06909195715092459,1.1661598008874239,-2.009026569425373
1.9433661585785862,21.619877654935053,-0.06825690676282058,1.1474886796782056,-1.9487933365663035
1.9311568680572122,21.41498671815703,-0.06740187680800222,1.1290772845220032,-1.890711074746248
1.919103048061943,21.213387164330435,-0.06652945647276563,1.1109177579957112,-1.8346801231195293
1.9072076156049862,21.01503433803547,-0.06564201527120007,1.0930025341705576,-1.7806062797657662
1.8954730793484564,20.819884920771816,-0.06474172091246365,1.0753243243145,-1.7284004524905516
1.8839015744576755,20.627896882273454,-0.0638305556517694,1.0578761034450517,-1.6779783350521031
1.8724948946354125,20.43902943417296,-0.06291033126226325,1.0406510976716052,-1.6292601067342516
1.8612545215741623,20.25324298587808,-0.061982702751628885,1.023642772271451,-1.5821701533751293
1.8501816520423375,20.070499102533304,-0.06104918093531092,1.0068448204482994,-1.5366368081309874
1.8392772228010803,19.89076046494759,-0.0601111439675474,0.9902511527263106,-1.4925921104077902
1.8285483395823325,19.714236699934084,-0.05909866957409427,0.9711240140904457,-1.5027227320548893
1.8179987698448679,19.54114524385855,-0.05811877195329223,0.9521143867487799,-1.5146492899481736
1.807622707106636,19.371465218302983,-0.0571708140270625,0.9332192305353062,-1.5282419652091497
1.7974144663824538,19.205176279904055,-0.056254082908295096,0.9144356405638991,-1.543373335641986
1.7873684972475876,19.042258596349676,-0.055367796367995645,0.8957608433736715,-1.5599180950261056
1.7774793957858777,18.88269282302582,-0.05451110876211505,0.877192193558051,-1.5777527766838073
1.7677419155166478,18.726460080227028,-0.05368311645155111,0.858727170872945,-1.5967554801717478
1.758150977388905,18.573541930844414,-0.052882862745588254,0.8403633778228106,-1.6168055999452902
1.748701678926166,18.423920358444924,-0.052109342395955924,0.8220985377270259,-1.6377835548370476
1.7393893026006157,18.277577745654952,-0.0513615056657141,0.8039304932726954,-1.6595705171753496
1.7302093235112155,18.134496852759654,-0.050638261994290924,0.7858572055639657,-1.6820481403447274
1.721157416436783,17.994660796427503,-0.04993848327717988,0.7678767536821401,-1.7050982835587447
1.7122294623319942,17.858053028466323,-0.049261006776027134,0.7499873347753993,-1.7286027325754447
1.7034215543316646,17.724657314513372,-0.048604637672080245,0.7321872647018308,-1.7524429150372132
1.6947300033265893,17.594457712557272,-0.04796815127320177,0.7144749792548124,-1.7764996090599057
1.6861513431726347,17.467438551183832,-0.04735029488184871,0.6968490360056357,-1.8006526436306207
1.6776823355936985,17.343584407430903,-0.04674978932855459,0.6793081168047094,-1.8247805892996816
1.669319974838604,17.2228800841294,-0.046165330172494086,0.6618510309897935,-1.848760437570524
1.661061492151993,17.10531058659813,-0.04559558856762977,0.6444767193576153,-1.8724672673019525
1.6529043601198332,16.99086109854919,-0.04503921178970017,0.6271842589639789,-1.8957738963416972
1.644846296951332,16.87951695704798,-0.04449482341586948,0.6099728688272221,-1.9185505165101273
1.6368852707608377,16.771263626357666,-0.043961023145177115,0.592841916620696,-1.9406643099509655
1.6290195039158164,16.66608667048113,-0.04343638624394924,0.5757909264519478,-1.9619790447657883
1.6212474775202206,16.563971724194893,-0.04291946259600486,0.558819587839574,-1.982354647756545
1.613567936106634,16.46490446234813,-0.042408775332735696,0.5419277660133335,-2.0016467520232593
1.6059798926155289,16.368870567175808,-0.04190281901287614,0.5251155136791222,-2.019706217113668
1.598482633745939,16.27585569334799,-0.04140005731590068,0.5083830844077442,-2.0363786194134685
1.5910757257689356,16.185845430447046,-0.04089892020635662,0.49173094782495197,-2.0515037105218332
1.583759020903664,16.09882526253083,-0.04039780051888396,0.4751598067996456,-2.0649148415071044
1.576532664365518,16.014780524402646,-0.039895049904959505,0.4586706168468672,-2.076438351223679
1.5693971022075726,15.933696354168102,-0.03938897407221165,0.4422646079813885,-2.085892917350566
1.5623530900899192,15.855557641615047,-0.038877827235048804,0.42594330927479424,-2.0930888695640397
1.555401703127501,15.780348971905955,-0.03835980568071102,0.40970857638177416,-2.097827465390346
1.548544346985924,15.708054564024014,-0.03783304033680964,0.3935626223064452,-2.099900130949815
1.5417827704172793,15.638658203365964,-0.037295588203686364,0.37750805167188495,-2.099087671208209
1.535119079455241,15.572143167829953,-0.036745422485629294,0.3615478987282151,-2.0951594577804733
1.5285557535220617,15.508492146709607,-0.036180421216360975,0.34568566927564875,-2.0878726071807394
1.522095663741597,15.447687151683219,-0.03559835412213451,0.3299253865731179,-2.0769711692249233
1.5157420938051414,15.389709419190151,-0.034996867394040496,0.3142716411276351,-2.0621853548200066
1.5094987638050434,15.334539303530306,-0.034373465940382486,0.29872964398175184,-2.0432308456529173
1.503369857541267,15.282156160129865,-0.033725492546021654,0.28330528268979427,-2.019808246745933
1.4973600539280134,15.232538218619883,-0.03305010315679495,0.26800517853223843,-1.9916027684237472
1.4914745632958626,15.185662445720705,-0.03234423720043607,0.25283674256973654,-1.958284259586222
1.4857191696217948,15.14150439848125,-0.0316045814003181,0.23780822675756064,-1.9195077628483046
1.4801002800586,15.100038069280863,-0.030827524857401613,0.2229287643578208,-1.8749148287533435
1.4746249836278684,15.061235725291368,-0.030009102150725924,0.2082083910810166,-1.8241359167974598
1.4693011216651257,15.02506774698967,-0.029144919657527208,0.19365803449340868,-1.766794332473028
1.4641373736805992,14.991502473029204,-0.02823005794832193,0.17928945395623494,-1.7025123093969448
1.4591433639045803,14.960506062588387,-0.027258939562997173,0.16511510649730415,-1.6309200494863292
1.4543297961928818,14.932042391498737,-0.026225146122542023,0.15114790560990368,-1.551668780719363
1.449708628577314,14.906073005221106,-0.025121160717101042,0.13740083080819748,-1.4644491617423112
1.4452933041460132,14.882557160006215,-0.023937999630687056,0.1238863382461391,-1.3690165957376195
1.4410990629733145,14.861451992537962,-0.022664680065964445,0.11061552251222076,-1.2652250727303302
1.4371433716906812,14.842712865640966,-0.021287445296629303,0.0975969985655264,-1.1530707558010633
1.4334465247562043,14.826293937859997,-0.019788631753115904,0.08483553233411452,-1.0327451527794878
1.4300324974393062,14.812148987365607,-0.018145005101306663,0.07233058427024586,-0.904694592564687
1.4269301711072147,14.800232467472327,-0.016325287477486586,0.06007519232176066,-0.7696769768573689
1.424175123367014,14.79050065377487,-0.014286354080301319,0.048056070983293814,-0.6287981546474705
1.4218123331255441,14.7829125183795,-0.01196687082491565,0.036256544520801626,-0.4835007052461904
1.419900588458539,14.777429540158156,-0.009274736586255734,0.024665435716365612,-0.33547304053668153
1.4185209449211755,14.77401261147022,-0.006054636051112748,0.013300438594054604,-0.1864543070630931
1.4177998328773143,14.77260930571104,-0.0019577199917933255,0.0022918476190640653,-0.03795759114023056
