x,y,v_x,v_y,omega
2.375,32.48,0.0,3.0769230769230766,-2.0
2.374479489711469,31.841694654898482,-0.004957240843152957,3.002175447853242,-1.8664142838994702
2.372998915660449,31.218755247246442,-0.009143464404655442,2.9305808154995465,-1.7462230040492814
2.3707081132653425,30.61054142961928,-0.012673701263025878,2.861931733330559,-1.6376914953457795
2.3677347090304868,30.016454514964593,-0.015644434307028953,2.796038882428375,-1.5393495748010095
2.3641876721095056,29.43593387947271,-0.01813686970231339,2.7327290746371666,-1.449945916742262
2.360160244942378,28.868453756511578,-0.020219579508427163,2.671843524992679,-1.368411142740947
2.355732371202402,28.3135203696641,-0.021950646586585482,2.613236349745191,-1.2938278085224082
2.350972714923039,27.770669361199488,-0.023379413216869833,2.5567732546796917,-1.2254058801450842
2.345940345710224,27.239463479037557,-0.024547912619459867,2.502330384957741,-1.1624626024606544
2.340686150101285,26.71949049077002,-0.025492045560912436,2.4497933128283234,-1.104405899963512
2.335254017449617,26.21036129784291,-0.02624255112164387,2.3990561436203697,-1.0507206322309153
2.3296818394742647,25.71170822677575,-0.026825810548377963,2.350020723685885,-1.0009571668613073
2.324002355269904,25.223183477446455,-0.027264515207438573,2.3025959365931445,-0.9547218421735439
2.3182438677094566,24.744457711123005,-0.027578223463485235,2.256697076011128,-0.9116689773857555
2.3124308524698725,24.27521876316615,-0.02778382643731627,2.212245285482715,-0.8714941551206793
2.3065844771255897,23.815170467233393,-0.027895938746331905,2.1691670567339973,-0.8339285540773436
2.300723044693383,23.364031579442347,-0.02792722727468219,2.127393779371212,-0.7987341517418339
2.294862373528305,22.92153479234701,-0.027888688583206395,2.0868613358224777,-0.7656996505006964
2.2890161234471265,22.48742582978194,-0.027789883618491502,2.0475097362258143,-0.7346370073213137
2.2831960763018544,22.061462614667136,-0.027639136812671244,2.009282788677115,-0.7053784687002808
2.2774123778694175,21.64341450276624,-0.027443705401011296,1.9721278008551766,-0.6777740299568021
2.2716737468074495,21.23306157617325,-0.027209923760590844,1.935995309554302,-0.6516892520213933
2.265987655504704,20.830193990985233,-0.02694332674174974,1.9008388350934486,-0.6270033803108852
2.260360486891778,20.43461137421601,-0.026648755286116495,1.8666146579467495,-0.6036077196147325
2.2547976706443076,20.04612226552894,-0.02633044707074151,1.8332816152634592,-0.581404226559244
2.2493038016832445,19.66454359982773,-0.025992114463192918,1.800800915224249,-0.5603042874934052
2.2438827434362776,19.289700227149865,-0.02563701169839763,1.7691359674221006,-0.5402276548128161
2.238537717955615,18.92142446666567,-0.025267992879343667,1.738252227665458,-0.5211015190145383
2.2332713846777077,18.559555691903526,-0.024887562148344283,1.708117055783511,-0.5028596973214772
2.2280859093499497,18.203939944603157,-0.02449791716363444,1.6786995851724296,-0.48544192266373853
2.2229830244295936,17.854429574849213,-0.024100986839755402,1.6499706029603536,-0.46879321926372536
2.2179640820742916,17.510882905360347,-0.023698464163121036,1.621902439790758,-0.45286335312852116
2.213030100686189,17.17316391800758,-0.023291834771190272,1.5944688683308033,-0.43760634747785804
2.2081818058377514,16.841141960813776,-0.022882401880597918,1.5676450097054664,-0.42298005458607885
2.203419666293674,16.514691473844863,-0.02247130806299798,1.5414072471413052,-0.4089457767388054
2.1987439257461414,16.19369173254643,-0.022059554294450754,1.5157331461771197,-0.39546793003785785
2.194154630797747,15.878026607207136,-0.021648016642641075,1.4906013808637582,-0.38251374566280155
2.1896579142743207,15.567584717947682,-0.021177855009039195,1.4659880406548558,-0.3683689409105723
2.1852591460102273,15.262258817339394,-0.020715176077564387,1.4418776794240837,-0.3548930085022446
2.1809567247267516,14.961945212712187,-0.020260264717443174,1.4182518884540871,-0.34204622920478533
2.1767489961940716,14.666543986389552,-0.019813340355696728,1.3950931241424231,-0.32979168927398905
2.172634266072498,14.375958819355116,-0.019374565564050213,1.3723846571379243,-0.3180950510184244
2.16861081106172,14.090096825227885,-0.018944053586216467,1.3501105250261676,-0.30692434461474577
2.164676888566566,13.808868393831006,-0.018521874939058845,1.3282554882774327,-0.2962497789806336
2.160830745061593,13.532187043696215,-0.018108063203543853,1.3068049891967584,-0.286043569760813
2.1570706233140653,13.259969282898435,-0.01770262010624329,1.2857451136392557,-0.2762797826999576
2.1533947686051063,12.992134477662436,-0.017305519979080478,1.2650625552750074,-0.2669341908679321
2.149801434071561,12.72860472822683,-0.016916713673732247,1.2447445822069403,-0.2579841443712926
2.1462888852760984,12.469304751490068,-0.01653613199734187,1.224779005762241,-0.24940845133327957
2.1428554040999637,12.214161769999226,-0.016163688727749953,1.2051541512933843,-0.24118726905530555
2.1394992920413416,11.96310540687534,-0.015799283259125826,1.1858588308388562,-0.23330200438840273
2.1362188729922686,11.716067586299097,-0.015442802922523846,1.1668823175063232,-0.22573522244519476
2.1330124955582654,11.472982439208423,-0.015094125020362822,1.148214321452477,-0.21847056287335445
2.1298785349771805,11.233786213884773,-0.014753118609018285,1.1298449673441915,-0.21149266299166597
2.126815394686983,10.998417191128151,-0.014419646059528297,1.1117647731950695,-0.2047870871609706
2.1238215075863427,10.766815603742266,-0.014093564422760274,1.0939646304800401,-0.19834026182553774
2.120895337026622,10.538923560070824,-0.013774726622196767,1.076435785438474,-0.19213941571671156
2.118035377569347,10.314684971344029,-0.01346298249471065,1.0591698214833878,-0.18617252476086701
2.11524015553919,10.09404548261099,-0.013158179697261498,1.0421586426407845,-0.1804282612784868
2.11250822939897,9.876952407049053,-0.012860164495309414,1.025394457949092,-0.17489594710117246
2.109838189970041,9.663354663455223,-0.012568782446870616,1.008869766754046,-0.1695655102691809
2.1072286605186976,9.45320271673792,-0.01228387899449682,0.9925773448393057,-0.164427445004113
2.1046805168279166,9.246582272644755,-0.011984156155796564,0.9752364084289297,-0.1847292842888443
2.1021926127979764,9.04359156149086,-0.011710167938872517,0.9580084597034002,-0.20685433023353406
2.0997595426632243,8.844207183306505,-0.011461928582576384,0.9408903801475854,-0.23069642268990748
2.0973759080326104,8.648406380531554,-0.011239353613746178,0.9238791700900432,-0.2561521836982824
2.0950363377254173,8.456167013568805,-0.011042268359518877,0.906971943840883,-0.28312079411031843
2.09273550589031,8.267467537318627,-0.010870415784362562,0.890165925208428,-0.31150377668516915
2.090468148544472,8.082286978616906,-0.01072346369980928,0.8734584433793833,-0.341204784818121
2.0882290786599524,7.900604914501383,-0.010601011390854426,0.8568469291494131,-0.3721293960779867
2.0860131999154934,7.72240145123391,-0.010502595699231645,0.8403289114931906,-0.4041849097411236
2.083815519224048,7.547657204008285,-0.010427696600244955,0.823902014465138,-0.4372801475159257
2.0816311581388383,7.376353277274902,-0.010375742306513901,0.8075639544242337,-0.4713252566518969
2.0794553632341266,7.208471245614618,-0.010346113928836765,0.7913125375784638,-0.5062315146218047
2.0772835155508544,7.0439931350949685,-0.01033814972137536,0.7751456578467562,-0.5419111345537013
2.0751111391918835,6.882901405042006,-0.010351148935488063,0.7590612950385873,-0.5782770705715121
2.0729339091467627,6.725178930160791,-0.01038437530376066,0.7430575133539288,-0.6152428221780512
2.070747658421694,6.5708089829367005,-0.010437060173083046,0.7271324602088325,-0.6527222367823027
2.0685483845467085,6.419775216248322,-0.01050840530296875,0.7112843653947846,-0.6906293094330757
2.0663322555289145,6.272061646120651,-0.01059758534268844,0.6955115405830296,-0.7288779787730898
2.0640956153181254,6.127652634544649,-0.010703749998161517,0.6798123791884271,-0.7673819181704741
2.0618349888491445,5.9865328722856965,-0.010826025896893977,0.6641853566111171,-0.8060543209177484
2.0595470867235344,5.848687361599296,-0.01096351815653645,0.6486290308783926,-0.8448076783106967
2.0572288095928157,5.7141013987671165,-0.011115311659832232,0.6331420437137947,-0.8835535493301038
2.0548772523047747,5.582760556360277,-0.011280472035796732,0.6177231220656373,-0.9222023205469787
2.0524897078749085,5.454650665129417,-0.01145804634387996,0.6023710801330393,-0.9606629547553767
2.050063671346071,5.329757795412355,-0.011647063454570873,0.5870848219342082,-0.9988427267049216
2.047596843601123,5.208068237939987,-0.011846534116361107,0.5718633444693147,-1.036646944156191
2.0450871351959155,5.089568483909115,-0.012055450695144765,0.5567057415389846,-1.0739786523147947
2.042532670283292,4.974245204177137,-0.012272786567933205,0.5416112082893846,-1.11073831951281
2.039931790703104,4.862085227417289,-0.012497495148145039,0.5265790465663142,-1.1468235017978838
2.0372830603185137,4.753075517054569,-0.012728508514618864,0.5116086711738617,-1.1821284838596875
2.0345852696853437,4.64720314678074,-0.012964735610807044,0.4966996171483278,-1.216543893469876
2.031837441148913,4.544455274421733,-0.01320505997424911,0.48185154817556597,-1.249956286335377
2.029038834471942,4.444819113901801,-0.013448336949285109,0.4670642662999835,-1.2822476979670754
2.0261889531078343,4.348281905015163,-0.013693390327928419,0.4523377230965794,-1.3132951588499502
2.0232875512461552,4.254830880677105,-0.01393900835473009,0.43767203250396913,-1.3429701688725084
2.0203346417716865,4.164453231281776,-0.014183939021163926,0.42306748554678947,-1.3711381266431453
2.0173305052953134,4.077136065742248,-0.01442688456334312,0.40852456721059893,-1.3976577090052318
2.0142757004344944,3.9928663687291035,-0.01466649506350402,0.3940439757717423,-1.4223801957867013
2.0111710755435883,3.911630953555541,-0.01490136104036364,0.3796266449288377,-1.44514873462227
2.008017782120291,3.8334164100792023,-0.015130004895799803,0.36527376913152043,-1.4657975406249548
2.004817290144425,3.758209046902085,-0.015350871064829043,0.3509868325553145,-1.4841510258439012
2.001571405639967,3.6859948270498677,-0.015562314691912422,0.3367676422276897,-1.5000228539539584
1.9982822907913456,3.616759296199934,-0.01576258862829238,0.32261836586691567,-1.513214916664276
1.9949524869917152,3.550487502403911,-0.015949828511044612,0.30854157504760377,-1.523516230180036
1.9915849412555537,3.4871639061174804,-0.016122035642874302,0.2945402943469632,-1.530701753100886
1.9881830364924116,3.42677227921126,-0.016277057339433017,0.2806180571408552,-1.5345311319740076
1.9847506262157077,3.3692955914992417,-0.016412564343458502,0.26677896868789813,-1.5347473881923819
1.9812920743540703,3.3147158831988435,-0.016526024814995426,0.2530277770301831,-1.531075571291721
1.9778123009488358,3.263014121650791,-0.016614674282475105,0.23936995199889066,-1.5232214207913433
1.9743168346692581,3.214170040613908,-0.016675480761122432,0.22581177216190831,-1.5108701042465433
1.9708118732713351,3.1681619605666285,-0.016705103981000013,0.21236041876455383,-1.4936851370998152
1.9673043533906411,3.1249665887838844,-0.01669984726370443,0.1990240744044375,-1.4713076460466485
1.9638020314326734,3.0845587986549816,-0.01665559995503597,0.18581202206130645,-1.4433562204325945
1.9603135778697793,3.0469113889801136,-0.016567767310622625,0.17273473674697626,-1.4094277178666126
1.9568486880778406,3.01199482615435,-0.01643118308879331,0.159803956831718,-1.3690995679966853
1.9534182141263952,2.9797769756979697,-0.016239997401162803,0.1470327141814316,-1.3219343757200168
1.9500343239715585,2.950222835207274,-0.015987527882996077,0.13443529049187392,-1.267487991857059
1.9467106977941517,2.923294289412965,-0.0156660547589741,0.12202705040632197,-1.2053227281898542
1.9434627766168635,2.8989499207870537,-0.01526652788186594,0.10982407936424582,-1.1350280665286343
1.9403080872214784,2.8771449271332266,-0.014778133026563636,0.09784252686268648,-1.0562520206646322
1.9372666820633533,2.8578312210645613,-0.01418763038415101,0.08609753093414012,-0.9687470863606036
1.9343617570564893,2.8409578124986403,-0.013478322062172386,0.07460159826510727,-0.8724349475741607
1.9316205497759174,2.8264715939857084,-0.012628413943274908,0.06336238757234382,-0.7674925780968701
1.9290756860325924,2.814318633073473,-0.011608383612201437,0.05238009730607757,-0.6544566628817712
1.9267672550721007,2.8044459687361574,-0.010376673154386284,0.04164527733502685,-0.5343296417342251
1.9247461133002688,2.796803604871311,-0.008872296101155674,0.031139140425407073,-0.40864624349591994
1.9230794742897286,2.7913457050360115,-0.007000456380179049,0.02084085800602367,-0.27942908895968366
1.921861848678315,2.7880283594084254,-0.004595978014237228,0.010752909875748312,-0.14894746126362188
1.9212459839081424,2.7867943038182155,-0.0012694007493110676,0.0010000005071911216,-0.019248724262946826
