x,y,v_x,v_y,omega
2.375,32.48,0.0,2.717948717948718,-3.1020408163265305
2.374438674889994,31.968965777441262,-0.005908685368480902,2.6613588879326824,-2.932143666546415
2.372827321463573,31.468500516359548,-0.011052929646480138,2.6066964918748483,-2.775926907271852
2.370302305353114,30.978248137387524,-0.015526187305720675,2.5538548657254223,-2.631944670054727
2.366983411726966,30.49787206448124,-0.01940953507478048,2.502735375393355,-2.498932814012431
2.3629760256325203,30.027053774444177,-0.02277347644570402,2.453246624996791,-2.37578286861637
2.3583729969401444,29.565491487431323,-0.025679457158255453,2.4053037646121753,-2.2615201502977973
2.3532562399892143,29.112898980999695,-0.028181142325215007,2.3588278820365325,-2.155285315438729
2.347698109331931,28.669004512940727,-0.030325496172507328,2.3137454659526067,-2.056318754838932
2.3417625859144175,28.233549840311046,-0.03215369769605335,2.269987930149315,-1.9639473473176852
2.3355063022877873,27.806289323873578,-0.033701919426371414,2.227491190245076,-1.8775731795366915
2.328979430740516,27.386989108649598,-0.035001991597537876,2.1861952857968077,-1.796663910562008
2.322226454381441,26.975426372524726,-0.03608197007693283,2.1460440418334277,-1.7207445170305358
2.3152868380177454,26.571388635895453,-0.036966623225129606,2.1069847647905258,-1.649390201047552
2.3081956130360908,26.174673126224402,-0.03767785026597159,2.068967968588924,-1.5822202804274004
2.300983888305547,25.78508619212164,-0.03823504163448969,2.0319471272296417,-1.5188929113935339
2.2936792972964417,25.402442762208935,-0.03865539004029876,1.995878450798824,-1.4591005187768569
2.2863063900842175,25.026565844573113,-0.03895415956206261,1.9607206822098069,-1.4025658291917416
2.278886977628834,24.657286063087806,-0.03914491891566042,1.9264349123723818,-1.3490384194943161
2.271440434645385,24.294441227292886,-0.03923974406801191,1.8929844117846755,-1.2982917067250392
2.2639839664754646,23.937875932877223,-0.039249394562728086,1.8603344768012526,-1.250120317254724
2.256532844602985,23.58744119012131,-0.03918346725284841,1.8284522890504755,-1.204337782428
2.2491006148092696,23.242994077928678,-0.03905053057573212,1.7973067866614185,-1.160774515982512
2.241699281411141,22.904397421314332,-0.03885824203614665,1.7668685461211853,-1.1192760351996216
2.2343394705565696,22.57151949042926,-0.038613451169872644,1.737109673721651,-1.0797013933426278
2.2270305751521953,22.24423371938667,-0.03832228992880232,1.7080037056740305,-1.0419217956480749
2.2197808836548054,21.922418443320687,-0.037990252148985305,1.6795255160731954,-1.0058193751065931
2.2125976946656136,21.60595665225528,-0.03762226352671796,1.6516512319837173,-0.9712861076262644
2.2054874190144664,21.294735760491992,-0.037222743327461505,1.6243581549982316,-0.9382228490156885
2.198455670804545,20.988647390341846,-0.03679565888224206,1.597624688687534,-0.9065384786396823
2.1915073487015007,20.687587169131415,-0.03634457378137995,1.5714302714222517,-0.8761491366571101
2.1846467085898396,20.391454538506885,-0.03587269055189353,1.5457553140991218,-0.846977543505037
2.1778774285799685,20.10015257514404,-0.03538288849938031,1.5205811423518718,-0.8189523917937555
2.1712026672285707,19.813587822048127,-0.03487775730481006,1.4958899428682384,-0.7920078020628395
2.1646300357740302,19.531671252244017,-0.03430783695350778,1.4716528971750626,-0.7643829751396021
2.1581659415964007,19.25431693419754,-0.033735259653120894,1.4478662401562759,-0.7379769878268185
2.1518107563652578,18.9814407719123,-0.03316142699048938,1.4245144154778102,-0.7127219883707173
2.145564601113943,18.712961560116796,-0.03258757565493197,1.401582550790645,-0.6885546152591332
2.1394273759214806,18.44880085790779,-0.032014794792037074,1.3790564198304873,-0.6654156528019245
2.1333987864739106,18.188882869357343,-0.03144404149817367,1.3569224070162937,-0.6432497166526489
2.1274783678384055,17.93313433062699,-0.030876154665035804,1.33516747435587,-0.6220049663679489
2.121665505746166,17.681484403167243,-0.03031186735854166,1.313779130483571,-0.6016328424112742
2.115959455647119,17.433864572612627,-0.0297518178945859,1.2927454016702522,-0.5820878252815996
2.110359359770402,17.190208553011324,-0.029196559755065618,1.2720548046592746,-0.5633272146902504
2.104864262398935,16.950452196055195,-0.028646570470899368,1.2516963211947227,-0.5453109269237558
2.0994731235437083,16.714533405000374,-0.02810225958412123,1.231659374119158,-0.5280013087212228
2.0941848311833295,16.48239205299086,-0.02756397578828749,1.21193380492836,-0.5113629661640205
2.0889982122166026,16.253969905518098,-0.027032013335149284,1.1925098526796956,-0.4953626072261596
2.08391204226013,16.02921054676841,-0.02650661778561985,1.1733781341590976,-0.4799688967678673
2.078925054408935,15.80805930962747,-0.02598799117432591,1.1545296252192239,-0.4651523228744672
2.0740359470656875,15.59046320912686,-0.025476296649329808,1.135955643208275,-0.45088507354944957
2.0692433909330292,15.376370879132626,-0.02497166264181164,1.1176478304152442,-0.4371409228660717
2.06454603525368,15.165732512089182,-0.024474186614496483,1.0995981384631177,-0.4238951257672441
2.059942513374234,14.958499801644443,-0.023983938432302804,1.0817988135867824,-0.41112432077999017
2.0554314477007365,14.754625887993665,-0.023500963393989275,1.064242382737198,-0.3988064399794071
2.051011454107163,14.554065305790143,-0.02302528495941411,1.046921640457774,-0.3869206255986876
2.0466811458517022,14.356773934480778,-0.02255690720332944,1.029829636482907,-0.3754471527371624
2.042439137050167,14.16270895093373,-0.022095817023356494,1.0129596640123208,-0.3643673576681712
2.038284045750895,13.971828784233828,-0.021641986126876286,0.9963052486182241,-0.3536635712934692
2.0342178801706656,13.784293375822333,-0.021159756822905072,0.9777516820290874,-0.38511845123437194
2.0302397596675714,13.600272863006563,-0.02071519584124589,0.9593063476105917,-0.4180164051191629
2.0263426161497238,13.419746949053657,-0.020307367504517587,0.9409664308410367,-0.4522516956119611
2.022519563657037,13.24269586162518,-0.019935290313240393,0.9227292263008355,-0.48772052063566557
2.018763906599786,13.069100332371267,-0.019597941868348293,0.9045921342666617,-0.5243207851792994
2.0150691471050415,12.898941577136775,-0.019294263339486407,0.8865526576753662,-0.5619518760350715
2.0114289915544976,12.7322012767096,-0.01902316350834421,0.8686083994527786,-0.6005144385139678
2.0078373563919496,12.568861558042094,-0.018783522413214657,0.8507570602051513,-0.6399101541778711
2.004288373273982,12.408904975876599,-0.018574194618026587,0.8329964362737513,-0.6800415186078705
2.000776393633276,12.252314494705772,-0.018394012126247472,0.8153244181559959,-0.7208116182021957
1.9972959927203415,12.099073470997489,-0.018241786957270172,0.797738989299603,-0.7621239049626108
1.9938419731863863,11.94916563561247,-0.018116313400154564,0.7802382252795246,-0.8038819681845928
1.9904093682674693,11.80257507634067,-0.018016369956865882,0.7628202933710161,-0.8459893019135193
1.9869934446280482,11.659286220479494,-0.01794072098440833,0.745483452536112,-0.8883490669656504
1.9835897049204951,11.519283817373278,-0.017888118042465238,0.7282260538451033,-0.9308638462380272
1.980193890116183,11.38255292082885,-0.017857300950294416,0.7110465413594163,-0.9734353919445442
1.976801981663308,11.249078871316478,-0.01784699855365504,0.693943453507669,-1.0159643633152764
1.9734102035267653,11.11884727785894,-0.017855929199423852,0.6769154249927217,-1.058350053181445
1.970015024166156,10.991843999503565,-0.01788280091225283,0.6599611892743711,-1.1004901017378705
1.9666131585094042,10.868055126262892,-0.017926311264083398,0.643079581680084,-1.1422801956269892
1.9632015699815824,10.74746695939881,-0.017985146923513967,0.6262695432049972,-1.1836137503220452
1.9597774726514017,10.630065990912449,-0.018057982867862907,0.6095301250724866,-1.224381573600475
1.956338333561514,10.51583888208744,-0.018143481236215998,0.5928604941381523,-1.2644715076904036
1.9528818753133845,10.404772440917153,-0.018240289796725966,0.5762599392333059,-1.3037680474424294
1.9494060789830887,10.29685359822686,-0.01834703999586298,0.5597278785592509,-1.3421519316247608
1.9459091874511263,10.192069382278923,-0.01846234455110932,0.5432638682611296,-1.379499704162203
1.9423897092373146,10.090406891622745,-0.01858479454164592,0.5268676123302004,-1.4156832418395506
1.9388464229411995,9.99185326592076,-0.018712955943775932,0.510538974006501,-1.4505692446703353
1.9352783823993824,9.896395654446511,-0.018845365549034147,0.4942779888803422,-1.4840186847979058
1.9316849226838908,9.804021181910347,-0.0189805261929824,0.4780848799213951,-1.5158862094565422
1.9280656670804746,9.714716911221437,-0.019116901211401607,0.461960074698701,-1.546019493190383
1.9244205352027564,9.628469802741119,-0.019252908027735494,0.4459042250941261,-1.574258534230119
1.920749752417832,9.54526666952087,-0.01938691076094232,0.4299182298558576,-1.600434889696309
1.9170538607815704,9.465094127947747,-0.01951721172602264,0.4140032603875389,-1.6243708441855096
1.9133337317080015,9.387938543139821,-0.019642041679964813,0.39816079022220613,-1.6458785063777976
1.9095905806273115,9.313785968343417,-0.01975954864308902,0.38239262868729224,-1.6647588286942872
1.9058259839218175,9.242622077482203,-0.019867785098952942,0.3667009593254791,-1.6808005458957045
1.9020418984697427,9.174432089895522,-0.019964693343937603,0.3510883836922333,-1.6937790300886102
1.8982406841737975,9.109200686180966,-0.020048088718644264,0.335557971197811,-1.7034550622453883
1.8944251299070785,9.046911913926774,-0.020115640404713992,0.3201133156884069,-1.7095735245594361
1.8905984833748102,8.987549081988597,-0.020164849408638306,0.30475859945029327,-1.7118620244948353
1.8867644854701227,8.931094641842613,-0.02019302327228304,0.28949866524427076,-1.7100294713408557
1.8829274098001296,8.877530054449196,-0.020197246938168923,0.2743390967917069,-1.7037646410405625
1.8790921081822207,8.826835641015844,-0.020174349039819538,0.25928630776988076,-1.692734787362637
1.8752640630710047,8.778990416098488,-0.020120862657191447,0.24434763872860554,-1.6765843905394089
1.8714494480916586,8.733971901695295,-0.020032979230663772,0.22953146025237098,-1.6549341832872388
1.8676551981545213,8.691755921473835,-0.019906493791832087,0.21484727892090544,-1.6273806659094427
1.863889091055959,8.652316375194818,-0.019736738824615487,0.20030583980557848,-1.5934964274191499
1.8601598431098112,8.615624995002353,-0.019518502713783036,0.18591921485195295,-1.5528317431788734
1.8564772223315509,8.581651087911158,-0.019245926531062288,0.17170085979220864,-1.5049181420052649
1.8528521842291261,8.550361273071804,-0.01891236928393509,0.15766561220100692,-1.4492749541137584
1.8492970376997215,8.5217192289822,-0.018510225762427692,0.14382958874220103,-1.3854202979559065
1.8458256524883199,8.49568547570583,-0.018030671199695633,0.13020991943011104,-1.3128885688463923
1.8424537261207954,8.472217231437995,-0.017463290563721545,0.11682423075764904,-1.2312572595400078
1.839199138798561,8.451268402203503,-0.016795523354536174,0.1036897611843789,-1.1401867918661315
1.8360824420386899,8.432789787354839,-0.016011810959894363,0.09082197406470668,-1.039477669298809
1.8331275550054493,8.416729606884058,-0.01509226307421679,0.07823255720666848,-0.9291488857475173
1.8303627881828195,8.403034464397091,-0.014010545585044264,0.06592683739298044,-0.8095384310723566
1.8278223892255525,8.391650816929175,-0.012730496070399056,0.05390103069032836,-0.6814178490489999
1.8255489383449248,8.382526860537538,-0.011200565830944986,0.042140615537444345,-0.5460942574198002
1.8235972008585613,8.3756143389366,-0.009344039288671864,0.03062276973559675,-0.40544428877658245
1.8220408458648993,8.370868907968784,-0.0070386448551359795,0.019329135188795147,-0.26179636122410055
1.8209867341026373,8.36824536010936,-0.0040572684318348744,0.008287158068310726,-0.1175790889856416
