x,y,v_x,v_y,omega
2.375,32.48,0.0,3.7948717948717947,-8.0
2.372934777279094,31.76861396747145,-0.021739186535853702,3.693402231744487,-7.407765614549552
2.3670867619770988,31.076034991850083,-0.0398188692746216,3.5969027747962086,-6.881878132826857
2.3580946226751154,30.40135658668663,-0.054835228640990566,3.5049751742927753,-6.4127594806640165
2.346493815561977,29.74374353884454,-0.06727853044467964,3.4172674345713316,-5.99246799220133
2.3327347233151463,29.102423822483907,-0.07755401952195971,3.333466421856395,-5.614378516245023
2.317197260562116,28.476681773141745,-0.08599821998362109,3.25329199227162,-5.272932899942913
2.300202711687676,27.865852268687444,-0.0928917681683787,3.1764922651420795,-4.963443597693971
2.2820233819828855,27.269315725193255,-0.09846959714520566,3.102839771638848,-4.681937829150133
2.262890507926406,26.68649376013858,-0.1029290771335251,3.03212828156828,-4.425032995590784
2.2430007720375453,26.11684540797446,-0.10643656380185007,2.9641701622645424,-4.18983640872596
2.2225216923218043,25.55986379735863,-0.10913269636384779,2.8987941600073364,-3.9738640830782503
2.201596099020821,25.01507321768997,-0.11113670680439534,2.835843520715426,-3.774974587022615
2.180345867403112,24.48202651656019,-0.11254994180306664,2.7751743859138305,-3.5913148697893216
2.1588750412925584,23.960302780548357,-0.11345875409749917,2.716654414210736,-3.4212756725548643
2.1372724554766727,23.449505260226847,-0.1139368860697206,2.660161589173578,-3.2634546541072633
2.1156139442741533,22.949259506912856,-0.11404744237785135,2.605583182552627,-3.116625759956537
2.0939642070457203,22.45921169401405,-0.11384452844775629,2.5528148479611183,-2.97971366999202
2.072378388313172,21.9790271000943,-0.11337461610538575,2.5017598248783846,-2.851772396893634
2.0509034196616778,21.508388734258418,-0.11267768548929046,2.452328236551938,-2.731967292322014
2.0295791621708803,21.046996087298083,-0.11178818283489446,2.404436468293704,-2.6195598628727863
2.0084393813153003,20.594563994386764,-0.11073582617120949,2.35800661498333,-2.513894912140767
1.9875125807570853,20.15082159706087,-0.10954628496789688,2.3129659884471443,-2.4143896159516434
1.9668227169624757,19.715511393854896,-0.10824175497536058,2.2692466768788906,-2.3205242101406
1.9463898129028192,19.28838837033122,-0.10684144565260235,2.226785149686099,-2.231834028196054
1.926230486090542,18.86921920040744,-0.10536199447663169,2.1855219021431895,-2.1479026727146615
1.9063584037230261,18.457781511873648,-0.10381781991827109,2.1454011350545894,-2.0683561423017376
1.8867846756617948,18.053863209838703,-0.10222142283153447,2.106370465313288,-1.992857766138881
1.8675181942802221,17.657261852572027,-0.10058364434291299,2.068380663809566,-1.9211038233631659
1.8485659288056313,17.267784074835987,-0.09891388696856966,2.0313854176224515,-1.8528197447852968
1.8299331806091912,16.885245054348047,-0.09722030457290397,1.9953411138295507,-1.7877568112044728
1.811623804917629,16.509468017486036,-0.09550996586459345,1.9602066426126479,-1.725689276357343
1.7936404036004459,16.14028378076322,-0.09378899536891286,1.925943217627533,-1.6664118539254786
1.7759844929975244,15.777530324962335,-0.09206269518815603,1.8925142118554608,-1.609737517465704
1.7586566501722087,15.421052399136158,-0.09033565034148332,1.8598850073674567,-1.5554955699775053
1.7416566404857532,15.070701151962634,-0.08861182004225764,1.828022857616992,-1.5035299463687883
1.7249835289753483,14.726333788190601,-0.08689461690937125,1.796896761035996,-1.4536977175574235
1.708635777667332,14.38781324813166,-0.08518697580659072,1.7664773448475812,-1.4058677695391821
1.6926113306594275,14.055007908348852,-0.08349141375030007,1.7367367581293667,-1.3599196346156037
1.6769076885524303,13.72779130186624,-0.08181008211282809,1.7076485732665347,-1.3157424552326
1.6615219735956612,13.406041856378458,-0.08014481216895253,1.679187695025922,-1.2732340636341362
1.6464509867258628,13.089642649077476,-0.07849715488155806,1.6513302765633817,-1.2323001628687387
1.6316912575211697,12.778481176837904,-0.07686841569415917,1.6240536417479006,-1.192853596668715
1.6172390879562442,12.472449140613218,-0.07525968498926619,1.5973362132488058,-1.1548136974096048
1.6030905907282382,12.17144224299522,-0.07367186477921589,1.5711574458880044,-1.1181057027975347
1.5892417228230513,11.875359997979057,-0.07210569211748993,1.5454977648084516,-1.082660233163812
1.5756883149049943,11.584105552057142,-0.07056175965153112,1.5203385080538077,-1.04841282230171
1.5624260970384203,11.29758551583868,-0.06904053368082744,1.4956618731931695,-1.0153034956870202
1.5494623600207253,11.01571264815922,-0.06741985597911651,1.471420944485355,-0.9799308782726038
1.5368029709413435,10.738402690103353,-0.06583687117227079,1.447631245576386,-0.9461130393301231
1.5244408213742244,10.465571393325312,-0.0642910190079327,1.424277141560877,-0.91376368786292
1.5123689142840953,10.197137414466113,-0.06278168720395204,1.4013436885359514,-0.8828022305058806
1.500580372977451,9.933022187525477,-0.06130822128703999,1.378816595049679,-0.8531533352116202
1.4890684483070884,9.673149803315049,-0.05986993313782971,1.3566821861127356,-0.8247465328243574
1.4778265243605953,9.417446895524744,-0.05846610840420371,1.3349273695746993,-0.7975158528702455
1.4668481228344021,9.16584253297017,-0.05709601292414501,1.3135396046839602,-0.771399490284861
1.4561269062698667,8.91826811762192,-0.05575889828149079,1.2925068726660294,-0.746339500144847
1.4456566803058934,8.674657288047566,-0.05445400660243751,1.2718176491692852,-0.7222815177771229
1.4354313950833835,8.434945827924675,-0.05318057468714203,1.2514608784400738,-0.6991745018905685
1.425445145919999,8.199071579308299,-0.05193783755900818,1.231425949100714,-0.6769704986159731
1.4156921733590129,7.966974360359355,-0.05072503150400548,1.2117026714144934,-0.655624424554049
1.406166862683106,7.738595887261507,-0.049541396663433754,1.1922812559312943,-0.6350938671216793
1.3968637429726838,7.513879700073499,-0.04838617923574898,1.1731522934161505,-0.6153389006561337
1.3877774857783436,7.292771092281729,-0.047258633336252194,1.1543067359709076,-0.5963219168882034
1.3789029034684388,7.0752170438341935,-0.046158022557485016,1.1357358792663248,-0.5780074685302176
1.3702349473050213,6.8611661574520895,-0.04508362126796063,1.1174313458084657,-0.5603621248456045
1.3617687052947474,6.6505685980292135,-0.0440347156822919,1.099385069169177,-0.5433543381746697
1.353499399855411,6.443376034942133,-0.04301060473177482,1.081589279115869,-0.526954320488051
1.3454223853335998,6.239541587105954,-0.042010600760973925,1.0640364875807637,-0.511133929126117
1.3375331454043937,6.039019770621422,-0.041034030072773994,1.0467194754143077,-0.4958665609605268
1.329827290380023,5.8417664488692616,-0.0400802333416552,1.0296312798715814,-0.4811270542842418
1.3223005544508717,5.64773878491695,-0.0391485659125695,1.0127651827843378,-0.46689159779933226
1.3149487928791108,5.456895196111834,-0.03823839800070396,0.9961146993747771,-0.45313764612872015
1.307776161161797,5.26939797712652,-0.037262988497335954,0.9775402373127369,-0.48258443716618005
1.3007838053357468,5.085419527764387,-0.0363407570400366,0.9590750191307592,-0.5135394797758249
1.2939617759037594,4.904939362826756,-0.03547007908614548,0.9407161907390245,-0.5458925022874168
1.2873004335732887,4.727937528609196,-0.03464931386617738,0.922461011551064,-0.5795353946506937
1.2807904520094053,4.554394581682288,-0.033876807858910805,0.9043068508374289,-0.6143619629707526
1.2744228199634564,4.384291568327406,-0.03315089788791965,0.8862511844771297,-0.6502676881542536
1.2681888428469146,4.2176100045525615,-0.03246991386515159,0.8682915921001805,-0.6871494876217769
1.2620801438153113,4.054331856614386,-0.031832181204355894,0.8504257546174433,-0.7249054790398921
1.2560886644230727,3.8944395219727213,-0.03123602292447288,0.8326514521369176,-0.7634347450166137
1.250206664906501,3.737915810604189,-0.030679761460492352,0.814966562268693,-0.8026370976856549
1.2444267241490632,3.5847439266003818,-0.03016172019674667,0.7973690588240265,-0.8424128420779057
1.2387417393805378,3.43490744997494,-0.029680224735100777,0.7798570109174632,-0.8826625371423826
1.233144925659442,3.2883903186017385,-0.029233603908012384,0.7624285824846431,-0.9232867532330153
1.227629815186507,3.145176810203612,-0.028820190543934702,0.745082032232488,-0.9641858248213732
1.2221902564957838,3.0052515243074502,-0.02843832198999466,0.7278157140429019,-1.0052595971280864
1.2168204135692784,2.8685993640770526,-0.02808634039427299,0.7106280778560281,-1.0464071652864249
1.2115147649208282,2.7352055179295967,-0.027762592747307902,0.6935176710645689,-1.0875266045593373
1.206268102695271,2.6050554408350663,-0.027465430679608313,0.6764831404567843,-1.1285146900252188
1.2010755318298572,2.4781348351901684,-0.02719321000895912,0.6595232347526644,-1.1692666040266624
1.1959324693263376,2.3544296311490385,-0.026944290028090324,0.6426368077855407,-1.209675629539356
1.190834643684286,2.2339259662823423,-0.026717032519819484,0.6258228223902106,-1.2496328274639752
1.1857780945490168,2.116610164423747,-0.02650980048301416,0.6090803550686754,-1.2890266956713503
1.1807591726310132,2.0024687135482004,-0.02632095654860276,0.5924086015160165,-1.3277428074394855
1.1757745399581647,1.8914882425094888,-0.026148861060326985,0.5758068831019859,-1.3656634267096026
1.1708211705273925,1.7836554964450144,-0.02599186978990714,0.5592746544188137,-1.4026670973573
1.1658963514285345,1.6789573106330593,-0.025848331250703897,0.5428115120228044,-1.4386282034249624
1.1609976845207846,1.5773805825617941,-0.025716583567715997,0.5264172045168231,-1.4734164969949322
1.1561230887506504,1.4789122419391028,-0.025594950854748725,0.5100916441430811,-1.506896590103742
1.1512708032104877,1.383539218337809,-0.02548173904170087,0.4938349200810683,-1.5389274068129495
1.1464393910483557,1.291248406131043,-0.025375231086005107,0.47764731367438007,-1.5693615912730137
1.1416277443534313,1.202026626326905,-0.025273681492146222,0.4615293158428715,-1.5980448673605576
1.1368350901567694,1.115860584859373,-0.0251753100516633,0.44548164697325954,-1.6248153452623753
1.1320609977050904,1.0327368268328172,-0.02507829470285236,0.42950527962206275,-1.6495027702604885
1.1273053871858716,0.9526416861498284,-0.024980763394186978,0.4136014644094064,-1.6719277089983844
1.1225685401057313,0.8755612298755793,-0.02488078481781702,0.3977717595300455,-1.6919006687623732
1.117851111551455,0.8014811966062609,-0.024776357858776778,0.38201806435751984,-1.7092211459144206
1.1131541445946884,0.7303869280140276,-0.024665399580869288,0.36634265766598134,-1.723676600738425
1.1084790871381736,0.6622632926372134,-0.024545731540340825,0.3507482410373417,-1.7350413578631727
1.1038278115445934,0.5970946008737776,-0.02441506418155627,0.33523798805144067,-1.7430754344668746
1.0992026374402457,0.5348645100220182,-0.024270979022103137,0.31981559986183344,-1.747523303177595
1.094606358147143,0.4755559181016977,-0.024110908273713715,0.3044853677205008,-1.748112603723915
1.0900422712721334,0.41915084509259515,-0.023932111463230533,0.2892522429016668,-1.7445528280655727
1.0855142140752814,0.3656303001639145,-0.023731648503633167,0.2741219142423391,-1.7365340195456445
1.0810266043598058,0.31497413346682634,-0.023506348501372596,0.2591008930954226,-1.723725549874948
1.0765844877844408,0.26716087116918175,-0.023252773344573343,0.24419660477453714,-1.7057750718471458
1.0721935927153718,0.2221675326977035,-0.022967174750889396,0.22941748439893905,-1.6823077954446914
1.0678603940396454,0.17996942972717989,-0.02264544288833602,0.21477307318554292,-1.6529263074038072
1.063592187804918,0.14053994748261545,-0.022283043793006694,0.2002741083361534,-1.6172112592679273
1.059397179212576,0.10385031064335237,-0.021874941389538827,0.18593259523500322,-1.5747234002855313
1.0552845875051196,0.06986933891415958,-0.021415497636318247,0.17176184401966915,-1.5250076478216927
1.0512647728713647,0.03856320166305238,-0.020898340613732195,0.15777644283408823,-1.4676001928406328
1.0473493930001738,0.009895187602609212,-0.020316184346170645,0.1439921262231745,-1.4020400576773437
1.0435516009250987,-0.016174484840476566,-0.019660574338831897,0.13042547844090965,-1.327887077525025
1.039886302256392,-0.03968877719281494,-0.01892151691071314,0.1170933884258102,-1.2447489542982526
1.0363705002886654,-0.060693803345458264,-0.018086924854829045,0.10401215002307508,-1.1523207296566098
1.0330237741440031,-0.07923858622046964,-0.017141771404773402,0.09119609076653967,-1.050440423274501
1.02986896167993,-0.09537450132935987,-0.016066780848629093,0.07865564722176917,-0.9391639064093056
1.0269331610712005,-0.10915430825388484,-0.014836383453786458,0.0663949519837233,-0.8188587369296131
1.0242492330445812,-0.1206307196767682,-0.013415490510626595,0.05440937878349747,-0.6903080023337372
1.021858104561568,-0.12985461828514389,-0.011754282994774481,0.042684290778375766,-0.5547982044286909
1.0198124268956554,-0.13687340790873037,-0.00977916612009436,0.031197705259344614,-0.4141402283961445
1.0181828640562327,-0.1417307769720324,-0.007374126926460865,0.01993249540695518,-0.27055041798415225
1.017071210405513,-0.1444712174478937,-0.004327490449535825,0.008914246444213384,-0.12632364120422077
