x,y,v_x,v_y,omega
2.375,32.48,0.0,2.3076923076923075,-5.918367346938775
2.3740397221286265,32.023011335034646,-0.00960277871373567,2.262194341961204,-5.6226345619163185
2.371272547140158,31.574976924977637,-0.018068971170947933,2.2181497586088783,-5.348378255703687
2.36691314519989,31.13561425490396,-0.025525048231730605,2.1754769421279105,-5.093518459648074
2.361152439930184,30.70465645755689,-0.032082004465332374,2.134101031342789,-4.856218848843286
2.354160489754924,30.281851040518895,-0.037837497287266875,2.093953139037171,-4.634853517718807
2.34608897503591,29.866958757832712,-0.04287764990287307,2.0549696878246135,-4.427978942220104
2.337073352224819,29.45975260489705,-0.04727857820803821,2.017091841532024,-4.234310211273573
2.3272347254437937,29.060016919187397,-0.0511076896022131,1.9802650155645198,-4.052700792365014
2.316681477259034,28.667546572332597,-0.0544247922453843,1.9444384529834495,-3.8821252380026414
2.305510693440164,28.28214624147607,-0.057283045943316256,1.9095648555818259,-3.7216643513324765
2.293809410839017,27.903629749792806,-0.059729780068153535,1.8756000612508392,-3.570492417405202
2.2816557128979236,27.531819467615453,-0.061807199342779756,1.842502760522677,-3.4278661768973815
2.2691196934974864,27.166545766918897,-0.06355299466159008,1.8102342464428742,-3.2931152754719024
2.2562643067131996,26.807646522980473,-0.06500087318127898,1.7787581929413605,-3.165633967453339
2.243146117441362,26.45496665791736,-0.06618101953709898,1.7480404576897806,-3.04487388940572
2.2298159656772354,26.108357721538837,-0.06712049810416496,1.718048906095466,-2.930337749310113
2.2163195554029524,25.767677505567097,-0.06784360463866382,1.6887532536219334,-2.8215738017234475
2.2026979775061073,25.43278968779819,-0.06837217432979005,1.660124924067125,-2.7181709996307224
2.188988174851637,25.10356350321214,-0.06872585221491452,1.6321369217933857,-2.6197547305217217
2.1752233565286674,24.779873439412523,-0.068922331014778,1.6047637162027724,-2.525983058195004
2.16143336735736,24.46159895409226,-0.0689775606982984,1.5779811369998609,-2.4365434034436677
2.147645017941451,24.14862421249314,-0.06890593346079361,1.5517662789913513,-2.3511496065304245
2.133882379868034,23.84083784305949,-0.06872044727337241,1.526097415345151,-2.269539322551784
2.120167050068947,23.53813270968724,-0.06843285071749827,1.500953918377322,-2.191471707695269
2.1065183878528786,23.240405699143682,-0.068053771443185,1.4763161870582715,-2.1167253602303844
2.0929669106459103,22.947563813105976,-0.067461000626498,1.4521026733187992,-2.0409052078248404
2.0795391773144685,22.659517370738968,-0.06681633268792046,1.4283617503512651,-1.968544722009359
2.0662449172266744,22.376173560677923,-0.06612626819001954,1.4050763502592025,-1.8994449139511393
2.053092623758054,22.09744290512308,-0.06539666649618606,1.3822302052891975,-1.833420422269914
2.0400896762131433,21.8232391046185,-0.06463280895292325,1.3598077997566411,-1.7702984295517148
2.0272424497668915,21.553478892093366,-0.06383945550959286,1.3377943254946894,-1.7099176767789614
2.0145564146654165,21.288081895492123,-0.0630208955051582,1.3161756405177483,-1.6521275657636343
2.0020362257884816,21.0269705083781,-0.06218099326419151,1.294938230622489,-1.596787340782452
1.9896858035552223,20.770069767948115,-0.06132322906840015,1.274069173677333,-1.5437653415880035
1.9775084070480216,20.51730723994278,-0.06045073600360623,1.2535561063760492,-1.4929383208261402
1.9655067001352458,20.268612909979876,-0.05956633312415208,1.2333871932529856,-1.444190819643385
1.953682811290234,20.023919080876887,-0.058672555325964916,1.213551097776887,-1.397414595932153
1.9420383877301346,19.783160275563446,-0.057771680275030456,1.194036955357535,-1.3525081002477732
1.9305746444327347,19.546273145216208,-0.05686575269896629,1.1748343481148555,-1.3093759949496127
1.9192924085313339,19.313196382277333,-0.055956606315043025,1.1559332812739078,-1.267928712577568
1.9081921595360534,19.08387063804379,-0.055045883637762076,1.13732416106148,-1.2280820498822582
1.8972740657840332,18.858238444538536,-0.054135053882439145,1.118997773991067,-1.1897567942887555
1.8865380174800186,18.636244140396137,-0.053225429157707574,1.1009452674329196,-1.1528783798952362
1.8759836566523425,18.417833800515368,-0.05231817911905422,1.083158131374777,-1.117376570394287
1.8656104043167276,18.2029551692492,-0.051414344237093075,1.0656281812869337,-1.083185166559976
1.855417485111221,17.99155759691925,-0.05051484781797399,1.0483475420125508,-1.0502417361718326
1.8454039496395376,17.78359197945693,-0.049620506898859926,1.0313086326106713,-1.0184873644507504
1.835568694736795,17.579010700987325,-0.0487320421285643,1.0145041520853457,-0.9878664232643334
1.8259104818507361,17.377767579184827,-0.04785008673202539,0.9979270659396445,-0.9583263575227612
1.8164351754885635,17.180005445955477,-0.04690297688970338,0.9796942663538644,-0.9669433856767746
1.8071457061471212,16.985877703520234,-0.04599171652471804,0.9615831579985596,-0.9776717625635288
1.7980349441343215,16.795360354629317,-0.04511590360327934,0.9435903309106274,-0.9903831933684396
1.789095849487638,16.608430069785893,-0.04427504286355737,0.9257125175235918,-1.004952711777226
1.7803214897849378,16.425064159329526,-0.04346855416344314,0.9079465870400574,-1.0212583950331515
1.7717050563538974,16.245240546595795,-0.04269578014696017,0.890289540297238,-1.039181087495333
1.7632398790114923,16.06893774205531,-0.04195599327709198,0.8727385051075995,-1.0586041315445764
1.7549194394559118,15.896134818338574,-0.041248402278711266,0.8552907320597699,-1.0794131047122553
1.746737383424894,15.7268113860558,-0.04057215803146856,0.837943590767951,-1.1014955619288131
1.738687531726858,15.560947570322892,-0.03992635894889114,0.8206945665611509,-1.1247407818017237
1.730763890244316,15.39852398790611,-0.03931005587652855,0.803541257606669,-1.1490395158381284
1.72296065900279,15.239521724898896,-0.03872225653873195,0.7864813724654525,-1.1742837395248997
1.7152722403928622,15.083922314844326,-0.03816192956054497,0.7695127280802453,-1.2003664041683808
1.707693246627989,14.931707717216213,-0.03762800808818716,0.7526332482008935,-1.2271811883773736
1.7002185065163,14.78286029617064,-0.03711939302870361,0.7358409622548282,-1.2546222480458011
1.6928430716207787,14.637362799477692,-0.03663495592650887,0.7191340046746377,-1.282583963655565
1.6855622218789532,14.495198337540344,-0.03617354149174627,0.7025106146988479,-1.3109606836750531
1.67837147075052,14.356350362403798,-0.0357339697925868,0.6859691366665973,-1.339646462774141
1.6712665699591833,14.220802646653947,-0.03531503812077981,0.6695080208318999,-1.3685347935118857
1.6642435138934144,14.088539262097886,-0.03491552253691076,0.6531258247287075,-1.3975183300780112
1.6572985437298342,13.959544558112604,-0.03453417909888984,0.6368212151241087,-1.4264886025832455
1.6504281513425294,13.83380313953981,-0.03416974477415709,0.6205929706038189,-1.45533572029626
1.643629083061823,13.711299843995253,-0.03382093803290965,0.6044399848417505,-1.4839480621160768
1.6368983433469022,13.592019718449677,-0.033486459116296774,0.5883612706140154,-1.5122119524483495
1.6302331984382779,13.47594799492554,-0.03316498996994654,0.5723559646273411,-1.5400113205221466
1.6236311800583494,13.363070065138533,-0.03285519382933804,0.5564233332427326,-1.567227341041588
1.6170900892314795,13.253371453895518,-0.032555714439361734,0.5405627791874358,-1.5937380539154433
1.6106080002989573,13.146837791040571,-0.03226517488585883,0.5247738493620308,-1.6194179606502155
1.6041832652091785,13.04345478171787,-0.03198217601193007,0.5090562438649812,-1.6441375948324912
1.597814518169358,12.943208174693936,-0.031705294386274493,0.4934098263743526,-1.6677630639707939
1.5915006807522638,12.846083728451916,-0.031433079784665224,0.4778346360458436,-1.6901555598253202
1.5852409675599197,12.752067174736545,-0.031164052138776873,0.4623309011078585,-1.7111708342395926
1.5790348925561615,12.661144179189947,-0.0308966978988061,0.446899054358114,-1.7306586374211879
1.5728822761915315,12.573300298674923,-0.030629465747493083,0.43153975079211393,-1.7484621156278213
1.56678325345748,12.48852093483357,-0.030360761593023266,0.4162538876214285,-1.764417165340725
1.560738283022522,12.406791283374584,-0.030088942756553952,0.4010426269684125,-1.7783517413068182
1.5547481576212325,12.328096278522484,-0.02981231125634184,0.3859074215526112,-1.7900851163856049
1.5488140158881936,12.252420531996158,-0.029529106074046865,0.37085004371065167,-1.7994270920601814
1.5429373558538995,12.17974826581382,-0.02923749426889665,0.3558726181127148,-1.8061771599249485
1.5371200503489335,12.110063238147575,-0.02893556078076211,0.34097765854976064,-1.8101236166720596
1.5313643645976613,12.043348661376712,-0.028621296731958443,0.3261681091588807,-1.8110426383834537
1.5256729763247707,11.979587111419036,-0.028292585996949136,0.3114473904178896,-1.8086973247456186
1.5200489987495924,11.918760427361534,-0.027947189754833977,0.29681945015712163,-1.8028367307752386
1.514496006907609,11.86084960037778,-0.027582728664998748,0.2822888196804115,-1.7931949136724992
1.5090180678209641,11.80583465092774,-0.02719666220145112,0.2678606748199843,-1.7794900367711728
1.5036197751477847,11.753694493314246,-0.0267862645303436,0.25354090131496554,-1.7614235930159097
1.4983062890854326,11.70440678686095,-0.026348596093177117,0.23933616321799384,-1.7386798394772571
1.4930833825035048,11.657947773341164,-0.025880469726101134,0.22525397197985744,-1.710925575622989
1.487957494566714,11.614292100916348,-0.02537840964180758,0.21130275226829098,-1.6778104562594545
1.4829357935198368,11.573412635868856,-0.024838600826963205,0.19749189820662194,-1.6389681118581874
1.47802625091613,11.535280265023289,-0.02425682521010493,0.18383181024905837,-1.5940184631618444
1.473237730486335,11.499863694205569,-0.023628379087845573,0.17033389792815481,-1.5425717745890464
1.4685800962398716,11.46712925173939,-0.022947963376787745,0.1570105267336175,-1.484235204747472
1.464064346533534,11.437040711269706,-0.022209533686589882,0.14387487796322795,-1.4186228939932544
1.4597027841579653,11.409559155632504,-0.021406090069095347,0.1309406784087989,-1.3453709817131945
1.455509237629751,11.384642913480484,-0.020529375213049792,0.11822174311139791,-1.264159347472349
1.4514993568271821,11.362247612912277,-0.019569432812639967,0.10573126257067039,-1.1747422356900632
1.447691018349491,11.3423264101944,-0.018513951964270296,0.09348076460810634,-1.07699003527166
1.4441048947011672,11.324830462727896,-0.017347284518966877,0.08147871005692629,-0.9709438723478774
1.4407652699495848,11.309709713895156,-0.016048962996859945,0.0697287782704521,-0.8568824524631996
1.4377012287623367,11.296914023400099,-0.0145914488756193,0.058228126680111625,-0.7353953869976827
1.4349484193814548,11.286394574838901,-0.012936644933199189,0.04696635893184536,-0.6074476092108281
1.432551736074046,11.278105266346529,-0.011030188140888743,0.03592672599188163,-0.47440557448732235
1.4305696352274557,11.272003343413925,-0.008790820325014792,0.025092503334172643,-0.3379827062784742
1.4290820390800918,11.26804755493162,-0.006085141148624778,0.01446538148887303,-0.20006035245208328
1.428209745031309,11.266188497997696,-0.002637799339204692,0.004125187850357063,-0.06236951940726948
