x,y,v_x,v_y,omega
2.375,32.48,0.0,3.8974358974358974,-6.530612244897959
2.3734364697582024,31.787578283368877,-0.01737255824219301,3.7961387317987723,-6.06004010244616
2.3690034091834615,31.11296246976592,-0.031883670366040236,3.6995925304562887,-5.6406939584533085
2.362174949105796,30.455329550261244,-0.04398810827468579,3.607439908484558,-5.265394751995802
2.353350423218352,29.81391743128261,-0.05406217936358437,3.5193614135002766,-4.928150487994295
2.342867148280769,29.188018597216264,-0.062418653276227656,3.4350700761258106,-4.623932745363495
2.3310107995930935,28.576974662866682,-0.06931855436460733,3.354306972202843,-4.348500243581789
2.3180238805888336,27.98017165429386,-0.07498054568272984,3.2768375674952006,-4.098258502866669
2.3041126714105364,27.397035892408407,-0.07958844518723451,3.2024486756764827,-3.8701474398630737
2.2894529560023553,26.82703038032871,-0.08329728157033671,3.130945902986819,-3.661550762972501
2.2741947626709016,26.26965161553946,-0.08623819989025774,3.062151483560432,-3.470222507146231
2.2584663037058905,25.72442676316367,-0.08852245527653148,2.995902431726089,-3.2942271372861383
2.242377261597892,25.190911138445628,-0.0902446792567882,2.9320489540299377,-3.1318904619078105
2.2260215398227197,24.668685955742262,-0.09148556268956792,2.870453076007489,-2.9817592105160755
2.2094795730253853,24.15735630858138,-0.09231406839192542,2.8109874480022885,-2.842567592796087
2.1928202732156805,23.656549351134537,-0.09278926282701823,2.7535343014071194,-2.7132095134259426
2.1761026741532308,23.16591265611301,-0.09296183786686975,2.69798453216537,-2.5927153906082885
2.159377324603088,22.685112727881666,-0.0928753793569374,2.6442368926273425,-2.48023273936418
2.1426874719396336,22.213833652686624,-0.09256742801477541,2.5921972762065075,-2.375009846993687
2.1260700701745323,21.751775870453315,-0.09207036937524268,2.541778081941322,-2.276381998839533
2.109556640504932,21.298655054740642,-0.09141218250920127,2.4928976481994782,-2.1837598157893674
2.093174007627644,20.85420108921926,-0.09061707168288939,2.445479746482602,-2.0966193469987098
2.0769449311149977,20.41815713054372,-0.08970600067984644,2.3994531276900557,-2.014493626801805
2.0608886479194197,19.990278748760247,-0.0886971459376902,2.3547511143485473,-1.9369654572868198
2.0450213394253676,19.57033313747533,-0.08760628177400058,2.3113112332616264,-1.863661220301615
2.0293565342875564,19.158098386937993,-0.08644710864612243,2.2690748838198496,-1.7942455568584808
2.0139054564946424,18.753362813985945,-0.08523153349736791,2.227987037869604,-1.7284167796781236
1.9986773266069262,18.35592434349453,-0.08396990969947858,2.187995967590574,-1.6659029072501388
1.9836796228784213,17.965589936564566,-0.08267124283946387,2.149052998297911,-1.6064582263063232
1.9689183079421435,17.582175061204502,-0.08134336756362254,2.1111122834805767,-1.5498603048069342
1.9543980258758689,17.205503201716063,-0.07999309983942927,2.074130599724279,-1.4959073900642075
1.940122273743991,16.835405403389856,-0.07862636829254703,2.0380671594558217,-1.4444161369780233
1.9260935511052102,16.471719849466425,-0.077248327693906,2.002883439693436,-1.395219619939735
1.9123134904658023,16.114291467625897,-0.07586345718840197,1.9685430252013365,-1.3481655890959563
1.8987829712279465,15.76297156354093,-0.07447564545444173,1.9350114646316379,-1.3031149376154167
1.8855022193187403,15.417617479268326,-0.07308826464785054,1.9022561383972796,-1.2599403515795786
1.8724708943771784,15.078092274468226,-0.0717042347028364,1.8702461371593946,-1.2185251182923205
1.8596881661144715,14.744264428629762,-0.07032607932723968,1.8389521499346309,-1.1787620723145436
1.8471527812401938,14.416007562651508,-0.06895597483140257,1.8083463609348422,-1.1405526614893036
1.83486312215667,14.093200178276284,-0.06759579276330314,1.7784023543454228,-1.1038061177247274
1.8228172584616031,13.77572541401539,-0.0662471371818852,1.749095026331167,-1.0684387194215963
1.8110129921599003,13.463470816318758,-0.06491137728148146,1.72040050363141,-1.0343731342326885
1.7994478973664276,13.156328124856575,-0.06358967597932443,1.6922960681706285,-1.0015378323734248
1.7881193551789691,12.854193070876121,-0.062283014992436755,1.6647600871677608,-0.9698665620108328
1.7770245843124965,12.556965187685986,-0.060992216857258585,1.6377719482781743,-0.939297879375791
1.7661606680098565,12.264547632399694,-0.05971796428318546,1.6113119993472733,-0.9097747272014689
1.7555245776783432,11.976847018142898,-0.058460817178074546,1.585361492394898,-0.8812440559134335
1.7451131936448672,11.693773255993662,-0.05722122763832623,1.5599025314855048,-0.8536564827046297
1.7349233233732706,11.415239405984561,-0.05599955315718939,1.5349180241711684,-0.826965984238584
1.7249517174446898,11.141161536549074,-0.05479606827148799,1.5103916362231433,-0.8011296192512188
1.715195083564818,10.87145859184358,-0.0536109748381985,1.4863077493934644,-0.7761072777777591
1.7056563149799953,10.606053849096597,-0.05237534277094179,1.4626338366841276,-0.7501036881390006
1.696337398678284,10.344873125798728,-0.05116817169251994,1.4393741999588492,-0.7251900865463669
1.6872332561748182,10.087843090884768,-0.0499889672348746,1.4165150768629486,-0.7013086145862266
1.67833890030699,9.83489283847539,-0.04883720907433054,1.3940432832412384,-0.6784050652343944
1.6696494394090569,9.585953786564914,-0.04771235645825692,1.3719461824306998,-0.6564286154682875
1.6611600805570168,9.34095958106197,-0.046613853008854234,1.3502116564909008,-0.6353315810865264
1.6528661320059033,9.099846004847095,-0.04554113089240829,1.3288280792299434,-0.6150691916773724
1.6447630049267576,8.862550891535793,-0.044493614431431766,1.3077842908956114,-0.5955993838876864
1.6368462145374454,8.629014043658096,-0.04347072322759291,1.2870695744121454,-0.5768826113309522
1.6291113807100102,8.399177154986248,-0.042471874855022296,1.26667363305284,-0.5588816696391602
1.6215542281271884,8.172983736761214,-0.04149648717633036,1.2465865694475307,-0.5415615353114516
1.6141705860518596,7.950379047586047,-0.04054398032732278,1.2267988658321012,-0.5248892171445245
1.606956387765424,7.731310026770252,-0.03961377841084702,1.2073013654544926,-0.5088336191477677
1.5999076697242673,7.515725230924094,-0.038705310935339424,1.188085255058381,-0.4933654139515561
1.5930205704774427,7.303574773615377,-0.037818014029378254,1.1691420483718036,-0.47845692581154764
1.586291329383416,7.094810267913893,-0.03695133145980719,1.150463570533587,-0.4640820223964154
1.5797162851590394,6.889384771660271,-0.036104715477709604,1.1320419433955233,-0.4502160146223384
1.573291874289819,6.687252735306814,-0.035277627513628174,1.1138695716429114,-0.4368355638657305
1.5670146293269127,6.488369952187721,-0.034469538740887117,1.0959391296803442,-0.42391859594695647
1.5608811770931053,6.292693511085471,-0.033679930523642015,1.0782435492335394,-0.41144422133292813
1.5548882368171888,6.100181750968506,-0.03290829476431685,1.060776007621603,-0.39939266105614996
1.5490326182136982,5.910794217783394,-0.032154134163356426,1.0435299166574115,-0.387745177892579
1.5433112195227534,5.724491623191913,-0.031416962402696355,1.0264989121368273,-0.37648401238110296
1.5377210255228402,5.541235805150375,-0.03069630426300682,1.009676843880252,-0.3655923233039759
1.5322591055276473,5.36098969023482,-0.02999169568357875,0.9930577662925842,-0.35505413228059435
1.5269288687797515,5.183938380190515,-0.029233157070819738,0.9741790119774599,-0.39386638558134945
1.5217305858944934,5.010276042153471,-0.02852554165426998,0.9554025217674639,-0.43384272155745784
1.5166552489466039,4.839984496360223,-0.027867091100059055,0.9367257648241636,-0.474881392012399
1.5116941665111172,4.673046009654392,-0.027256047072014664,0.9181463096850883,-0.516882044957302
1.5068389634810464,4.509443277817596,-0.026690653262104094,0.8996618218348913,-0.5597455001338411
1.5020815805447876,4.34915940830555,-0.0261691571407717,0.8812700616322683,-0.6033735254663382
1.4974142733722466,4.1921779033251845,-0.025689811443016897,0.8629688825940147,-0.6476686134443046
1.4928296115560418,4.038482643188079,-0.025250875403702855,0.844756230040506,-0.6925337564110012
1.4883204773519148,3.8880578698745367,-0.02485061575326495,0.8266301401099675,-0.7378722196993951
1.48388006426068,3.7408881707409414,-0.024487307482677006,0.8085887391522186,-0.7835873115136207
1.4795018754926603,3.596958462300787,-0.02415923438420809,0.7906302435161814,-0.8295821484010504
1.4751797223545893,3.4562539740068843,-0.02386468937213809,0.7727529597493868,-0.8757594150966075
1.4709077225984315,3.318760231958553,-0.02360197458516909,0.7549552852320733,-0.9220211174461478
1.4666802987714895,3.1844630424530678,-0.023369401269742882,0.7372357092733132,-0.9682683270286229
1.4624921766075387,3.0533484752952873,-0.023165289440820754,0.7195928147020247,-1.0144009159962328
1.4583383834996169,2.9254028467728403,-0.022987967313866146,0.7020252799918236,-1.0603172805366878
1.454214247096481,2.800612702196677,-0.022835770498754897,0.6845318819655536,-1.1059140512307193
1.4501153940667157,2.6789647978977946,-0.022707040943080323,0.6671114991331556,-1.1510857884297547
1.4460377490770489,2.560446082560521,-0.022600125608773752,0.6497631157254325,-1.1957246606117513
1.4419775340346725,2.4450436777605553,-0.022513374862073096,0.6324858264964258,-1.2397201034861745
1.4379312676473535,2.3327448575617886,-0.022445140552583506,0.6152788423787497,-1.2829584574106805
1.4338957653599034,2.223537027009641,-0.022393773752418536,0.5981414970895591,-1.325322580451112
1.4298681397312856,2.1174076993395694,-0.022357622121112062,0.5810732548001275,-1.3666914341622634
1.4258458013233395,2.0143444716975942,-0.022335026856064935,0.5640737189995918,-1.4069396388895152
1.4218264601799464,1.9143349991443053,-0.022324319181637655,0.5471426427036098,-1.4459369950919922
1.4178081279845731,1.817366966684613,-0.02232381632250911,0.5302799401818626,-1.4835479668691463
1.4137891209946858,1.7234280590318036,-0.022331816898460748,0.5134857004049093,-1.5196311235399786
1.4097680638636896,1.6325059277756466,-0.022346595668163553,0.4967602024412944,-1.5540385347865648
1.4057438944750755,1.5445881555795928,-0.022366397538661043,0.48010393307043303,-1.5866151145457974
1.4017158699295607,1.4596622169808136,-0.02238943074483852,0.463517606916017,-1.6171979085379915
1.397683573844517,1.3777154353079837,-0.022413859088980196,0.447002189448763,-1.6456153200925587
1.3936469251462302,1.2987349351645285,-0.022437793114206413,0.4305589232562851,-1.671686268820653
1.3896061885599469,1.222707589848639,-0.02245928006671847,0.4141893580313666,-1.6952192767682257
1.385561987030762,1.1496199629949935,-0.022476292479778004,0.39789538478691355,-1.7160114770714048
1.3815153163408054,1.0794582436263838,-0.022486715186409552,0.38167927486429837,-1.7338475409917828
1.3774675622257169,1.01220817369639,-0.022488330536795217,0.36554372435784593,-1.7484985207684753
1.373420520337136,0.9478549670879026,-0.02247880155854981,0.3494919046253656,-1.7597206083308015
1.3693764194492772,0.8863832189092236,-0.022455652750990374,0.33352751958218063,-1.7672538140708922
1.3653379483687063,0.827776803804813,-0.022416248144242076,0.31765487046682744,-1.7708205763086209
1.3613082870800264,0.7720187618804033,-0.02235776617442364,0.3018789286932607,-1.7701243218547034
1.3572911427507566,0.7190911707478094,-0.022277170817464248,0.2862054172244418,-1.7648480127421236
1.3532907913328334,0.6689750021481373,-0.022171178270570538,0.27064090054970513,-1.7546527360148383
1.3493121256463114,0.6216499616536808,-0.02203621824633897,0.2551928827220486,-1.7391764257406612
1.3453607110294306,0.5770943101415469,-0.021868388607893308,0.23986991185720752,-1.7180328539693122
1.3414428499148003,0.5352846661740926,-0.021663401554663474,0.22468168778118425,-1.6908110971810018
1.337565657087198,0.49619578926270336,-0.021416518752027786,0.20963916678980146,-1.6570757869412116
1.3337371479652695,0.4598003454595343,-0.021122471491623458,0.1947546532453948,-1.6163686023009551
1.3299663431443725,0.42606865915387715,-0.020775359851678745,0.18004186126193417,-1.5682116767601466
1.3262633938350408,0.394968458835784,-0.02036852136311846,0.16551592005024962,-1.5121139004949278
1.322639735053326,0.3664646306130379,-0.019894353989267585,0.15119328242466895,-1.4475815305079847
1.3191082769992601,0.3405190023213791,-0.019344068833688513,0.13709147637152322,-1.3741351075740422
1.3156836508761152,0.3170901941710582,-0.01870733253458851,0.1232286141876074,-1.2913354274730966
1.3123825348850353,0.2961335898179627,-0.017971734032964523,0.10962254529122284,-1.1988221579817784
1.3092241015651933,0.27760150410652074,-0.017121969520835008,0.09628951816921202,-1.0963693692422325
1.3062306526454817,0.26144364649851326,-0.01613857403151637,0.08324223303088017,-0.9839620498091597
1.3034285478453278,0.24760798988675958,-0.014995923747971452,0.07048728487748986,-0.8618950581729569
1.300849599487365,0.23604212336606878,-0.013659058007170714,0.058022343130182744,-0.7308880580407169
1.298533217252928,0.22669503511939837,-0.012078522375461235,0.045834192943918765,-0.5921929840836645
1.296529815017156,0.2195189345152997,-0.01018150246644964,0.033900258212695725,-0.4476429435074677
1.2949066060635501,0.21446999346354545,-0.00785415257361694,0.02219908680682478,-0.2995621501496901
1.293759262412647,0.21150510208551765,-0.004894110214194218,0.010744150726815754,-0.1504513912732252
1.2932478384834645,0.21056280645240122,-0.0007883778878345358,-0.0002741992477290917,-0.0024626591934035214
