x,y,v_x,v_y,omega
2.375,32.48,0.0,3.4871794871794872,-3.7142857142857144
2.3739015547649416,31.757515959832656,-0.01046138319103057,3.3936208953666176,-3.435821329380391
2.3707952878804393,31.054206636484405,-0.019122110947087614,3.304563136521487,-3.1889271456024684
2.36602796650698,30.369162315420205,-0.02628094975252522,3.219668492661356,-2.9690133551909925
2.3598892398085773,29.701540595148806,-0.0321831140417848,3.138633605161509,-2.7722734447355983
2.352621782562874,29.050559648161197,-0.03703076448872289,3.061184937577618,-2.595533049819063
2.3444294698787305,28.415492355195703,-0.04099126107455167,2.9870749954271085,-2.4361311324244213
2.3354839997591843,27.795661170153174,-0.04420369244493447,2.916079147835054,-2.291825915075469
2.3259302844920584,27.190433601602514,-0.04678407200388237,2.8479929335998087,-2.160719928008563
2.3158908598866317,26.599218218621736,-0.048829495666850124,2.7826297614552127,-2.0411999210754725
2.305469506829028,26.02146110556835,-0.05042148583413664,2.7198189342913355,-1.9318884156366904
2.2947542379645696,25.45664270355968,-0.05162869382737192,2.6594039419817204,-1.8316044296993108
2.2838197702641296,24.90427498688758,-0.05250909379586561,2.6012409787049555,-1.7393314758125888
2.272729579413881,24.363898930952914,-0.053111771444598554,2.5451976492442197,-1.6541913576822547
2.261537612634268,23.83508223506516,-0.05347838836124206,2.4911518354010704,-1.575422615032613
2.2502897213871087,23.31741726896713,-0.05364438542122397,2.43899069886587,-1.5023627134711846
2.2390248634995484,22.810519216480845,-0.05363997541268296,2.3886098010035046,-1.4344332662439998
2.2277761147897337,22.314024393429108,-0.053490964680791425,2.3399123232987336,-1.3711277218959674
2.216571522767867,21.827588720123355,-0.05321943552746272,2.2928083748513064,-1.312001066359819
2.205434828985204,21.35088633134079,-0.05284431478361404,2.247214375458844,-1.25666117761061
2.194386081788397,20.883608308936488,-0.052381848995499386,2.203052504582142,-1.2047615415197486
2.183442157357154,20.425461524122273,-0.051846002730624834,2.1602502079341668,-1.155995093276909
2.172617203765377,19.976167578052735,-0.05124879338154049,2.1187397546328657,-1.1100889930205646
2.1619230202584823,19.535461830736278,-0.050600573350787076,2.0784578388572097,-1.0668001796450934
2.1513693818639723,19.103092509474017,-0.04991026850168775,2.039345220783391,-1.025911575064406
2.140964317755272,18.678819889051994,-0.049185580152602125,2.0013464022834686,-0.9872288339965878
2.1307143503967483,18.262415536798343,-0.04843315659524491,1.9644093334656036,-0.9505775527437895
2.1206247013521926,17.853661616387022,-0.04765873906718711,1.9284851466422208,-0.9158008653739518
2.110699468693369,17.45235024494135,-0.046867286254945045,1.893527914745154,-0.8827573678677866
2.1009417801622616,17.05828289857748,-0.046063080707982304,1.859494431577411,-0.8513193207271346
2.0913539255905906,16.67126986204284,-0.04524981997459917,1.8263440116096403,-0.8213710886844114
2.0819374715388834,16.291129718556913,-0.044430694803564486,1.7940383073039545,-0.7928077828519398
2.072693360665557,15.91768887636055,-0.043608456370967795,1.762541142185208,-0.7655340761786121
2.0636219979582755,15.550781128832096,-0.042785474174574296,1.7318183580857929,-0.7394631676583474
2.0547233256425192,15.190247245340327,-0.04196378597548562,1.7018376751691364,-0.7145158745354842
2.0459968883154347,14.835934590280772,-0.04114514094912621,1.6725685634932872,-0.6906198349175895
2.0374418896280035,14.48769676798766,-0.040331037026408424,1.64398212501252,-0.6677088058498778
2.0290572416484722,14.145393291432722,-0.03952275325484442,1.6160509850345326,-0.6457220441196245
2.0208416078789915,13.808889272817229,-0.038721377883067766,1.5887491922558798,-0.6246037589183957
2.0127934407607984,13.478055134338334,-0.0379278327663892,1.5620521265907537,-0.6043026270555353
2.004911014387105,13.152766337566877,-0.03714289460211885,1.5359364140897707,-0.5847713627379326
1.9971924530438834,12.832903130014117,-0.03636721342856318,1.5103798483174822,-0.5659663350494396
1.9896357561142433,12.518350307590563,-0.035601328758485436,1.4853613176211145,-0.5478472272119583
1.9822488730991363,12.208997890102125,-0.03474993805205797,1.4608521822687561,-0.5276485518728994
1.9750387248361165,11.904739953497788,-0.033918140643369454,1.4368424520582517,-0.5084011286646895
1.9680012121534873,11.605473539606354,-0.03310578966738439,1.4133138707173132,-0.49004867730958024
1.9611322722265256,11.311099434060036,-0.03231268582748884,1.3902490392476095,-0.4725388791271865
1.954427888670933,11.021521991559915,-0.03153858613053659,1.3676313655154468,-0.4558230540811008
1.947884099924663,10.73664897135762,-0.03078321145298748,1.345445017363545,-0.4398558676503494
1.9414970061475159,10.456391382243758,-0.0300462530912688,1.3236748789589374,-0.4245950644554405
1.9352627748379014,10.180663336390658,-0.029327378428870204,1.302306510118191,-0.41000122591660776
1.929177645340199,9.909381911448914,-0.028626235834962693,1.2813261083746217,-0.39603754952676445
1.923237932393649,9.642467020344384,-0.027942458894083644,1.2607204735732829,-0.3826696475893919
1.9174400288541746,9.379841288265347,-0.02727567005329141,1.2404769747984863,-0.36986536350699034
1.9117804077035838,9.121429936368653,-0.026625483761858495,1.220583519455725,-0.35759460391303327
1.9062556234458667,8.867160671769547,-0.025991509168782102,1.2010285243452923,-0.3458291851232122
1.9008623129774773,8.616963583412513,-0.025373352434924962,1.1818008885788311,-0.3345426925432566
1.895597196007337,8.370771043450457,-0.024770618709269995,1.1628899682026497,-0.32371035181345875
1.8904570750925593,8.128517613786858,-0.02418291381242053,1.1442855524030466,-0.3133089105965539
1.8854388353474336,7.890139957460718,-0.023609845664966957,1.1259778411792343,-0.30331653002781883
1.880539443875789,7.6555767545771225,-0.02305102549355484,1.1079574243788268,-0.2937126849459076
1.875755948970416,7.424768622507411,-0.02250606884332937,1.090215261999388,-0.2844780721115598
1.8710854791175762,7.197658040102411,-0.02197459642181117,1.0727426656672805,-0.27559452570021664
1.866525241839695,6.974189275680075,-0.02145623479610594,1.0555312812121167,-0.2670449394249171
1.8620725224050305,6.754308318565343,-0.020950616962602916,1.0385730722615325,-0.2588131947086245
1.8577246824293356,6.537962813975259,-0.020457382805919966,1.0218603047868797,-0.25088409438123194
1.8534791583912291,6.325102001056379,-0.01997617946176074,1.005385532535773,-0.24324330142668169
1.8493334600801097,6.115676653894429,-0.019506661596521032,0.9891415832923284,-0.23587728235058442
1.8452890294496571,5.909777301460082,-0.019011725360168794,0.9718046303681248,-0.25502631757106886
1.8413451986948188,5.707506820121587,-0.018548567543053424,0.9545809061889843,-0.27602525836558406
1.8374953219027788,5.508841760908652,-0.0181169257144716,0.937467276791354,-0.29876580506793116
1.833732817340973,5.313759320291087,-0.017716451064631194,0.9204607290902079,-0.3231425318355131
1.8300511847707228,5.12223731531607,-0.01734671627108352,0.9035583659099372,-0.3490526550079912
1.8264440211761168,4.934254159747731,-0.017007222725165392,0.8867574014075886,-0.3763958084269986
1.8229050350377225,4.749788841128332,-0.016697407164305025,0.8700551568723993,-0.4050738248270532
1.819428059271492,4.5688208986835015,-0.01641664775217521,0.8534490568878901,-0.4349905224285576
1.8160070629447829,4.391330401996541,-0.016164269645054147,0.8369366258450528,-0.4660514958785375
1.8126361618737206,4.2172979303790825,-0.01593955007935023,0.8205154847974223,-0.4981639106935585
1.809309628199125,4.046704552866988,-0.01574172301203538,0.8041833486510904,-0.5312363003620141
1.806021899031879,3.879531808771695,-0.015569983342686632,0.7879380236850156,-0.5651783652595606
1.802767584252889,3.715761688717837,-0.0154234907429331,0.7717774053993437,-0.5999007725217052
1.7995414735476674,3.5553766160982576,-0.01530137311632058,0.7556994766919058,-0.6353149560011643
1.7963385427510177,3.398359428877214,-0.015202729708915888,0.7397023063656366,-0.6713329154142594
1.7931539595733046,3.2446933616717217,-0.01512663388835304,0.7237840479723905,-0.7078670137499028
1.7899830887763502,3.0943620280394555,-0.015072135606449943,0.7079429390015717,-0.7448297719761447
1.7868214968640856,2.947349402899647,-0.015038263557972541,0.6921773004251748,-0.7821336600322227
1.783664956350714,2.8036398050105014,-0.015024027045567653,0.6764855366143143,-0.8196908830378997
1.780509449667308,2.6632178794231507,-0.01502841755829926,0.6608661356461564,-0.8574131615858316
1.777351172766486,2.52606857982774,-0.015050410068577012,0.6453176700244252,-0.8952115049058906
1.7741865384840847,2.3921771507018263,-0.015088964049529615,0.6298387978414159,-0.9329959756018266
1.7710121797166223,2.2615291091649254,-0.015143024212016248,0.6144282644147941,-0.970675444559289
1.7678249524738283,2.134110226435329,-0.015211520957449973,0.5990849044384983,-1.0081573345089252
1.7646219388666604,2.0099065087764245,-0.015293370539388106,0.5838076446939132,-1.0453473505977484
1.7614004500930696,1.8889041778091595,-0.01538747492338173,0.5685955073752728,-1.0821491961749885
1.7581580294863783,1.7710896500550817,-0.015492721330820284,0.5534476140921452,-1.1184642718338942
1.75489245569456,1.6564495155600945,-0.015607981448402551,0.5383631906220344,-1.154191355567263
1.751601746063041,1.5449705154325137,-0.0157321102803501,0.5233415724977983,-1.1892262616908043
1.7482841602989785,1.436639518109807,-0.015863944615483117,0.5083822115279794,-1.2234614759641373
1.744938204501402,1.3314434941461997,-0.01600230107572212,0.493484683363533,-1.256785764094192
1.7415626356492822,1.2293694892876061,-0.016145973706371244,0.4786486962421258,-1.2890837505409136
1.7381564666486478,1.1304045955707274,-0.016293731061575445,0.4638741010614815,-1.3202354642627856
1.7347189720504792,1.0345359201488336,-0.01644431273050475,0.44916090295655237,-1.3501158477443063
1.7312496945634752,0.9417505515072904,-0.016596425240963015,0.43450927458194516,-1.3785942253469987
1.7277484525001308,0.8520355226863856,-0.01674873726708091,0.4199195713314177,-1.405533726732363
1.724215348311172,0.7653777710767109,-0.016899874056334366,0.4053923487607096,-1.4307906608390086
1.7206507783825578,0.6817640942923688,-0.01704841097808817,0.3909283825187232,-1.454213835686772
1.7170554442913644,0.6011811015587085,-0.01719286608089601,0.37652869113517284,-1.4756438191724222
1.7134303657423775,0.5236151599732182,-0.017331691528503362,0.3621945620599887,-1.4949121360803974
1.7097768954366246,0.4490523349099078,-0.01746326376438004,0.34792758140013463,-1.5118403968545582
1.7060967361571153,0.377478323738508,-0.01758587223094559,0.33372966785129765,-1.5262393544045598
1.7023919603965152,0.3088783819200742,-0.017697706441437235,0.3196031113718482,-1.5379078865593296
1.6986650328975097,0.24323724042119466,-0.017796841168138094,0.3055506171889382,-1.5466319040306808
1.6949188365306915,0.18053901326236144,-0.01788121946822698,0.2915753557523102,-1.5521831873498806
1.6911567019990115,0.12076709388760776,-0.01794863321443985,0.2776810192453745,-1.5543181618267161
1.6873824419351884,0.06390403892066843,-0.01799670072673199,0.26387188520166865,-1.5527766280845454
1.6836003900533845,0.009931437774305607,-0.018022841004733822,0.25015288762082954,-1.5472804785044008
1.6798154461357262,-0.04117023347166793,-0.018024243925344425,0.23652969567414014,-1.537532448951527
1.6760331277883962,-0.08942177546988717,-0.01799783557303746,0.22300879954701402,-1.5232149833596613
1.6722596301077735,-0.1348454476375025,-0.017940237575749297,0.209597602049348,-1.5039893303449472
1.6685018946813943,-0.17746516973136295,-0.017847718865956267,0.19630451313025868,-1.4794950521663879
1.6647676897552182,-0.21730674302597208,-0.017716137573815918,0.18313904205646767,-1.4493502159207319
1.6610657040000327,-0.2543980896641287,-0.017540869618427612,0.17011187830692448,-1.4131526674842996
1.6574056572253324,-0.28876950627569187,-0.01731671871205223,0.15723494656510778,-1.3704829779072139
1.6537984328174709,-0.32045392399816564,-0.017037799458059198,0.1445214126965413,-1.3209099229272299
1.6502562389514193,-0.34948716088044307,-0.016697380218622104,0.13198560522990999,-1.2639997370595868
1.6467928092927608,-0.3759081433869582,-0.016287664149552298,0.11964279959407649,-1.199330901553525
1.6434236598793917,-0.399759060287991,-0.015799473120630132,0.10750878993957755,-1.1265168886530694
1.6401664286420345,-0.4210853937923176,-0.015221776758959986,0.09559914819683787,-1.045240035639862
1.6370413399958559,-0.439935749766903,-0.014540972252265824,0.08392805156108991,-0.955300331137228
1.6340718629448432,-0.4563613853942172,-0.013739761566904823,0.07250657346091964,-0.8566827438165759
1.6312856733393253,-0.4704153215212159,-0.01279537753326441,0.06134043727238386,-0.7496444337275823
1.6287161000886141,-0.48215095907933403,-0.011676748663985522,0.05042753947159767,-0.6348162239960571
1.626404355245897,-0.49162025634875306,-0.010339868885698485,0.03975624404670752,-0.513297657162673
1.6244030932817446,-0.49887187544957357,-0.008719768868136484,0.029306795008732456,-0.3867003896810559
1.6227825118595587,-0.5039504741190299,-0.006714339914587562,0.019060811367059415,-0.25706849784016816
1.6216427817675674,-0.5069002376013643,-0.004140232390090727,0.009032174178963919,-0.12659963434452032
