x,y,v_x,v_y,omega
2.375,32.48,0.0,3.282051282051282,-6.653061224489796
2.3728178684457846,31.735655098705536,-0.018975056993177766,3.1905130770309995,-6.138032965058046
2.366655210862463,31.01182624945489,-0.03461326981831227,3.10365082949633,-5.683325314052561
2.3572142459039185,30.307482646379103,-0.04748207764729255,3.0210761537713857,-5.279852734582415
2.3450787577634182,29.62167746801851,-0.05804390618314549,2.94244713632072,-4.920145894822026
2.3307357744971524,28.953538065116565,-0.06667768743655594,2.86746071500056,-4.598023483111351
2.314592860023364,28.302257716278817,-0.07369548190073787,2.795846666197258,-4.308338821506478
2.296992003855797,27.667088628563018,-0.0793554412954958,2.7273627922009873,-4.046782336114303
2.2782208477695054,27.047335940307995,-0.0838720029331274,2.6617910187122504,-3.8097262316189147
2.258521811222664,26.442352540990875,-0.08742396703940256,2.598934192740972,-3.594101389853703
2.2380995469509792,25.85153456472466,-0.09016093967090162,2.538613426965237,-3.3972991047351515
2.2171270610241307,25.274317444889274,-0.0922085031712614,2.480665875951182,-3.2170921231695058
2.195750758485169,24.710172440513194,-0.0936723884718813,2.4249428577538454,-3.0515708098628194
2.1740946200167772,24.158603562570377,-0.094641859079353,2.3713082547924125,-2.899091244497506
2.1522636723307538,23.61914484184178,-0.09519246862519862,2.3196371428475295,-2.7582327952818897
2.130346881892554,23.09135789047801,-0.09538831779393003,2.2698146081417843,-2.6277632644213753
2.1084195758012094,22.57482971764714,-0.09528390908732658,2.2217347208222966,-2.506610118319266
2.0865454734064124,22.06917076620757,-0.0949256769543881,2.1752996395218336,-2.3938366335644323
2.0647783962677098,21.57401314260774,-0.09435325468650202,2.1304188265636093,-2.2886220343209547
2.043163711378261,21.08900901647798,-0.09360052696087784,2.0870083571734415,-2.190244885971759
2.0217395524564266,20.613829169863028,-0.09269650714203248,2.044990309043546,-2.098069157244238
2.0005378559958693,20.148161678913425,-0.09166607077585563,2.0042922209530136,-2.011532478512994
1.9795852422317832,19.69171071323464,-0.09053057065098,1.9648466110364105,-1.9301362149528547
1.9589037658976087,19.244195440082088,-0.0893083539940158,1.9265905468118592,-1.8534370452789977
1.9385115573570721,18.805349022262593,-0.08801519853239145,1.8894652603142001,-1.7810397941789562
1.918423371200515,18.374917700017285,-0.08666468108984457,1.8534158026884855,-1.7125913124272012
1.898651056535241,17.952659948363582,-0.08526848991253604,1.8183907334306546,-1.6477752355405695
1.8792039608530504,17.538345702401624,-0.08383668993259895,1.7843418401516078,-1.586307481581686
1.8600892774260684,17.131755643972873,-0.08237794856289751,1.7512238853157875,-1.527932372820646
1.8413123445862123,16.732680543819498,-0.08089972830541751,1.7189943768874947,-1.4724192855706377
1.8228769039216983,16.340920654051605,-0.07940845138600597,1.6876133602246024,-1.4195597485200935
1.8047853233257403,15.956285146301855,-0.07790964075276087,1.6570432289036365,-1.3691649230000387
1.7870387899176492,15.578591591445822,-0.0764080410567268,1.6272485524531946,-1.3210634094099274
1.769637477092314,15.20766547720305,-0.07490772264183888,1.5981959192230808,-1.2750993329225013
1.7525806893140203,14.843339760316784,-0.0734121710824549,1.5698537928314007,-1.2311306689520474
1.7358669877332806,14.48545445034723,-0.0719243644022372,1.5421923808168967,-1.1890277749841107
1.7194942992532152,14.133856222410657,-0.07044683977224636,1.5151835142837358,-1.1486721004557658
1.7034600112906584,13.788398056459595,-0.06898175120650878,1.488800537464626,-1.1099550506273614
1.6877885971975572,13.448942940879647,-0.06729141482045771,1.462983076274044,-1.0659146008630211
1.6725017093841423,13.115359221668864,-0.06563804442662884,1.4377449168631968,-1.0241216645496984
1.6575908171062044,12.787516294241854,-0.06402188842500436,1.4130631477195086,-0.9844324844988095
1.643047354366205,12.465288688623797,-0.06244300496629581,1.3889160315679288,-0.9467142447988333
1.6288627602669918,12.148555808056074,-0.06090129154860135,1.3652829298905302,-0.91084410698496
1.6150285130230753,11.837201684295998,-0.05939651057241297,1.342144233240577,-0.8767083423538836
1.6015361584956205,11.531114748337565,-0.057928311405455034,1.3194812968327532,-0.844201549736845
1.588377333999437,11.230187615393213,-0.05649624943092348,1.297276380944224,-0.8132259493511059
1.5755437880289542,10.934316883078196,-0.055099802486315436,1.275512595708079,-0.7836907444829582
1.5630273964630375,10.643402941830708,-0.05373838504339602,1.2541738499222594,-0.7555115437392139
1.550820175733431,10.357349796683238,-0.05241136043144315,1.2332448035339856,-0.7286098374600911
1.5389142933768996,10.076064899575186,-0.05111805136448266,1.2127108234925366,-0.7029125226324535
1.527302076335246,9.799458991463908,-0.04985774899772123,1.1925579426925086,-0.6783514712937551
1.515976017319098,9.527445953552352,-0.048629720707913604,1.1727728217558129,-0.6548631379867423
1.504928779509573,9.25994266700667,-0.04743321676621652,1.1533427134240428,-0.6323882023240666
1.4941531998357596,8.996868880587218,-0.04626747604955299,1.1342554293537768,-0.6108712431599027
1.4836422910345943,8.738147085662025,-0.0451317309171025,1.1154993091261551,-0.5902604412505692
1.473389242672521,8.483702398113138,-0.04402521136179433,1.0970631912989421,-0.5705073076249312
1.4633874212847084,8.233462446684147,-0.04294714853222832,1.0789363863444559,-0.5515664351840314
1.4536303697670874,7.987357267351538,-0.04189677770795459,1.0611086513304202,-0.533395271313054
1.4441118061386455,7.745319203334031,-0.04087334080023384,1.0435701662131214,-0.5159539095218361
1.4348256217758997,7.507282810382833,-0.039876088441036746,1.0263115116233936,-0.49920489833651405
1.4257658792079642,7.2731847670219985,-0.03890428171492311,1.0093236480360241,-0.4831130658478566
1.4169268095488874,7.042963789432292,-0.037957193581396854,0.9925978962222918,-0.46764535848425387
1.408310992791129,6.816666672546518,-0.03696295213823981,0.9752031201757395,-0.4714484716136818
1.3999191761540515,6.594355292434859,-0.03600936644504308,0.9579393155778146,-0.4777633647202575
1.3917420256195578,6.375999983573216,-0.03509629037664094,0.9408025006103735,-0.4864529153842298
1.383770255072271,6.161571976914903,-0.03422345351281036,0.9237888616358102,-0.4973846496929107
1.3759946535369543,5.951043362155602,-0.03339047288124919,0.9068947449668181,-0.5104304086288782
1.3684061098274445,5.744387051819956,-0.03259686372318264,0.8901166492561873,-0.5254660292180431
1.3609956348232288,5.54157674703135,-0.03184204935695278,0.8734512184708089,-0.5423710390017419
1.3537543815731807,5.342586904834146,-0.031125370208682585,0.8568952354179261,-0.5610283624708651
1.3466736634107506,5.147392706944622,-0.030446092073319185,0.8404456157953215,-0.5813240381636726
1.3397449702509587,4.955970029812992,-0.029803413664001764,0.824099402740607,-0.6031469451829222
1.3329599832267853,4.76829541588414,-0.02919647350272442,0.8078537618581204,-0.6263885379326526
1.3263105878108994,4.5843460459493635,-0.028624356200630974,0.7917059767051603,-0.6509425879107424
1.3197888855580526,4.404099712485188,-0.028086098171949965,0.7756534447224577,-0.6767049314204261
1.3133872045938038,4.227534793878462,-0.027580692821517958,0.7596936735969112,-0.7035732220824024
1.3070981089664977,4.054630229439326,-0.027107095242013934,0.7438242780477449,-0.7314466870390591
1.3009144069715246,3.8853654951053365,-0.026664226453405136,0.7280429770304249,-0.7602258857435776
1.2948291585498128,3.7197205797409048,-0.026250977213654086,0.7123475913559275,-0.7898124702191186
1.2888356818562035,3.557675961936443,-0.025866211426427407,0.6967360417263359,-0.820108945656672
1.282927559087804,3.399212587210915,-0.02550876916834977,0.6812063471912984,-0.8510184301941117
1.2770986416575922,3.244311845520045,-0.025177469355231,0.6657566240336675,-0.8824444126830864
1.271343054794423,3.0929555489700533,-0.02487111206363085,0.6503850850967031,-0.914290507204047
1.265655201647181,2.945125909633422,-0.02458848052108325,0.6350900395696446,-0.9464602030322931
1.2600297669681029,2.800805517358782,-0.024328342775248025,0.6198698932532969,-0.9788566086886696
1.254461720448296,2.6599773174614008,-0.024089453049159326,0.6047231493326256,-1.0113821886266108
1.2489463197771882,2.5226245881738762,-0.02387055278656028,0.589648409689313,-1.043938491011657
1.2434791134971122,2.3887309177283065,-0.023670371388014727,0.5746443767938931,-1.0764258649393845
1.2380559437244623,2.2582801809311803,-0.023487626635027112,0.559709856224596,-1.1087431653118085
1.2326729488099246,2.131256515080473,-0.023321024795735265,0.5448437598685206,-1.1407874434497263
1.227326566012206,2.007644295060498,-0.02316926040181795,0.5300451098704017,-1.172453621358176
1.2220135342625642,1.8874281074338022,-0.023031015682023447,0.5153130434052096,-1.2036341473834022
1.2167308971013233,1.7705927233304166,-0.02290495963311511,0.5006468183633538,-1.2342186308019711
1.211476005872558,1.6571230699127,-0.02278974670397452,0.4860458200515759,-1.264093452666033
1.2062465232693533,1.547004200168434,-0.022684015063022967,0.4715095690289962,-1.293141349994141
1.2010404273296191,1.4402212607552016,-0.022586384412926826,0.45703773021650596,-1.3212409701467551
1.1958560159915244,1.336759457584808,-0.02249545330963699,0.44263012343909663,-1.3482663919638527
1.1906919123283848,1.2366040187970242,-0.02240979593505487,0.4282867355851153,-1.374086609976136
1.185547070595508,1.1397401547264074,-0.02232795826387285,0.41400773459415463,-1.3985649777426425
1.180420783236311,1.0461530144136688,-0.02224845355523177,0.39979348551661475,-1.4215586061338845
1.1753126890122751,0.9558276381530995,-0.0221697570885581,0.385644568923112,-1.442917712197715
1.1702227824413387,0.8687489054991389,-0.022090300050019933,0.37156180198088057,-1.4624849141547438
1.165151424752557,0.7849014780772983,-0.02200846246112512,0.35754626255685085,-1.4800944681298691
1.1600993565918123,0.7042697364567339,-0.021922565023610674,0.34359931675241107,-1.4955714425220008
1.1550677127446527,0.6268377102432474,-0.021830859734298498,0.3297226503213782,-1.5087308265700008
1.150058039178811,0.5525890004425236,-0.021731519099106422,0.3159183044675243,-1.5193765708703357
1.1450723127516729,0.48150669302479443,-0.02162262374557296,0.30218871655619817,-1.5273005596035711
1.1401129639783825,0.41357326249655557,-0.021502148196083537,0.28853676629805897,-1.532281517413579
1.1351829033164444,0.3487704641570275,-0.02136794451642132,0.27496582795873253,-1.5340838588079115
1.1302855514955275,0.28707921359574584,-0.021217723491552504,0.26147982909588724,-1.5324564954129398
1.125424874511053,0.22847945188752306,-0.02104903289518117,0.24808331619298066,-1.527131627590003
1.1206054240136576,0.1729499948860962,-0.02085923229956246,0.23478152729765814,-1.5178235634964725
1.115832383973943,0.12046836504652703,-0.02064546369795549,0.22158047130731895,-1.5042276331277724
1.1111116246991546,0.07101060437872775,-0.02040461695237864,0.20848701276052545,-1.486019300790664
1.1064497655511634,0.024551067543598037,-0.020133288682327027,0.19550895971883922,-1.4628536320284287
1.1018542481047573,-0.018937805108990347,-0.019827732590769177,0.18265515030369245,-1.4343653477111222
1.0973334220590398,-0.059485733379958106,-0.01948379824155583,0.16993553031341901,-1.4001698094123645
1.0928966470829016,-0.09712485846485919,-0.01909685372486294,0.15736120955527486,-1.3598654410063502
1.0885544151191895,-0.13189001246064436,-0.018661685090024357,0.1449444773645986,-1.3130383211711167
1.084318499789523,-0.16381898330266154,-0.018172361254901587,0.13269874734861664,-1.259270004158301
1.0802021429225959,-0.19295275372533638,-0.017622046283595465,0.12063838676161481,-1.1981500662760562
1.0762202936735832,-0.2193356803691202,-0.017002729794776534,0.10877836666260418,-1.1292954450372175
1.0723899245044233,-0.24301556189075768,-0.016304828197918016,0.0971336465690435,-1.0523793024032961
1.0687304625117906,-0.26404352289138444,-0.015516580433670298,0.08571818821898991,-0.9671727437246626
1.065264397436127,-0.28247361652935865,-0.014623115876446708,0.07454349558949966,-0.8736028139676697
1.0620181641604967,-0.2983620326834995,-0.01360499956381761,0.06361664488131838,-0.7718287545206239
1.05902345585046,-0.31176581493328115,-0.012435942262587558,0.05293798337765219,-0.6623335850708728
1.0563192208031562,-0.32274108904637444,-0.011079145105271698,0.04249918282315863,-0.5460167805627894
1.0539547790981267,-0.33134107829826576,-0.009481217547158463,0.032283332410659754,-0.4242539917271596
1.051994942114044,-0.33761477999683365,-0.007560843183996398,0.022270595402957324,-0.29886533174516305
1.0505295367150227,-0.3416085122071806,-0.0051818124596675185,0.012457510773984087,-0.17192130509670658
1.0496974931276863,-0.34337737650844247,-0.0020533491693438544,0.002923917932627815,-0.04534557737570566
