x,y,v_x,v_y,omega
2.375,32.48,0.0,2.717948717948718,-4.6938775510204085
2.374062532631375,31.942293313459967,-0.00937467368624962,2.659118147451572,-4.424720675905435
2.3713757079584905,31.41613838723693,-0.01749357304259356,2.602431114778789,-4.178390572085593
2.367174692933583,30.901119416863573,-0.02451657720648462,2.54775858895482,-3.9523506826106685
2.3616648936391176,30.396845307055496,-0.030581415738170338,2.4949825091259124,-3.7444002829528378
2.35502604510415,29.902947604563774,-0.035807069611505385,2.443994515791323,-3.552623506697713
2.347415678903835,29.41907866571451,-0.04029659239164209,2.394694872701341,-3.375347078353337
2.3389720735318122,28.944910024020054,-0.04413946132858626,2.346991544243183,-3.2111050973483763
2.329816772892908,28.48013092952756,-0.04741354506045415,2.3007994006817385,-3.0586095654056114
2.320056742693171,28.02444703652323,-0.050186756936918035,2.256039529361583,-2.9167256171879545
2.3097862220722085,27.577579220149097,-0.05251844927270785,2.21263863437976,-2.784450621697003
2.299088317831281,27.139262505646645,-0.054460593136564,2.170528510644742,-2.6608964840909417
2.288036380532314,26.7092450964929,-0.056058779853105735,2.129645580892718,-2.5452746051992854
2.276695195175718,26.287287489771707,-0.0573530737128567,2.0899304863191985,-2.4368830570719053
2.265122013799089,25.87316166882618,-0.05837874005343283,2.0513277231360605,-2.335095613417158
2.25336745293427,25.466650364644416,-0.05916686859475578,2.0137853186816224,-2.2393523382953613
2.241476275229113,25.06754637859932,-0.05974490845681755,1.977254541769316,-2.1491514883925014
2.2294880715347665,24.6756519601408,-0.06013712848664369,1.9416896428158728,-2.064042526253048
2.2174378572623166,24.290778233860614,-0.06036501423785815,1.907047619986009,-1.983620076045071
2.2053565947307723,23.91274467104595,-0.06044761107758355,1.8732880081605998,-1.9075186813550051
2.193271651487028,23.541378601429393,-0.060401821359859005,1.8403726880049565,-1.8354082474064717
2.1812072031172254,23.176514761348603,-0.06024266233816711,1.8082657128029718,-1.7669900689452183
2.169184587839288,22.81799487496359,-0.059983490441208154,1.7769331510471986,-1.7019933606035504
2.1572226191286403,22.465667265554206,-0.059636196665268926,1.7463429430466009,-1.64017221946704
2.1453378617510124,22.119386494245298,-0.059211377111009406,1.7164647700424864,-1.581302960304399
2.133544875831293,21.77901302378938,-0.058718482086186415,1.6872699345167093,-1.525181772881758
2.121856432953903,21.444412905283627,-0.05816594668771192,1.6587312505407878,-1.4716226582821883
2.110283707750187,21.115457485914042,-0.057561305349448644,1.630822943155101,-1.4204556074465438
2.098836447967003,20.79202313600975,-0.056911292482391726,1.6035205558878052,-1.371524990450742
2.0875231256157605,20.473990993858283,-0.05622193103003031,1.5768008656268528,-1.3246881295070636
2.0763510714623146,20.161246726880787,-0.055498610504429016,1.5506418041481203,-1.2798140324616238
2.065326594826845,19.853680307897932,-0.054746155850269984,1.5250223856804066,-1.236782266770649
2.0544550904119734,19.55118580533432,-0.05396888829844396,1.499922639955721,-1.195481956668203
2.0437411336608733,19.253661186313515,-0.05317067921255569,1.4753235502523478,-1.155810888564878
2.033199153460504,18.961010819906974,-0.05224912279113676,1.4511801138130642,-1.1145094750309863
2.0228415519255387,18.67314245801865,-0.051326892558516815,1.4275035050701719,-1.0750836803290762
2.012668263602868,18.38996439382032,-0.050405990668191444,1.40427713691312,-1.0374262033199455
2.00267884767843,18.111388162354828,-0.04948816857618864,1.381485177741794,-1.0014370439885687
1.9928725353846997,17.837328393777423,-0.04857495436111562,1.3591125080322644,-0.96702292768013
1.9832482722449343,17.567702674985345,-0.04766767703653759,1.3371446798885143,-0.9340967808051102
1.9738047557210363,17.302431419062497,-0.04676748820244258,1.3155678793399588,-0.902577252879547
1.9645404687667702,17.041437742011826,-0.04587538134021613,1.2943688911667457,-0.8723882803309747
1.9554537097308782,16.78464734628968,-0.044992209018705806,1.2735350660546876,-0.8434586879972097
1.9465426190043233,16.531988410694268,-0.0441186982468433,1.2530542898994848,-0.8157218246828962
1.9378052027616122,16.283391486194727,-0.04325546418026711,1.232914955095896,-0.7891152295251188
1.9292393541070956,16.038789397318947,-0.04240302236489866,1.2131059336619052,-0.7635803262609571
1.920842871902706,15.798117148746666,-0.041561799678997834,1.1936165520609003,-0.7390621427922309
1.912613477523161,15.561311836780916,-0.04073214411645309,1.1744365675965782,-0.715509053710732
1.9045488297577557,15.328312565394672,-0.03991433353759865,1.1555561462658648,-0.6928725436851789
1.8966465380540563,15.099060366571617,-0.039108583499395964,1.1369658419646964,-0.6711069898226294
1.8889041742777057,14.873498124680129,-0.03831505426410945,1.1186565769501804,-0.6501694613053193
1.8813192831438523,14.651570504638059,-0.03753385707442417,1.1006196234705055,-0.6300195347716383
1.8738893914591,14.433223883642896,-0.03676505977310186,1.0828465864811117,-0.6106191240596199
1.8666120162981312,14.218406286257572,-0.03600869183658411,1.0653293873721212,-0.5919323230650213
1.8594846722260445,14.007067322656567,-0.03526474888428247,1.0480602486379342,-0.5739252605856439
1.8525048776657644,13.799158129850245,-0.034533196718518476,1.0310316794252783,-0.556565966130615
1.8456701604995045,13.594631315717624,-0.03381397494408244,1.0142364619009123,-0.5398242457693295
1.8389780629839887,13.393440905689065,-0.033107000211073406,0.9976676383846685,-0.5236715671808777
1.8324318746331836,13.195718822242423,-0.03235488329697933,0.9795531960817376,-0.5432834036074358
1.826032194485769,13.001608100111874,-0.03164191817716744,0.9615540252237613,-0.5647236379582615
1.8197712629502472,12.811086000363233,-0.030967397178050856,0.9436669722626411,-0.5878767640393459
1.8136414687928932,12.624130402209722,-0.030330544395487206,0.9258890092724665,-0.6126300674927858
1.8076353621087113,12.440719778365224,-0.029730522446332484,0.9082172291725219,-0.6388733728663555
1.8017456659999755,12.260833171310455,-0.02916643864102465,0.8906488413751784,-0.6664987971789137
1.79596528707409,12.084450170388443,-0.02863735061783044,0.8731811678449477,-0.6954005089630001
1.790287324864732,11.91155088964818,-0.028142271475751216,0.8558116395576866,-0.7254744917815757
1.7847050802731916,11.742115946357245,-0.02768017443965242,0.8385377933516626,-0.7566183112242207
1.7792120631204336,11.576126440105586,-0.027249997087928628,0.8213572691649401,-0.788730884389152
1.773801998894649,11.413563932423457,-0.0268506451699163,0.8042678076563637,-0.8217122508510185
1.7684688347739281,11.254410426836788,-0.02648099603729333,0.7872672482103329,-0.8554633441003595
1.7632067449991156,11.098648349282893,-0.026139901710833306,0.7703535273286192,-0.8898857624185599
1.7580101356679234,10.946260528808459,-0.025826191601087505,0.753524677415718,-0.9248815381217403
1.7528736490179322,10.797230178470116,-0.025538674898824207,0.7367788259676943,-0.9603529040678032
1.7477921672632162,10.651540876355522,-0.025276142648335984,0.7201141951782298,-0.9962020562722669
1.742760816046982,10.509176546639733,-0.025037369514005377,0.7035291019796747,-1.032330911419938
1.7377749675708047,10.370121440587624,-0.024821115247768723,0.6870219585413994,-1.068640857990151
1.732830243459797,10.234360117408212,-0.024626125862307623,0.6705912732527284,-1.1050324996324676
1.7279225174223767,10.10187742486061,-0.024451134511895543,0.654235652223289,-1.141405389336479
1.7230479177632072,9.9726584795043,-0.02429486207979909,0.637953801339831,-1.1776577528327685
1.718202829808433,9.846688646477759,-0.02415601746794212,0.6217445289255801,-1.2136861995412085
1.7133838983035243,9.72395351867959,-0.024033297581145075,0.6056067490561087,-1.249385419246607
1.708588029845949,9.60443889521451,-0.023925386994606727,0.5895394855946887,-1.2846478625294058
1.7038123954175535,9.488130758953012,-0.023830957289350314,0.5735418770203038,-1.3193634028099146
1.699054433085013,9.37501525303767,-0.023748666036054942,0.5576131821331334,-1.3534189776779844
1.6943118509411101,9.265078656150799,-0.023677155402972865,0.5417527867355928,-1.3866982069760965
1.6895826303649706,9.158307356337023,-0.02361505035842242,0.5259602114021633,-1.419080984883321
1.684865029685872,9.054687823149951,-0.023560956432563427,0.510235120468536,-1.4504430430123623
1.6801575883429445,8.954206577864067,-0.0235134569967135,0.4945773323903114,-1.4806554812855333
1.6754591316421488,8.856850161460642,-0.02347111001124097,0.4789868316439339,-1.509584263104004
1.67076877622253,8.76260510005945,-0.023432444184945885,0.4634637823680013,-1.5370896710776722
1.6660859363560694,8.671457867425467,-0.023395954479662064,0.4480085439718308,-1.5630257193552914
1.6614103312197637,8.583394844131242,-0.023360096883395846,0.432621688970405,-1.5872395184082593
1.656741993295081,8.49840227290014,-0.023323282363430193,0.4173040233406156,-1.6095705880095812
1.6520812780690206,8.416466209592787,-0.023283869897172228,0.40205660973292906,-1.6298501141600266
1.6474288752330313,8.337572469228029,-0.02324015846272178,0.386880793914648,-1.6479001459162388
1.6427858216014926,8.261706566350096,-0.02319037785266422,0.3717782348646687,-1.663532728571526
1.638153516000955,8.188853648965345,-0.023132678152712513,0.35675093898284516,-1.6765489705748808
1.6335337364156346,8.118998425175459,-0.023065117700492598,0.3418012989160351,-1.6867380431571386
1.6289286597148414,8.052125081530708,-0.02298564930743834,0.3269321375314718,-1.6938761141668364
1.624340884335486,7.988217192019913,-0.022892104486114614,0.3121467575764549,-1.697725221536699
1.619773456349599,7.927257616508662,-0.02278217537275537,0.2974489975360543,-1.6980320977305061
1.6152298994158394,7.869228387343693,-0.02265339396484036,0.28284329411365144,-1.6945269653616852
1.6107142491996163,7.814110582774731,-0.0225031081973911,0.26833475157597897,-1.686922337231309
1.6062310929553365,7.761884185830237,-0.02232845424540625,0.2539292178689494,-1.6749118731837098
1.6017856151066874,7.7125279273594955,-0.022126324241085946,0.23963336683844896,-1.6581693741338797
1.5973836498528804,7.666019112180184,-0.021893328296983434,0.2254547849546705,-1.6363480342844936
1.5930317420960796,7.622333427739591,-0.021625749271026104,0.21140205945127738,-1.6090801315106402
1.5887372183689608,7.5814447355468495,-0.021319488000162253,0.19748486247613573,-1.5759774210775463
1.5845082700081,7.543324847067925,-0.02096999560844616,0.1837140223131207,-1.5366326203410308
1.5803540516768542,7.507943288094054,-0.02057218770400933,0.1701015674256045,-1.4906225468777836
1.5762847996670308,7.475267059224365,-0.02012033239422529,0.15666072127130284,-1.437513718935011
1.572311976489599,7.445260405627376,-0.019607899380093257,0.14340581469858518,-1.3768715675956988
1.5684484515688106,7.417884617407079,-0.019027349827790547,0.13035206750437822,-1.3082748645242213
1.5647087331367553,7.393097893516039,-0.018369834492763536,0.11751517140601346,-1.2313375388092438
1.5611092748924817,7.370855317816154,-0.01762474794997228,0.10491058559282644,-1.145740684390879
1.5576688945358805,7.351109015116297,-0.01677905561603821,0.09255244140574168,-1.0512780446317678
1.5544093628433262,7.333808574404262,-0.015816261309505572,0.08045196571460533,-0.9479180886237124
1.551356256083012,7.318901835880226,-0.014714806293635363,0.06861541952574739,-0.8358838616956351
1.548540218986708,7.3063361142239565,-0.013445564669405281,0.05704179703696117,-0.7157461150742945
1.5459988766673254,7.296059826374702,-0.011967858524420488,0.04572108145558646,-0.5885131211700925
1.5437798103445322,7.288024228263772,-0.010222804703512518,0.03463489965368932,-0.45568070637434066
1.541945455362057,7.282184404541752,-0.008120745121237095,0.023763337566524385,-0.3191836345315508
1.5405823130693777,7.278497393976458,-0.005510677805558516,0.013106768086409194,-0.1811814844834446
1.539824840496339,7.276910475564758,-0.0020640479248260884,0.0027624160306021946,-0.043650607160957894
