x,y,v_x,v_y,omega
2.375,32.48,0.0,3.282051282051282,-6.040816326530612
2.37366376359125,31.86384434718265,-0.014065646407897796,3.2037976949734306,-5.649507980792031
2.3698544674680835,31.262244995181163,-0.026032207520166648,3.1288270629369372,-5.296179288750093
2.363942366686498,30.67459957784149,-0.03620043228600141,3.0569141722175273,-4.976044221353005
2.3562450310551406,30.100346427166535,-0.04482415330722836,2.9878558348872426,-4.685032346005412
2.3470354887950693,29.538960668068917,-0.05211839679878787,2.9214679450876986,-4.41966638460788
2.3365489772326424,28.98995082398381,-0.05826593543728398,2.8575830452818316,-4.176963327133636
2.32498856482509,28.45285584666668,-0.06342261622116281,2.796048294898519,-3.9543540577970973
2.312529853184125,27.92724250145812,-0.06772171684162664,2.736723759928397,-3.7496176436399096
2.299324925111204,27.412703052957042,-0.07127752603122384,2.6794809611355896,-3.560827318470597
2.2855056716392936,26.908853206545793,-0.07418829998888563,2.624201632667043,-3.386305856172324
2.271186605290778,26.41533026937116,-0.07653871420601709,2.570776653381727,-3.2245885272477546
2.2564672464662894,25.931791500788567,-0.07840190499912632,2.5191051211718904,-3.074392213893777
2.241434153792205,25.45791262734994,-0.0798411757807092,2.469093546603111,-2.9345895524000025
2.2261626564207324,24.993386501471484,-0.08091142812952797,2.420655146854314,-2.8041871992550154
2.2107183359778544,24.537921886188123,-0.08166036600603253,2.3737092245495015,-2.6823074950803694
2.1951582975456154,24.091242351060586,-0.08212951222805998,2.3281806188982364,-2.568172940227936
2.179532262328597,23.653085266480076,-0.08235506900371432,2.28399921879138,-2.461093006374658
2.1638835091673543,23.223200885414045,-0.08236864848304874,2.2410995292720974,-2.3604528963363265
2.14824968757325,22.80135150313192,-0.08219789461278357,2.1994202842239603,-2.2657039345964947
2.1326635212730176,22.387310686700346,-0.08186701381072037,2.1589040992662927,-2.1763553275172773
2.117153418212839,21.980862567090853,-0.08139722892799833,2.1194971597809946,-2.0919670777893624
2.1017440004581114,21.581801187634454,-0.08080716849018872,2.0811489397600313,-2.0121438746477227
2.0864565653387452,21.189929903316887,-0.08011320118734867,2.0438119477933023,-1.9365298114827905
2.071309487452754,20.80506082605777,-0.07932972392834836,2.0074414970395225,-1.8648038070864417
2.056318569690141,20.427014311675414,-0.07846941041495009,1.9719954964589506,-1.7966756269664255
2.0414973502240765,20.055618484721307,-0.07754342606993793,1.9374342609526922,-1.7318824177934973
2.0268573713959386,19.690708797786428,-0.07656161422624871,1.9037203383618162,-1.6701856817883816
2.012408415561548,19.332127622245665,-0.0755326577147075,1.8708183515409487,-1.6113686292495237
1.9981587122406044,18.979723867724637,-0.07446421934785695,1.8386948539435657,-1.555233856898674
1.9841151202975436,18.63335262785208,-0.07336306426330765,1.8073181973465062,-1.5016013076263324
1.9702832883614185,18.292874850106223,-0.07223516664327151,1.7766584105046275,-1.4503064738326659
1.9566677962498442,17.958157027779883,-0.0710858029522496,1.7466870876673706,-1.4011988121081997
1.9432722797849966,17.62907091228045,-0.06991963351982988,1.7173772860108691,-1.35414034166647
1.9300995410677553,17.30549324415064,-0.06874077403007751,1.6887034311450253,-1.3090044028779992
1.9171516460006952,16.98730550134689,-0.06755285825476784,1.660641229947135,-1.2656745555842408
1.9044300106145922,16.674393663446764,-0.0663590931778944,1.6331675900541653,-1.224043599692269
1.8919354775503958,16.366647990577064,-0.06516230749785552,1.6062605454163459,-1.1840127029489442
1.8796683838742003,16.06396281596172,-0.06396499435683496,1.5798991873767396,-1.1454906228354933
1.8676286212524236,15.7662363510853,-0.06276934903029037,1.5540636007960924,-1.1083930112665992
1.8558156893846007,15.473370502554573,-0.0615773022099499,1.5287348047905043,-1.0726417922692213
1.844228743478936,15.185270699818716,-0.060390549428625505,1.5038946976921892,-1.0381646040946098
1.832866636458502,14.901845732979218,-0.05921057710225894,1.479526005881486,-1.0048942983149836
1.82173682092129,14.623010036855597,-0.05794537592102297,1.455586584893491,-0.9700889400810669
1.8108453304147938,14.348680966261856,-0.05670189256841086,1.4320878424090586,-0.9368035381962742
1.8001880091280988,14.078776232746051,-0.055480436765221346,1.409014615652041,-0.9049542490312343
1.78976065255137,13.81321636567003,-0.054281211410872665,1.3863524062008108,-0.8744627291375138
1.7795590264672385,13.55192458947489,-0.05310432631682744,1.3640873432217278,-0.8452557168201897
1.7695788834847626,13.294826707701702,-0.051949810340812745,1.3422061491276016,-0.8172646498020606
1.7598159774019633,13.041850993324488,-0.05081762210970571,1.3206961074746446,-0.7904253155056788
1.7502660756494222,12.792928084986254,-0.04970765949598947,1.2995450329277967,-0.7646775308478033
1.7409249700379996,12.547990888759902,-0.04861976799266968,1.278741243139065,-0.7399648487666526
1.7317884860078587,12.306974485083991,-0.04755374811407819,1.2582735323968426,-0.7162342889908492
1.7228524905532212,12.069816040549252,-0.04650936193473572,1.2381311469162046,-0.6934360908147781
1.7141128989772365,11.836454724235363,-0.04548633886510433,1.2183037616510644,-0.671523485872255
1.7055656806136703,11.606831628319213,-0.04448438075138185,1.1987814585189336,-0.650452489102382
1.697206863636545,11.380889692695806,-0.0435031663762548,1.1795547059379716,-0.6301817062812826
1.6890325390650887,11.158573633371208,-0.042542355428547556,1.160614339584126,-0.6106721566536902
1.6810388640592038,10.939829874403777,-0.04160159200182035,1.1419515442835502,-0.5918871093414053
1.673222064589902,10.724606483185433,-0.04068050767503826,1.1235578369621935,-0.5737919323334499
1.6655784375596516,10.512853108868867,-0.03977872422233549,1.1054250505805834,-0.5563539529770869
1.6581043524391443,10.30452092375991,-0.03889585599352956,1.0875453189873936,-0.5395423289912646
1.65079625247954,10.099562567506212,-0.03803151200230726,1.0699110626304886,-0.5233279291158656
1.643650655552612,9.89793209392478,-0.03718529775482936,1.0525149750687885,-0.5076832225925374
1.6366641546653609,9.69958492032115,-0.03635681684781478,1.0353500102325564,-0.49258217674693683
1.629833418190437,9.504477779162617,-0.0355456723619084,1.018409370383606,-0.4780001620088194
1.6231551898490966,9.312568671976777,-0.034751468073256415,1.001686494730506,-0.46391386376638016
1.616626288479289,9.12381682535495,-0.033973809503664666,0.9851750486571283,-0.4503012005053084
1.610250401815375,8.938391614998725,-0.03314078695858833,0.9666692708820864,-0.48104971517073314
1.6040281616818253,8.756472304076453,-0.03235647760508943,0.9482708440891849,-0.513227705615009
1.597950453004934,8.57803875992209,-0.031619403204293725,0.9299769891146429,-0.546727177771104
1.5920084435590454,8.403071367424307,-0.030928064647163817,0.9117850371778234,-0.5814421044731138
1.5861935875920423,8.231551008372907,-0.03028094553181595,0.8936924265211118,-0.6172681863394501
1.580497628807274,8.063459041406865,-0.029676515360483616,0.8756966994372072,-0.6541026158866126
1.5749126027718445,7.898777282490805,-0.02911323238087854,0.8577954996792359,-0.691843843849536
1.5694308388167397,7.737487985847341,-0.028589546093908208,0.8399865702519503,-0.7303913466759183
1.5640449614903522,7.579573825272806,-0.028103899447015156,0.8222677515852561,-0.7696453941452146
1.5587478916235562,7.425017875763235,-0.02765473072978275,0.8046369800944344,-0.8095068160377993
1.5535328470615681,7.27380359537646,-0.027240475185880943,0.7870922871347564,-0.8498767667457041
1.5483933431153862,7.12591480725429,-0.0268595663528786,0.7696317983617594,-0.8906564866728134
1.543323192783667,6.98133568172625,-0.02651043713890089,0.7522537335123339,-0.9317470592188078
1.5383165067944309,6.8400507184131065,-0.02619152064253376,0.7349564066260156,-0.9730491620767712
1.5333676935150145,6.702044728244232,-0.02590125071974445,0.717738226730561,-1.0144628114983716
1.5284714587782462,6.5673028152978254,-0.025638062298866438,0.700597699021087,-1.0558870980919908
1.5236228056728776,6.435810358366876,-0.025400391441856813,0.6835334265678742,-1.0972199126170532
1.5188170343469327,6.3075529921464515,-0.025186675147037187,0.6665441125944684,-1.138357660121023
1.514049741873857,6.182516587929342,-0.02499535088533749,0.6496285633751004,-1.1791949606328966
1.5093168222331799,6.0606872336868705,-0.024824855858631152,0.6327856918088067,-1.2196243344773514
1.504614466459932,5.942051213400003,-0.024673625965032604,0.6160145217371527,-1.2595358701058286
1.4999391630203167,5.826594985492058,-0.02454009445196974,0.5993141930833061,-1.29881687215369
1.4952876984752081,5.714305160198396,-0.024422690233384586,0.5826839679026039,-1.33735148722536
1.4906571584980002,5.60516847569,-0.02431983584248693,0.5661232374489348,-1.375020304681644
1.486044929319293,5.4991717727464895,-0.02422994498601097,0.5496315303775007,-1.411699929455482
1.4814486996779395,5.39630196774943,-0.02415141965981604,0.533208522223111,-1.4472625236555832
1.4768664633662683,5.296546023738362,-0.024082646778828234,0.5168540463144493,-1.4815753134346632
1.4722965224669502,5.199890919239127,-0.024021994266623558,0.5005681063090718,-1.514500057305718
1.4677374913902006,5.106323614536411,-0.023967806541267723,0.48435089056161656,-1.545892471794831
1.4631883018329819,5.0158310150189855,-0.023918399324191045,0.4682027885691749,-1.5756016100364492
1.458648208796853,4.92839993117645,-0.02387205368769244,0.4521244097732882,-1.6034691886683874
1.4541167978183525,4.844017034769397,-0.023827009243892725,0.4361166050377838,-1.6293288582012881
1.4495939935856703,4.762668810630075,-0.023781456363288225,0.4201804911656091,-1.6530054119686017
1.4450800701382192,4.6843415034771105,-0.023733527294092574,0.4043174788655764,-1.6743139288783997
1.4405756628720727,4.609021059044988,-0.023681286033763606,0.3885293046304704,-1.6930588455895772
1.4360817826046939,4.536693058736358,-0.02362271678075221,0.37281806703930254,-1.709032954570524
1.4315998319877026,4.467342646903344,-0.023555710766524386,0.35718626804504894,-1.722016325983036
1.427131624597677,4.40095444975341,-0.023478051233744402,0.3416368598489847,-1.7317751537792858
1.4226794070835074,4.337512484759284,-0.02338739628383263,0.3261732979839358,-1.7380605302556338
1.4182458848066206,4.277000059335304,-0.023281259262343375,0.31079960121583744,-1.740607159226699
1.4138342514802735,4.219399657433662,-0.023156986278152217,0.2955204188014549,-1.7391320269130948
1.4094482234002719,4.164692812627678,-0.0230117303534414,0.280341105472063,-1.7333330629505452
1.4050920789683294,4.112859966209786,-0.022842421561742154,0.2652678041899403,-1.7228878436223871
1.4007707043507125,4.063880308876762,-0.022645732307909512,0.25030753615767776,-1.707452418389555
1.3964896463045053,4.017731604763384,-0.022418036599534206,0.23546829661470695,-1.686660383243117
1.392255173466737,3.97438999700924,-0.022155361692765628,0.22075915342890476,-1.6601223864003154
1.3880743477781425,3.933829794840502,-0.021853329766123447,0.2061903430841207,-1.627426342095701
1.3839551082692179,3.896023243528056,-0.021507086117292972,0.19177335494162004,-1.588138758956362
1.3799063702791434,3.8609402808535833,-0.021111208515071474,0.177520989000213,-1.5418077775927943
1.3759381444850818,3.8285482873212935,-0.020659589317156543,0.16344736397127246,-1.4879687798137327
1.3720616821814415,3.7988118429142084,-0.020145277036949412,0.14956784031383155,-1.4261538060183652
1.3682896565438232,3.771692511518218,-0.019560255990611657,0.1358988059597356,-1.3559065237735006
1.364636394920071,3.747148686154098,-0.01889512952256829,0.12245725050467701,-1.2768051379923424
1.3611181857685786,3.7251355446254486,-0.018138651019457275,0.10926002874425922,-1.1884963708386624
1.357753697707883,3.7056051858721233,-0.017277012777337033,0.0963226949749384,-1.0907442624816053
1.3545645703675384,3.6885070390287247,-0.01629274869997482,0.08365779811348423,-0.9834975007336336
1.3515762722028082,3.673788649721608,-0.01516302145507986,0.07127261564565333,-0.8669770522706207
1.34881937730482,3.661396926929676,-0.013856924839532131,0.05916657163782581,-0.7417797562440532
1.3463315085863763,3.65127982910273,-0.01233116693356107,0.04732919496159246,-0.6089800272274366
1.3441603786092147,3.64338819328103,-0.010522832826033982,0.0357406557931613,-0.47018894731438476
1.3423688215484577,3.637676816546076,-0.008335662550354143,0.02437909931162316,-0.3275034226030874
1.3410443255599591,3.634102551617282,-0.005606400486473017,0.013244742044116551,-0.18326752907421057
1.3403242034588745,3.6326119036760502,-0.001973832156522661,0.0024462889162342495,-0.03961222109260884
