x,y,v_x,v_y,omega
2.375,32.48,0.0,2.871794871794872,-4.081632653061225
2.3738301659652428,31.827743655943536,-0.010172469867454402,2.7999994243482647,-3.802458662984866
2.370505263032127,31.191638516658013,-0.018739729550943926,2.731349612917141,-3.551911126763768
2.365366553707927,30.570986440627927,-0.025944699355143288,2.665624961257527,-3.326194106043952
2.3587040099182555,29.96513753240326,-0.03199046403330441,2.602626414609127,-3.1221060456630423
2.3507646489832945,29.373485534759904,-0.037047457140268164,2.542173564898343,-2.936933922162435
2.341759380989574,28.79546380585399,-0.04125922106600101,2.4841023386313195,-2.76836842436824
2.3318686595345794,28.23054178587502,-0.04474705245568898,2.4282630524901823,-2.614435556520468
2.3212471650672977,27.678221876920837,-0.047613768998934,2.37451876450271,-2.4734411603627895
2.3100277020445112,27.138036674490106,-0.04994677902529492,2.322743865329738,-2.343925669729317
2.298324454084629,26.60954650032615,-0.05182059453889885,2.2728228665307335,-2.2246270211517243
2.286235712500565,26.092337195209534,-0.05329889749644238,2.2246493518746253,-2.1144501036529935
2.2738461710405766,25.586018137300623,-0.054436245633889,2.1781250647246013,-2.0124414802249313
2.261228861892236,25.090220457224795,-0.05527948609081297,2.1331591098478033,-1.917768381072901
2.2484467939146393,24.604595425599335,-0.05586893110567951,2.089667252112719,-1.8297011751711392
2.2355543428333964,24.128812992365603,-0.05623933916599657,2.0475712977458422,-1.7475986870411349
2.2225984341363274,23.662560460294905,-0.0564207364606914,2.0067985463471842,-1.6708958510130163
2.2096195521668607,23.205541277519465,-0.05643910675206122,1.9672813038740156,-1.599093293776587
2.196652603058504,22.757473936006377,-0.05631697245104426,1.9289564484137292,-1.5317485139295777
2.1837276544019635,22.31809096462382,-0.05607388543191546,1.8917650418693859,-1.4684683891288173
2.170870570664011,21.88713800690845,-0.05572684272419378,1.855651981742518,-1.4089027908723002
2.158103560209495,21.46437297488022,-0.05529063948898721,1.8205656880681758,-1.352739126583129
2.145445647177598,21.04956527130564,-0.05477816948403215,1.7864578212760127,-1.299697660604419
2.1329130793216224,20.64249507371381,-0.05420068143749123,1.7532830273485895,-1.2495274915523158
2.120519681151784,20.242952674246766,-0.053567998300234246,1.720998707147419,-1.202003084460631
2.108277160253485,19.85073787009716,-0.052888705163236696,1.6895648071970009,-1.1569212732612086
2.096195373433996,19.465659399868763,-0.052170310658408985,1.6589436295716793,-1.1140986631456902
2.0842825583336793,19.087534421702436,-0.05141938586608445,1.6290996588311637,-1.0733693738519612
2.072545535287862,18.716188029453022,-0.050641684097541606,1.599999404207201,-1.034583074391823
2.0609898835129465,18.351452803590874,-0.049842244379984024,1.571611255463662,-0.9976032675671292
2.049620095091573,17.993168393842815,-0.04902548102326448,1.5439053510412044,-0.9623057891148146
2.0384397097272298,17.6411811308881,-0.04819526127537195,1.5168534572606633,-0.9285774917216484
2.027451432812744,17.295343664690574,-0.04735497276363597,1.4904288575004172,-0.896315088654217
2.016676862493709,16.955516868236792,-0.04633694305406148,1.4645867638368064,-0.8607011077585827
2.006135135306623,16.621567122014937,-0.04533024987712103,1.4393240728749714,-0.8269081855000969
1.9958234797481178,16.293363792052546,-0.04433632019683454,1.4146179267980163,-0.7948196750869025
1.9857388248480503,15.970781367539765,-0.04335633110809977,1.3904466341826813,-0.7643278162831807
1.9758778538881345,15.653699201127043,-0.04239124245638696,1.3667895954931517,-0.7353329521339063
1.9662370510961544,15.342001265706926,-0.04144182529996139,1.3436272342469808,-0.7077428238422536
1.9568127422090247,15.035575926433154,-0.04050868676203704,1.3209409333510378,-0.6814719351129849
1.947601129680771,14.734315726839835,-0.0395922917445175,1.2987129761560718,-0.6564409783373096
1.9385983232104664,14.438117188022193,-0.03869298191030372,1.2769264918234122,-0.6325763159154131
1.9298003661779108,14.14688061992922,-0.03781099228583262,1.2555654046372227,-0.6098095108124441
1.9212032584994057,13.860509943898847,-0.03694646578812442,1.2346143869312247,-0.5880769011394711
1.912802976350676,13.578912525638756,-0.03609946593996,1.2140588153304446,-0.5673192141573137
1.904595489147365,13.301999017921528,-0.035269988001873746,1.1938847300367732,-0.5474812156306409
1.8965767741243975,13.029683212322375,-0.034457968719582864,1.1740787969123885,-0.5285113909228409
1.8887428288127954,12.761881899381617,-0.033663294859565554,1.1546282721376926,-0.510361654627887
1.8810896816753842,12.4985147366231,-0.03288581068314111,1.1355209692407053,-0.4929870858914543
1.8736134011304633,12.239504123904418,-0.03212532449008405,1.1167452283130634,-0.47634568688644885
1.8663101031643037,11.984775085615336,-0.031381614346086065,1.098289887244164,-0.4603981621835419
1.8591759577087057,11.734255159277986,-0.03065443309389548,1.080144254819738,-0.44510771700011414
1.8522071939383369,11.487874290136105,-0.0299435127354002,1.0622980855444542,-0.4304398725253776
1.8454001046237498,11.245564731351575,-0.029248568261008377,1.044741556060162,-0.4163622967089644
1.8387510496595165,11.007260949454796,-0.028569300993194102,1.0274652430422513,-0.4028446490680637
1.8322564588724752,10.772899534721297,-0.027905401502817204,1.0104601024664348,-0.389858438216942
1.8259128342024438,10.54241911617073,-0.02725655214963007,0.9937174501471762,-0.37737689095473814
1.819722128345195,10.315862399953236,-0.0265756726960116,0.9763409517440801,-0.3832762128504094
1.813684545790367,10.093287350810954,-0.025925045172058188,0.9590942581888011,-0.39161148732342355
1.8077930919730227,9.874664563851411,-0.02530498802224045,0.9419734545028653,-0.4022503060794691
1.802040715770703,9.659965515930988,-0.02471567460662708,0.9249747882834216,-0.4150646402947054
1.7964203414008373,9.449162529163225,-0.024157146000899157,0.9080946618710595,-0.42993052749179245
1.7909248974931058,9.242228736161536,-0.02362932276198411,0.8913296251001385,-0.44672777163624716
1.7855473435656066,9.039138046886144,-0.02313201573800906,0.8746763685989191,-0.46533965515380965
1.7802806941163385,8.839865116972081,-0.022664935994758006,0.8581317176103185,-0.48565266163067794
1.775118040525589,8.644385317421538,-0.022227703924800734,0.8416926263074663,-0.5075562080107158
1.7700525709502495,8.452674705549313,-0.02181985759989188,0.8253561725814391,-0.5309423851474302
1.765077588377724,8.264709997075059,-0.02144086042206902,0.8091195532816406,-0.5557057056039479
1.7601865269949184,8.080468539260057,-0.02109010812406571,0.7929800798922997,-0.5817428576215903
1.7553729670166578,7.899928284989819,-0.020766935165158755,0.7769351746315144,-0.6089524641970625
1.750630648107764,7.723067767706542,-0.020470620564351474,0.760982366962209,-0.6372348462197703
1.7459534815238493,7.549866077097544,-0.020200393208820396,0.7451192905073276,-0.6664917886242753
1.7413355610875791,7.380302835447271,-0.01995543667178862,0.7293436803646002,-0.6966263085082671
1.736771173109727,7.21435817456112,-0.019734893570402062,0.7136533708193212,-0.7275424241534089
1.7322548053576954,7.052012713169365,-0.019537869490743417,0.6980462934568231,-0.7591449238646742
1.727781155168324,6.893247534718661,-0.01936343650379189,0.6825204756797466,-0.7913391335129062
1.7233451367967052,6.738044165457019,-0.019210636292892987,0.6670740396388698,-0.8240306816247529
1.7189418880883598,6.586384552715675,-0.019078482910110488,0.6517052015902026,-0.8571252608132393
1.7145667765584962,6.438251043287835,-0.018965965175659565,0.6364122716953583,-0.8905283842802655
1.7102154049591807,6.29362636179987,-0.018872048731431935,0.6211936542869485,-0.924145136048433
1.7058836164130817,6.15249358896488,-0.018795677756385444,0.6060478486259964,-0.957879913492809
1.7015674991910494,6.014836139601705,-0.018735776348243634,0.5909734501842255,-0.9916361606425002
1.6972633912101647,5.880637740294091,-0.018691249572494684,0.5759691524906654,-1.0253160906060255
1.6929678843290819,5.749882406554878,-0.018660984176049326,0.5610337495894502,-1.0588203953422495
1.6886778285185438,5.622554419348216,-0.018643848959065366,0.5461661391641256,-1.0920479408487576
1.6843903359869046,5.498638300809102,-0.018638694794318327,0.5313653263933792,-1.124895445670798
1.6801027853434691,5.378118788983244,-0.018644354279033968,0.5166304286140799,-1.1572571404451064
1.6758128258864686,5.260980811391416,-0.01865964099923194,0.501960680880069,-1.189024405983183
1.6715183821077089,5.147209457200461,-0.01868334838128537,0.48735544251953783,-1.2200853871674182
1.6672176585124194,5.036789947757523,-0.01871424809949358,0.4728142048103569,-1.2503245796811235
1.6629091448607596,4.929707605214489,-0.0187510880018967,0.4583365999116853,-1.2796223863213927
1.658591621946981,4.825947818935269,-0.01879258950922048,0.44392241121196285,-1.307854639354967
1.654264168043557,4.725496009338887,-0.018837444433596848,0.4295715852783228,-1.3348920850776393
1.6499261661509363,4.62833758878547,-0.018884311154409333,0.41528424562095706,-1.360599826436898
1.6455773122092001,4.534457919059445,-0.018931810078080966,0.4010607085183836,-1.38483671929085
1.6412176244461074,4.443842264943417,-0.018978518296637128,0.38690150118621436,-1.4074547176276992
1.6368474540571851,4.356475743306497,-0.019022963346165406,0.3728073826130789,-1.428298162895042
1.6324674974380669,4.272343267051227,-0.019063615950514073,0.3587793674327526,-1.447203012540453
1.628078810217772,4.191429483172623,-0.019098881617268578,0.34481875325076133,-1.4639960030232693
1.623682823374651,4.113718704080796,-0.019127090931609903,0.3309271518955555,-1.478493743038183
1.619281361755169,4.039194831224425,-0.019146488368235463,0.31710652511637,-1.4905017336641018
1.6148766653605706,3.96784126992679,-0.0191552194108795,0.3033592252978345,-1.4998133138648428
1.6104714138192229,3.8996408342107607,-0.019151315731275202,0.28968804179807234,-1.5062085325838053
1.6060687545249612,3.8345756402479587,-0.019132678131868516,0.276096253530638,-1.5094529531216234
1.6016723349968838,3.7726269869279676,-0.01909705689489172,0.26258768838232055,-1.509296402336613
1.5972863401077384,3.713775221918741,-0.019042029097678916,0.2491667899587877,-1.505471687592656
1.5929155349424788,3.6579995915013335,-0.01896497233935925,0.23583869193172965,-1.4976933199524554
1.5885653141951162,3.6052780724461435,-0.018863034159447414,0.22260929985253236,-1.485656305299041
1.5842417592054907,3.5555871843104967,-0.018733096185121843,0.20948537958788727,-1.469035099412067
1.5799517040018225,3.5089017808672267,-0.018571731672862194,0.19647465035358377,-1.4474828737076322
1.5757028120883296,3.465194820058251,-0.01837515453142297,0.18358587842010846,-1.4206313128936943
1.5715036662630149,3.424437113115438,-0.01813915699305498,0.17082896456088859,-1.3880912750091
1.5673638745731373,3.38659705561944,-0.0178590316145762,0.15821501366519033,-1.3494548034492024
1.5632941967880445,3.351640346741526,-0.017529470864489388,0.14575636788189925,-1.3042992104141613
1.5593066977791556,3.3195297084011273,-0.017144433560631195,0.13346657420852762,-1.252194278299833
1.5554149374247834,3.2902246244817555,-0.0166969608252157,0.12136024248165185,-1.1927140794285744
1.551634211898686,3.263681132707159,-0.01617891331476045,0.1094527294713563,-1.1254555166662261
1.547981869763455,3.2398517194149896,-0.015580583513336202,0.09775956002575534,-1.0500664201837706
1.544477740293436,3.218685390684623,-0.014890107530308236,0.08629547241221944,-0.9662867665168433
1.5411447342776756,3.200128019917372,-0.0140925534763023,0.07507296904212737,-0.8740069047955048
1.5380097145479807,3.1841230931710314,-0.013168487651479465,0.06410030701300894,-0.7733455868296777
1.5351047934431514,3.170612965732115,-0.012091695868775666,0.05337906202104247,-0.6647460857728603
1.5324693145730381,3.159540655295306,-0.010825511697427122,0.04290189829904266,-0.5490775203596618
1.530152963224249,3.15085193353843,-0.00931667394421833,0.032652203934653776,-0.4277076674688514
1.5282208946986604,3.144496875114452,-0.007483921930464394,0.02260917366515297,-0.30248578507363044
1.5267632501568031,3.140428673361395,-0.005191247998730001,0.012766493752728163,-0.17555615157407933
1.5259188727008108,3.1385928343597307,-0.00215116466207163,0.0031973236530472796,-0.048948679407172485
