x,y,v_x,v_y,omega
2.375,32.48,0.0,2.41025641025641,-6.775510204081632
2.3739687143819443,32.02655165337444,-0.010855638084797956,2.3628840805388993,-6.439105024421832
2.3709960843060855,31.581959766617764,-0.020435204818975684,2.317030516899813,-6.126989027651561
2.3663111405549926,31.145944010671112,-0.028879992560952826,2.272609019380747,-5.836818012695259
2.360117709973025,30.718239828686198,-0.03631401356501995,2.2295402646709657,-5.566522301688121
2.3525974705167627,30.298597117846107,-0.04284640176405556,2.187751428382622,-5.3142691614381885
2.343912586275229,29.886779065247556,-0.0485734323573551,2.147175441075837,-5.078431139986859
2.3342079884609914,29.482561114731833,-0.053580228845143206,2.1077503538265066,-4.857559259169971
2.323613356511657,29.085730045680705,-0.05794221272680134,2.069418794080078,-4.650360217565817
2.3122448440021834,28.696083148087645,-0.06172634000449569,2.032127496373213,-4.45567692381625
2.3002065864969343,28.31342748085949,-0.06499216005075883,1.9958268955020797,-4.2724718098244
2.287592022351714,27.937579202440077,-0.06779272568840294,1.9604707720707126,-4.0998124754121195
2.2744850524973392,27.568362964582988,-0.07017537804185671,1.9260159422144065,-3.9368592970565413
2.2609610611592124,27.205611361519153,-0.07218242551737519,1.8924219847733654,-3.782854698091647
2.247087816108839,26.849164427930003,-0.07385173290760787,1.8596510003755653,-3.637113829852311
2.232926264261398,26.49886918009957,-0.07521723390756145,1.8276673978395095,-3.499016455384592
2.2185312361175358,26.154579195417526,-0.07630937813309137,1.7964377040767414,-3.3679998616360036
2.2039520706103954,25.816154226071852,-0.07715552194207119,1.765930394298786,-3.243552654083712
2.189233170291396,25.48345984332836,-0.07778027088950272,1.7361157398431932,-3.12520931080754
2.174414495415394,25.156367109264856,-0.07820578043683099,1.706965671351639,-3.0125453920458045
2.15953200432331,24.83475227322557,-0.07845202053247528,1.6784536553776752,-2.9051733170541696
2.1446180465323876,24.51849649059993,-0.07853700884565731,1.6505545827869452,-2.802738633229361
2.129701714101959,24.20748556181794,-0.07847701673780075,1.6232446675497936,-2.7049167134449243
2.1148091561221944,23.901609689701917,-0.07828675147024906,1.596501354724119,-2.6114098267627335
2.0999638605554,23.600763253526864,-0.07797951765390196,1.5703032365922494,-2.5219445354432914
2.0851869071279694,23.30484459832535,-0.07756736052957518,1.5446299760552609,-2.436269377731874
2.0704971945127855,23.013755838132013,-0.07706119331446708,1.5194622365061639,-2.354152801450784
2.0559116446457084,22.727402672001098,-0.07647091054950479,1.494781617503472,-2.2753813181471667
2.0414551981825064,22.44570126663005,-0.07570221011577777,1.4704963337707209,-2.195879067978675
2.0271491870979563,22.168570686460527,-0.07488738024790892,1.446667668013751,-2.119898757985097
2.0130018027223926,21.895925705706684,-0.07403245528434027,1.4232794978161567,-2.047243304043606
1.9990201458621166,21.62768409181424,-0.07314288008698346,1.400316437893784,-1.9777287530849115
1.9852103333917583,21.363766469522822,-0.07222356696941964,1.3777637967527157,-1.9111832667202957
1.9715775945790082,21.104096192867637,-0.07127894684900402,1.3556075364597426,-1.8474461943312153
1.9581263581796644,20.848599224554484,-0.07031301524935084,1.3338342352576893,-1.7863672267943511
1.9448603312288522,20.597204022190432,-0.06932937370656879,1.3124310527849385,-1.727805622980786
1.9317825703552,20.34984143089604,-0.06833126706871703,1.291385697682355,-1.6716295020175354
1.9188955463570814,20.106444581863983,-0.06732161712200586,1.270686397391933,-1.6177151950482775
1.9062012027023114,19.866948796464573,-0.06630305292820361,1.2503218699702556,-1.5659466508909146
1.8937010085437431,19.631291495530526,-0.0652779382146191,1.2302812977565494,-1.5162148905737862
1.8813960067819426,19.399412113482406,-0.06424839612012492,1.2105543027499894,-1.4684175062496703
1.8692868576516373,19.171252016982557,-0.0632163315672984,1.1911309235642142,-1.4224582004454651
1.85737387826012,18.946754427829262,-0.06218345150130581,1.1720015938388948,-1.3782463620128973
1.8456570784625321,18.725864349824676,-0.06115128321014443,1.1531571219988719,-1.3356966755079958
1.8341361934203724,18.50852849936999,-0.06012119091785304,1.13458867226095,-1.294728761049833
1.8228107131550926,18.29469523955948,-0.05909439082193414,1.1162877467970533,-1.2552668419968966
1.811679909377832,18.08431451756159,-0.05807196472817584,1.0982461689702117,-1.2172394380365108
1.8007428598487518,17.87733780509057,-0.05705487242003764,1.0804560675668486,-1.1805790815125845
1.789998470494723,17.67371804178598,-0.056043962885528105,1.0629098619551816,-1.1452220550227377
1.7794454954919732,17.473409581330237,-0.05503998451184053,1.0456002481052684,-1.1111081485003058
1.769082555500408,17.276368140146147,-0.05404359434673965,1.0285201854114392,-1.0781804341622427
1.7589081542184815,17.08255074852712,-0.05305536651564557,1.0116628842625612,-1.0463850578526528
1.7489206934114272,16.89191570406274,-0.05207579987439846,0.9950217943098782,-1.0156710454454343
1.739126418877198,16.70463901583014,-0.051021826801697395,0.9763117660332402,-1.030950336199573
1.7295283794575074,16.520906110744846,-0.05001016708978265,0.9577188138119415,-1.048067930258887
1.7201186262612755,16.3406950426975,-0.04903986655476582,0.9392397972127843,-1.0668990459774623
1.7108893974573394,16.16398444966347,-0.048109910328771176,0.920871708408574,-1.0873216034552655
1.7018331292247115,15.990753528934128,-0.04721922896204846,0.9026116676897799,-1.1092159482384587
1.6929424655944652,15.820982013156389,-0.04636670398791418,0.8844569194443034,-1.1324645809155867
1.6842102672818917,15.654650147092646,-0.045551172986542196,0.8664048285950942,-1.1569518914641201
1.6756296196010476,15.491738665014697,-0.044771434180237775,0.8484528774885635,-1.1825638972122883
1.6671938395479122,15.33222876864643,-0.04402625058961016,0.8305986632300154,-1.2091879832833665
1.6588964821330863,15.17610210557034,-0.043314353776979383,0.8128398954656778,-1.236712644383521
1.650731346040236,15.023340748012732,-0.04263444720039026,0.7951743946144162,-1.2650272267798093
1.6426924786823194,14.873927171921551,-0.04198520919873457,0.7776000905558977,-1.2940216692917657
1.6347741807240002,14.72784423624908,-0.04136529562567713,0.760115021785889,-1.3235862420879012
1.6269710101355657,14.58507516234933,-0.040773342147317745,0.7427173350535753,-1.3536112820370518
1.619277785841072,14.445603513396708,-0.04020796621577362,0.7254052855003441,-1.383986923313447
1.611689591021403,14.309413173728352,-0.03966776872810914,0.7081772373244432,-1.414602821893198
1.6042017761313945,14.176488328007398,-0.03915133537724467,0.6910316650013887,-1.445347872508183
1.5968099616891878,14.046813440098141,-0.038657237698613886,0.6739671550960391,-1.4761099165405802
1.5895100408955485,13.920373231536665,-0.03818403381337939,0.6569824087089641,-1.5067754392471997
1.5822981821410145,13.797152659471628,-0.03773026886592482,0.6400762446072334,-1.537229254596961
1.5751708314594939,13.677136893939618,-0.037294475150082586,0.6232476030981465,-1.5673541758872909
1.5681247149883024,13.56031129432748,-0.0368751719150892,0.6064955507138466,-1.5970306701760044
1.5611568414967079,13.446661384860054,-0.03647086483854044,0.5898192857853718,-1.6261364944250507
1.5542645050478348,13.336172828935762,-0.03608004514959662,0.5732181449966326,-1.6545463111026024
1.547445287862399,13.228831402113968,-0.0357011883813077,0.5566916110222507,-1.6821312808326065
1.540697063457193,13.124622963536865,-0.03533275272612391,0.5402393213683178,-1.708758629519715
1.5340180001366925,13.023533425544425,-0.03497317696335511,0.5238610785521096,-1.734291187218042
1.5274065649226358,12.925548721213275,-0.034620877921452776,0.5075568617757823,-1.7585868958628046
1.5208615280141142,12.830654769518905,-0.03427424743140516,0.4913268402702063,-1.7814982828568053
1.5143819678797186,12.738837437784934,-0.03393164872012833,0.47517138850842955,-1.8028718974165796
1.5079672770937942,12.650082501042828,-0.03359141218433868,0.4590911035137484,-1.8225477065611315
1.5016171690410816,12.564375597880119,-0.033251830475793734,0.44308682451477405,-1.8403584477054569
1.4953316856281988,12.481702182304488,-0.03291115281770686,0.42715965522869476,-1.8561289350523287
1.4891112061568932,12.40204747109486,-0.032567578459197104,0.41131098908317376,-1.8696753174308023
1.482956457533136,12.325396386049,-0.032219249159297726,0.39554253771534126,-1.8808042860095295
1.4768685260085141,12.25173349047055,-0.03186424057356334,0.3798563631104455,-1.8893122315592243
1.470848870676634,12.181042919167982,-0.03150055239359497,0.36425491375869445,-1.894984352851203
1.4648993389784253,12.113308301165944,-0.03112609706123636,0.34874106521011905,-1.8975937206387437
1.4590221845075817,12.048512674259502,-0.03073868684237902,0.3333181653840017,-1.896900305870547
1.4532200874528778,11.986638390479996,-0.03033601899660969,0.3179900849266064,-1.8926499868879516
1.4474961780704856,11.927667011497267,-0.029915658712781432,0.3027612727863513,-1.8845735591450445
1.4418540636508717,11.871579192971726,-0.029475019388418063,0.28763681695618115,-1.872385783570375
1.4362978595375318,11.818354556913725,-0.029011339699370465,0.2726225099701533,-1.8557845276200422
1.4308322248782077,11.767971551240965,-0.0285216567145675,0.2577249181641688,-1.8344500785464675
1.4254624039578085,11.720407295997802,-0.028002774026476197,0.2429514528165128,-1.808044744493338
1.4201942741985178,11.67563741618735,-0.027451223439740567,0.22831043992510297,-1.7762129099866555
1.4150344022515275,11.633635861976448,-0.026863218107525035,0.2138111833475539,-1.7385817840672562
1.4099901101013463,11.594374718319415,-0.026234593999647983,0.19946401304226452,-1.6947631795381475
1.405069553843786,11.557824008026756,-0.025560735027300403,0.18528030582782415,-1.644356800702866
1.4002818189178112,11.523951495276624,-0.02483647471980443,0.17127245996306187,-1.5869557067519167
1.3956370372815372,11.492722500916948,-0.024055963556765113,0.1574537964545857,-1.5221548713252704
1.3911465346547698,11.464099747098668,-0.023212485146047922,0.14383834900099737,-1.4495640841424162
1.3868230200162066,11.438043257279233,-0.02229819525988304,0.13044049120360302,-1.3688268301463558
1.382680835823177,11.414510348681684,-0.021303743614109822,0.11727433613901807,-1.2796471851223692
1.378736297084881,11.39345576737595,-0.020217716789005143,0.10435283550029989,-1.1818270387362397
1.3750081621901697,11.37483202888302,-0.01902580841848411,0.0916865170568681,-1.0753157599451872
1.3715183008218617,11.358590033223809,-0.017709574405811886,0.07928185830325736,-0.9602730829273709
1.3682926584768371,11.344680008794775,-0.016244555541814188,0.06713945147603262,-0.8371423629595709
1.365362671245769,11.333052778274105,-0.014597415311535775,0.05525244874154665,-0.7067239055416006
1.3627673807811826,11.323661188776914,-0.012721431684110456,0.0436063880710092,-0.5702258646811927
1.3605567126212326,11.316461240055865,-0.010548759473259211,0.03218254583475468,-0.4292554281580655
1.358797000953796,11.311411831720733,-0.007974521236600796,0.020969120850851196,-0.28570411051165556
1.357582256378246,11.308470435846306,-0.004812263769187281,0.00999294098522118,-0.14149108412014474
1.3570701458307128,11.307572783360435,-0.0005783735732675221,-0.0005439674497112121,0.0017665823021066618
