x,y,v_x,v_y,omega
2.375,32.48,0.0,2.4615384615384617,-5.428571428571429
2.374143875154559,32.016928745741005,-0.009011840478323355,2.4128957938193683,-5.154722723085995
2.3716777821227466,31.56295224049363,-0.016947033540758293,2.3658042614161388,-4.900972160252719
2.367794804973988,31.117783866813905,-0.02392641013038601,2.3201786194230762,-4.665359934220621
2.3626664791860152,30.681152559741125,-0.03005596658511521,2.275940402395655,-4.446156320796403
2.3564454163723187,30.252801589717727,-0.03542890513800445,2.233017176798012,-4.241830410176166
2.3492675713350035,29.832487477372002,-0.04012735841268115,2.191341900525392,-4.051023672516755
2.341254206241758,29.419979021585824,-0.04422385309516853,2.1508523709080887,-3.8725275153934167
2.332513597271594,29.01505642545039,-0.04778255711708355,2.11149074630698,-3.705264155646688
2.323142521454233,28.61751050726792,-0.05086034622356045,2.0732031292979762,-3.5482702563699684
2.3132275552444876,28.2271419858223,-0.053507719142180554,2.0359392017085662,-3.4006828811585144
2.3028462113233754,27.843760830821857,-0.05576958529057762,1.9996519035592217,-3.26172739841675
2.292067935970072,27.467185670792198,-0.057685944744193765,1.9642971493845702,-3.1307070331408062
2.280954985923831,27.097243251828782,-0.05929247679518592,1.9298335765461088,-3.0069938156631943
2.269563200812754,26.733767941555985,-0.060621050689835185,1.8962223210622975,-2.8900207190391134
2.257942684856852,26.376601273419084,-0.06170016989860651,1.863426817220892,-2.779274811122164
2.2461384095691703,26.02559152708838,-0.0625553594454105,1.8314126178391257,-2.6742912755097827
2.2341907475115117,25.680593341303478,-0.06320950431941887,1.8001472325282626,-2.574648178673139
2.22213594575486,25.34146735594968,-0.06368314575060051,1.7695999817222734,-2.4799618796930734
2.2100065465041316,25.008079880552557,-0.06399474109917032,1.73974186456322,-2.3898829948684615
2.1978317613359626,24.68030258671291,-0.0641608922499778,1.7105454390120223,-2.3040928426537386
2.1856378046372202,24.35801222229235,-0.06419654668415184,1.6819847127833527,-2.2223003054028063
2.173448191096515,24.04109034540781,-0.06411517479695654,1.6540350438960265,-2.144239053635901
2.1612840014711576,23.729423076507423,-0.06392892652259592,1.626673049792226,-2.0696650863173462
2.149164120311269,23.42290086698617,-0.06364876989728331,1.599876524115695,-1.9983545471890205
2.1371054488573695,23.12141828296145,-0.06328461382797448,1.5736243603550548,-1.9301017827529272
2.1251230959263467,22.824873802970288,-0.06284541702489715,1.5478964816571796,-1.8647176122047973
2.1132305492536947,22.53316962847385,-0.06233928479249158,1.522673776200022,-1.8020277836270584
2.1014398294593217,22.24621150616411,-0.061773555148277134,1.4979380375867521,-1.7418715941672758
2.089769729089968,21.96391292245262,-0.061069606634394646,1.473626001481546,-1.680983528076653
2.0782362908287326,21.686190361351407,-0.06033500664176354,1.4497693785312373,-1.6227927689002124
2.0668449181803834,21.412958807956006,-0.05957417913033473,1.4263522361571739,-1.567148485272459
2.0556002163338905,21.144136206499404,-0.05879110346433052,1.4033593581228214,-1.513909879896396
2.044506072489426,20.879643328146937,-0.05798935805634673,1.380776203482106,-1.4629454150023375
2.0335657283183544,20.619403646320894,-0.05717215953387994,1.3585888683709784,-1.4141321056799598
2.0227818453605093,20.36334321903682,-0.056342397917119945,1.3367840504087338,-1.3673548744323525
2.012156564075608,20.111390577775687,-0.05550266823973665,1.315349015497929,-1.3225059610213314
2.0016915571883622,19.863476622454385,-0.05465529899443058,1.2942715668316036,-1.2794843823082376
1.991388077898473,19.619534522091627,-0.05380237774124578,1.2735400159342345,-1.238195437354953
1.9812470034661214,19.3794996207979,-0.052945774178243074,1.253143155578694,-1.1985502535454011
1.971268874629851,19.143309348746534,-0.05208716094039461,1.2330702344356652,-1.1604653699265493
1.9614539312660395,18.9109031378093,-0.05122803236288252,1.2133109333246956,-1.1238623543569919
1.9518021446567757,18.682222341563442,-0.05036972141884306,1.193855342947502,-1.088667451396647
1.942313246695224,18.457210159398958,-0.049513415018543144,1.1746939429944354,-1.0548112581782967
1.9329867563239835,18.23581156447468,-0.04866016783661967,1.1558175825242902,-1.0222284257752101
1.923822003471983,18.0179732352899,-0.04781091481601662,1.137217461526023,-0.9908573838229473
1.9148181507287352,17.80364349065497,-0.04696648248132938,1.1188851135785192,-0.9606400863711266
1.905974212970894,17.592772227859527,-0.04612759918015558,1.1008123895314053,-0.9315217771355038
1.8972890751347182,17.38531086385111,-0.04529490435853756,1.0829914421361317,-0.9034507724948281
1.8887615083089373,17.18121227924977,-0.04446895696547096,1.0654147115621884,-0.876378260732932
1.8803901843054176,16.980430765036207,-0.04365024307157931,1.0480749117384598,-0.8502581161664349
1.8721736888496818,16.782921971761937,-0.04283918277827005,1.030965017464399,-0.825046726924086
1.864110533519589,16.588642861140023,-0.042036136485865204,1.0140782522399552,-0.8007028352567269
1.8561991665481203,16.397551659884353,-0.041241410582228036,0.997408076767086,-0.7771873893584986
1.8484440699757125,16.2098174735536,-0.04039118491679936,0.9787412530303188,-0.7981832208495351
1.8408466533731727,16.02561914187427,-0.03958162142572644,0.9601885541205047,-0.8208824147782787
1.8333992802595585,15.84493526908102,-0.038811779770212045,0.9417469489663358,-0.8451670318944234
1.8260944981465457,15.66774502351248,-0.03808066352466082,0.9234135307024806,-0.8709215659808961
1.8189250486503443,15.494028114402727,-0.03738722590903512,0.905185512558092,-0.8980326854235005
1.811883876563084,15.323764769412893,-0.03673037500949525,0.8870602241769986,-0.9263889796071647
1.8049641379776613,15.156935712821763,-0.03610897852126883,0.8690351083612151,-0.9558807090695559
1.7981592075539226,14.993522144295369,-0.035521868044402986,0.8511077182323993,-0.9863995583455085
1.7914626850085125,14.833505718156442,-0.034967842959913946,0.833275714808943,-1.0178383904305053
1.7848684009057911,14.676868523074635,-0.034445673910835826,0.8155368649995599,-1.0500910017781704
1.7783704218228347,14.523593062098008,-0.033954105909758676,0.7978890400175578,-1.0830518767251207
1.7719630549577048,14.373662232945108,-0.03349186109161014,0.7803302142235077,-1.1166159402062323
1.7656408522468752,14.227059308475134,-0.03305764112765016,0.762858464407795,-1.1506783075839955
1.759398614054929,14.083767917251176,-0.03265012931388781,0.7454719695286115,-1.1851340303666669
1.7532313924973946,13.943772024108046,-0.03226799234436763,0.7281690109253905,-1.219877836530816
1.7471344944558664,13.807055910632041,-0.031909881776980724,0.7109479730325663,-1.2548038640939707
1.741103484343376,13.673604155454672,-0.031574435196605494,0.6938073446239311,-1.2898053865017272
1.7351341866773415,13.54340161425613,-0.03126027707744098,0.6767457206238673,-1.3247745283001693
1.729222688517368,13.41643339936666,-0.030966019343330688,0.6597618045284385,-1.3596019694580284
1.7233653418256951,13.292684858845206,-0.030690261621647903,0.6428544114868607,-1.3941766365830035
1.7175587658092644,13.172141554904229,-0.03043159118288617,0.6260224721023636,-1.4283853791424745
1.71179984930422,13.054789241537506,-0.03018858255442581,0.6092650370210448,-1.4621126286500292
1.7060857532662164,12.940613841193628,-0.029959796792980463,0.5925812823881896,-1.4952400386157128
1.7004139134332714,12.829601420321683,-0.029743780395911277,0.5759705162638451,-1.527646102880051
1.6947820432321072,12.721738163596793,-0.029539063826869123,0.559432186103421,-1.5592057497608234
1.6891881370040833,12.617010346611597,-0.02934415962601621,0.542965887424952,-1.5897899092394956
1.6836304736330274,12.515404306794977,-0.029157560069307132,0.5265713738026312,-1.6192650502049908
1.6781076206646297,12.416906412290803,-0.02897773433488162,0.5102485683465597,-1.6474926845622462
1.6726184390157104,12.32150302849698,-0.028803125127426343,0.49399757685156787,-1.6743288348112448
1.6671620883817944,12.229180481927834,-0.028632144703268275,0.4778187028236616,-1.6996234615231613
1.6617380334631524,12.139925021020566,-0.028463170229804893,0.4617124646212445,-1.7232198470048548
1.6563460511430879,12.053722773458471,-0.02829453840245356,0.445679614979767,-1.744953931381675
1.6509862387679712,11.970559699529243,-0.028124539230352318,0.42972116322263143,-1.7646535973853725
1.6456590236967068,11.890421540975836,-0.027951408888221833,0.4138384004974513,-1.7821379003718865
1.6403651743083405,11.813293764729252,-0.02777332151563435,0.3980329284139783,-1.79721624060303
1.6351058126809066,11.739161500837792,-0.0275883798257752,0.3823066914961395,-1.8096874757350392
1.6298824291830025,11.66800947382589,-0.027394604362688726,0.3666620138922867,-1.8193389729485039
1.624696899252875,11.599821926629218,-0.02718992121760078,0.35110164080951745,-1.8259456024887528
1.6195515026791831,11.534582536163896,-0.02697214797915674,0.3356287851412439,-1.829268677934092
1.614448945744774,11.472274319501235,-0.026738977646200427,0.32024717972887273,-1.8290548537998141
1.6093923866522095,11.412879529543247,-0.026487960170268873,0.3049611356183635,-1.8250349988721863
1.6043854647210019,11.356379539041047,-0.02621648121086317,0.2897756065100506,-1.8169230750241794
1.5994323339369987,11.302754711788179,-0.02592173756811979,0.27469625930960107,-1.8044150677286934
1.5945377015523272,11.251984259884676,-0.025600708586314504,0.2597295502009403,-1.787188038245164
1.589706872592635,11.20404608615226,-0.02525012256834197,0.2448828048771203,-1.7648994016277642
1.584945801347038,11.158916611157217,-0.024866416858993188,0.2301643003338629,-1.7371865837011848
1.5802611512269613,11.116570584970415,-0.02444568966813189,0.21558334373772212,-1.7036672801689656
1.575660364833208,11.076980884918356,-0.023983640792428495,0.20115034102078003,-1.6639406406271737
1.5711517467466583,11.040118302378918,-0.02347549696072583,0.18687684360487333,-1.6175898409953602
1.5667445625857725,11.005951324467055,-0.02291591525912533,0.17277555546736603,-1.5641867045954174
1.5624491594601246,10.974445920670838,-0.02229885448453693,0.1588602739664808,-1.5032993022797916
1.5582771154235555,10.945565350691897,-0.021617398531978353,0.14514572581185656,-1.4345038223043245
1.5542414294175602,10.919270018551867,-0.020863506794290162,0.13164724408318948,-1.357402456971684
1.5503567693193196,10.895517409990504,-0.02002765213455581,0.11838021445746431,-1.2716495763715288
1.5466398053450936,10.874262165278704,-0.01909828443624426,0.10535920356145709,-1.1769889327972998
1.5431096711495051,10.85545635612285,-0.018061022885739336,0.09259668228963987,-1.0733047528941486
1.5397886184371716,10.839050047772762,-0.016897426717771995,0.08010130034287612,-0.9606886455903538
1.5367029673824488,10.824992222240674,-0.015583110700362342,0.06787581052122574,-0.8395209927635258
1.5338845131970733,10.813232088036102,-0.014084828093065266,0.05591507584268869,-0.7105579258943191
1.5313726502004612,10.803720656957022,-0.012355835029166333,0.04420525130552229,-0.5750012523900423
1.5292176892100828,10.796412150253015,-0.010327964869553898,0.03272639821035361,-0.43450985240383533
1.5274864477187968,10.791264150133795,-0.00789562977556365,0.021463076728799834,-0.29109592036240706
1.526273510292365,10.788233785081356,-0.004872132607929331,0.010435502770546556,-0.14685502271205686
1.5257360634989916,10.787258612347955,-0.0007852020591572395,-0.00017052662948626764,-0.0035728672354122526
