x,y,v_x,v_y,omega
2.375,32.48,0.0,2.0,-4.816326530612245
2.374267405452923,32.06392110720924,-0.006977090924544428,1.9626561218167393,-4.593710247780248
2.3721510452324903,31.65557134022942,-0.013178720698621723,1.926389277991037,-4.385829205689201
2.3688053779386418,31.254730296169804,-0.018684777338033334,1.8911444749577186,-4.19137411217701
2.3643690322286255,30.861188691961203,-0.023566134185929538,1.8568708032194303,-4.009176720845969
2.3589665796267605,30.47474755106475,-0.027885795355640352,1.8235210148420358,-3.8381921550733655
2.3527100841015636,30.095217472954076,-0.03169987631290373,1.791051157640546,-3.677483763945922
2.3457004602044376,29.722417974431032,-0.035058446516866536,1.7594202568646364,-3.5262100999047195
2.3380286664331646,29.356176893585946,-0.03800625606668797,1.7285900368980798,-3.3836136824300347
2.3297767562885143,28.996329848643267,-0.04058336435855293,1.6985246768417404,-3.2490112715800894
2.3210188060418324,28.642719745106913,-0.042825685609844365,1.6691905949330514,-3.1217854229717377
2.311821735377335,28.29519632558828,-0.04476546357584388,1.640556257625379,-3.0013771343919853
2.302246034699631,27.953615757502963,-0.04643168573562662,1.6125920098538313,-2.88727942559528
2.292346410914044,27.617840254491895,-0.047850445555675365,1.5852699235849042,-2.7790317184646454
2.2821723618229566,27.287737727983114,-0.04904526007373061,1.558563662213017,-2.6762149057513547
2.2717686878785273,26.963181465782135,-0.05003734892083116,1.5324483587486712,-2.5784470139604263
2.261175948845086,26.64404983497752,-0.050845879969083504,1.5069005060572083,-2.4853793803265467
2.2504308719163046,26.33022600678647,-0.05148818601931267,1.4818978576670496,-2.396693275787113
2.2395842812901967,26.021603395458733,-0.051812677086479686,1.4573651073590386,-2.3079623336202024
2.228681252074178,25.718079497748583,-0.05202569639941285,1.433338680356655,-2.223449494850724
2.2177440343184927,25.419549982289475,-0.05213828222615885,1.4097995621110326,-2.142902578835714
2.2067926685226165,25.125914412239048,-0.05216043963933214,1.3867296764644654,-2.066087377739104
2.195845191986049,24.83707605448801,-0.05210124166130786,1.3641118259264102,-1.9927861677883718
2.1849178250369063,24.55294170091895,-0.051968919759101305,1.3419296366360525,-1.9227963610187548
2.1740251392470875,24.273421500777516,-0.05177094490583758,1.3201675075680765,-1.8559292826052052
2.163180209503178,23.99842880330616,-0.051514100274255396,1.2988105635876552,-1.7920090606406074
2.152394751592216,23.727880009869068,-0.051204546496809396,1.2778446120037155,-1.7308716167479699
2.1416792467771253,23.461694434866427,-0.050847880313580465,1.257256102307177,-1.6723637472471273
2.131043054674464,23.19979417479872,-0.05044918733081163,1.2370320888138482,-1.6163422857606051
2.1204945156043618,22.942103984897397,-0.050013089527306105,1.217160195960651,-1.5626733391620928
2.110041043456504,22.688551162788443,-0.0495437880713391,1.1976285860293923,-1.5112315896643385
2.099689210004724,22.4390654387004,-0.04904510194561065,1.178425929094832,-1.4618996566281008
2.0894448215042507,22.193578871769,-0.04852050282080114,1.1595413750137684,-1.4145675123645218
2.0793129883183874,21.952025752027147,-0.047973146568376625,1.1409645272895461,-1.3691319468122385
2.069298188243962,21.714342507702224,-0.047405901759483095,1.1226854186621282,-1.325496076508324
2.059404324136099,21.48046761747247,-0.04682137545825979,1.104694488287882,-1.2835688937478242
2.049634776371662,21.250341527361744,-0.04622193658399985,1.086982560385725,-1.2432648522480685
2.0399924506362384,21.023906571976312,-0.04560973708669725,1.0695408242374624,-1.204503486007835
2.0304798214709514,20.80110689981016,-0.044986731154130835,1.0523608154401505,-1.167209058383691
2.0210989719720107,20.581888402365628,-0.04435469264530756,1.0354343983173133,-1.131310238701465
2.0118516299971874,20.366198646854897,-0.043715230924437035,1.0187537494039116,-1.096739803984242
2.002739201198734,20.15398681226513,-0.043069805251307096,1.0023113419272327,-1.0634343636133203
1.9937627991712397,19.945203628585464,-0.04241973786768945,0.9860999312124353,-1.0313341049485778
1.9849284867536825,19.739964388340805,-0.041716570870949474,0.9685594996890831,-1.031056826112044
1.9762396242103863,19.538395578996674,-0.041034500969966616,0.9511434464455021,-1.0331242952048194
1.967691728650464,19.34047145879142,-0.04037402817215001,0.933848174556897,-1.0374060571173065
1.9592802269417606,19.14616702553262,-0.03973551191073844,0.9166702374316863,-1.0437754388686407
1.9510004840577422,18.95545798570739,-0.03911918222277218,0.8996063323324087,-1.0521092632390514
1.9428478291662983,18.768320724899702,-0.03852515007669379,0.8826532944074547,-1.0622875726186163
1.9348175796327294,18.58473227940984,-0.03795341690967561,0.8658080912102853,-1.0741933619485697
1.9269050630970737,18.40467030897575,-0.03740388342990288,0.8490678176858294,-1.0877123196725116
1.9191056377748095,18.228113070500036,-0.03687635773451808,0.8324296916066758,-1.1027325756486763
1.911414711119765,18.055039392689658,-0.036370562789716204,0.8158910494445479,-1.1191444550010878
1.9038277569787132,17.88542865151812,-0.03588614331553852,0.7994493426653655,-1.136840236907099
1.8963403313585894,17.719260746422158,-0.03542267211421087,0.7831021344390203,-1.1557139173315838
1.8889480869194721,17.556516077146487,-0.03497965587738341,0.766847096757832,-1.175660974723957
1.881646786299393,17.397175521151055,-0.03455654050432245,0.750682007960545,-1.1965781376931717
1.8744323143706438,17.241220411495718,-0.034152715959956406,0.7346047506617146,-1.218363153667842
1.867300689521489,17.08863251511685,-0.03376752069865971,0.7186133100894447,-1.2409145575334621
1.8602480740520715,16.939394011409497,-0.03340024567674754,0.7027057728377158,-1.2641314392161573
1.8532707837687612,16.793487471027017,-0.03305013797382414,0.6868803260430363,-1.287913209152265
1.8463652968572726,16.650895834807613,-0.03271640404035496,0.6711352569988965,-1.312159360544969
1.8395282621114954,16.511602392734044,-0.032398212586092476,0.6554689532255683,-1.336769227262906
1.8327565065922244,16.37559076282855,-0.03209469712125185,0.6398799030172229,-1.361641736180732
1.8260470427877369,16.242844869879956,-0.03180495815957978,0.6243666964932145,-1.38667515269776
1.8193970753465667,16.113348923893664,-0.03152806508965968,0.6089280271857574,-1.4117668180975755
1.812804007451771,15.987087398147928,-0.03126305771792003,0.5935626942022033,-1.4368128773287663
1.8062654469055874,15.864045006730983,-0.03100894748382887,0.5782696050067923,-1.461707995694382
1.799779211993599,15.744206681423478,-0.03076471834463183,0.5630477788742082,-1.4863450628354984
1.7933433371984253,15.627557547778746,-0.030529327323686895,0.5478963510756276,-1.5106148822826253
1.786956078834581,15.514082900239735,-0.030301704712925297,0.5328145778673403,-1.5344058447284301
1.7806159206785253,15.403768176115594,-0.030080753916178295,0.5178018423625697,-1.5576035830477484
1.7743215796711462,15.296598928222732,-0.02986535091600266,0.5028576613789664,-1.5800906069584606
1.7680720117740398,15.192560795974348,-0.029654343342153822,0.4879816933675458,-1.6017459150831688
1.7618664180660466,15.091639474678665,-0.029446549114925585,0.4731737475437076,-1.6224445820422149
1.755704251172712,14.993820682779031,-0.029240754631118,0.4584337943575525,-1.642057318091547
1.7495852221287418,14.899090126738287,-0.029035712454311323,0.443761977459067,-1.660449998725998
1.7435093077822883,14.807433463235025,-0.02883013846429346,0.42915862733390425,-1.6774831616165093
1.7374767588601978,14.718836258300193,-0.028622708412757925,0.41462427680735275,-1.6930114682625965
1.7314881088253844,14.633283942978498,-0.028412053823562135,0.40015967863738044,-1.706883127852642
1.7255441836715169,14.550761765050183,-0.028196757165650118,0.3857658254418201,-1.718939281081885
1.719646112816565,14.471254736294764,-0.02797534621484456,0.37144397222884123,-1.729013342147851
1.7137953412758127,14.394747574719403,-0.027746287506605984,0.35719566182221973,-1.7369302979187933
1.7079936433173109,14.321224641111517,-0.02750797876483975,0.34302275349097877,-1.7425059644832583
1.7022431378290594,14.250669869209176,-0.027258740170887228,0.32892745510272764,-1.745546203121279
1.6965463056585173,14.18306668871628,-0.026996804310469115,0.31491235911534027,-1.7458461004466186
1.690906009222674,14.118397940326378,-0.0267203046023229,0.3009804826932687,-1.7431891214148305
1.6853255147328718,14.05664578186584,-0.026427261967221276,0.28713531216900073,-1.737346249578667
1.679808517435656,13.997791584633706,-0.02611556943483496,0.27338085194653716,-1.7280751371094951
1.6743591703434335,13.941815819017432,-0.025782974300615578,0.25972167773225463,-1.715119298685917
1.6689821170229218,13.888697928523847,-0.025427057323305906,0.2461629936352182,-1.6982073997739258
1.6636825291349076,13.838416191517428,-0.025045208276830957,0.23271069214018394,-1.6770527130378456
1.6584661495904496,13.790947570254005,-0.02463459690848251,0.21937141513050432,-1.6513528493430953
1.6533393424290588,13.746267547311362,-0.024192137961906432,0.20615261289466638,-1.6207899157860894
1.6483091508689078,13.704349950355635,-0.023714448325246298,0.19306259620748795,-1.5850313175057562
1.6433833654828414,13.665166767495574,-0.02319779344681513,0.18011057388833146,-1.5437315094521236
1.6385706052029931,13.628687957476984,-0.022638018742214026,0.1673066643839515,-1.4965351274068786
1.6338804149859318,13.594881261942064,-0.022030459515515022,0.15466186452006536,-1.4430820944841536
1.6293233856898222,13.563712031288272,-0.021369819495052088,0.1421879512303374,-1.3830155201073633
1.6249113043518977,13.535143081735765,-0.020650002770894866,0.12989728260307828,-1.3159934883938462
1.6206573471116201,13.50913460945483,-0.019863875707939144,0.11780245340582715,-1.2417061617057659
1.6165763332666794,13.485644198164838,-0.01900292281530674,0.10591574935600061,-1.1598999534837975
1.6126850685183565,13.464626968857498,-0.018056741454433818,0.09424833928534318,-1.0704107177631388
1.6090028200476776,13.446035931704674,-0.017012291599649985,0.08280915740823055,-0.9732076597450257
1.6055519881899554,13.429822604368372,-0.01585277371199194,0.07160348388989203,-0.8684484057959833
1.6023590732823663,13.41593794424967,-0.01455593969361681,0.06063137438344761,-0.7565424067024059
1.5994560902289958,13.404333579600962,-0.013091517957531043,0.049886384175679685,-0.6382133456721484
1.5968826805790135,13.394963174835329,-0.011417145375634924,0.03935556597320565,-0.5145408344386153
1.594689389644055,13.387783463870974,-0.009471339719205362,0.02902263368730513,-0.38694948065095425
1.592943210535957,13.382753884281069,-0.007158937500777399,0.0188781243117873,-0.2571065940542014
1.5917389639606883,13.37983212809623,-0.004310077501781537,0.00894812506763422,-0.12669926824382793
