x,y,v_x,v_y,omega
2.375,32.48,0.0,2.6153846153846154,-2.979591836734694
2.3745411248048596,32.01384230369777,-0.005098613279337253,2.5641453435290185,-2.829000002969256
2.3732198324153906,31.556764447983987,-0.009582413270317338,2.514497497735234,-2.689484777143606
2.371140535424979,31.108487294988116,-0.013520886623144834,2.4663597577744505,-2.5599696699289107
2.3683959044516385,30.668745836680376,-0.016975013080640068,2.4196564456448666,-2.4395030591694935
2.365068296090109,30.23728822541745,-0.01999841315857977,2.374317012832073,-2.3272416334377297
2.3612309896094588,29.813874891436882,-0.02263832551531047,2.330275586952064,-2.222436291821213
2.356949260559812,29.398277737378685,-0.024936441702983737,2.287470569250124,-2.1244200974630565
2.3522813149098543,28.990279401315835,-0.026929621074324884,2.245844275892653,-2.032597954609612
2.3472791035944263,28.589672580940757,-0.028650504652652006,2.205342617163744,-1.9464377370378423
2.3419890342554432,28.196259412529542,-0.03012804355827247,2.165914809627542,-1.865462642726745
2.336452594388198,27.80985089912501,-0.031387954966670885,2.127513117089478,-1.7892445878097685
2.330706897962239,27.430266383073032,-0.03245311643287882,2.090092616821417,-1.7173984839887593
2.3247851657940513,27.057333058635848,-0.03334390765809644,2.053610988036182,-1.649577269103479
2.3187171484455664,26.690885520910065,-0.034078507325066634,2.018028320028053,-1.5854675815333472
2.3125294991576686,26.330765347709594,-0.03467315142935528,1.9833069377549513,-1.5247859864280724
2.3062461032606065,25.976820711447154,-0.035142358537997055,1.949411242938843,-1.467275676110693
2.2998883696001955,25.62890601837139,-0.03549912657768492,1.9163075690140985,-1.4127035789203304
2.2934754887526334,25.28688157279802,-0.035755105061892,1.8839640484677842,-1.360857820703438
2.2870246621493346,24.950613264219104,-0.03592074608587322,1.8523504912979558,-1.3115454914763567
2.2805513056778306,24.619972275389856,-0.03600543693083651,1.8214382734714731,-1.2645906767552322
2.2740692308503547,24.294834809681767,-0.036017616707785645,1.7912002343961544,-1.2198327189144615
2.2675908062254377,23.9750818361578,-0.03596487912462657,1.7616105825368267,-1.1771246788811498
2.2611271014192407,23.660598850973127,-0.03585406316645174,1.732644808403983,-1.136331972655341
2.2546880157435845,23.35127565383609,-0.03569133322972499,1.7042796042297463,-1.0973311606908889
2.2482823932493843,23.047006138380553,-0.03548225003916832,1.6764927897206832,-1.060008871184066
2.2419181257312606,22.74768809540488,-0.03523183349553762,1.6492632433423413,-1.0242608408824374
2.2356022450563224,22.453223028025782,-0.03494461844821945,1.6225708386476185,-0.9899910592163574
2.229341006013071,22.163515977878475,-0.03462470425457237,1.5963963852113312,-0.9571110034287464
2.223139960731433,21.87847536156947,-0.03427579887474446,1.5707215737776261,-0.9255389539847159
2.2170040255988948,21.598012816655547,-0.033901258153457195,1.5455289252659827,-0.8951993809221416
2.2109375414879935,21.322043056483153,-0.033504120856553354,1.5208017433161711,-0.866022392991694
2.2049443280146885,21.050483733277204,-0.03308713995794695,1.4965240700832563,-0.8379432424588754
2.199029930817616,20.783256358686486,-0.03262838445396791,1.472668980924692,-0.80972678945273
2.193198840165481,20.52028507857932,-0.0321615116808679,1.4492341313771429,-0.7827051609888129
2.1874523715891687,20.261495510803357,-0.031688139167049795,1.4262055105780527,-0.7568143495319685
2.181791564624075,20.00681574193571,-0.031209716000655124,1.4035696990624218,-0.731994422007388
2.176217211642428,19.756176223671886,-0.030727539350978213,1.381313837202298,-0.7081892189966431
2.1707298838624665,19.509509674715126,-0.030242769315264477,1.3594255956505972,-0.6853460791107215
2.165329954819754,19.266750987818895,-0.02975644227042458,1.3378931476408595,-0.6634155861882409
2.1600176215554323,19.027837141660584,-0.029269482888707128,1.3167051430070917,-0.642351337209146
2.154792923749195,18.792707117248014,-0.028782714958373916,1.2958506837992012,-0.622109729029116
2.1496557610008282,18.561301818581903,-0.02829687113459157,1.2753193013798085,-0.602649762230941
2.1446059084428515,18.333563997316944,-0.0278126017318141,1.2551009348975524,-0.5839328605591346
2.1396430308478904,18.10943818118252,-0.02733048265664225,1.2351859110404675,-0.5659227045555502
2.134766695377556,17.888870605940614,-0.026851022569299984,1.215564924980717,-0.5485850781489298
2.129976383104613,17.67180915067374,-0.02637466935228614,1.1962290224289662,-0.5318877270720556
2.125271499426842,17.458203276210057,-0.025901815956283675,1.1771695827230708,-0.5158002280881522
2.1206513834790446,17.248003966505642,-0.02543280568590456,1.1583783028815717,-0.5002938681048716
2.1161153166390054,17.041163672816097,-0.024967936981197175,1.139847182557813,-0.4853415323408517
2.1116625302136534,16.83763626050071,-0.024507467744941825,1.1215685098353516,-0.4709176007876084
2.1072922123831614,16.63737695831265,-0.024051619260519404,1.1035348478097806,-0.456997852279383
2.103003514473072,16.440342310038215,-0.023600579740479556,1.0857390219061538,-0.44355937554638847
2.0987955566176675,16.246490128357017,-0.023154507541789597,1.068174107884936,-0.43058048668345905
2.0946674328717014,16.05577945080302,-0.022713534080053898,1.0508334204928278,-0.4180406525170697
2.0906182158220434,15.86817049771405,-0.022277766471702824,1.0337105027179534,-0.4059204193996668
2.086646960745871,15.683624632064372,-0.021847289930214557,1.0167991156117988,-0.394201347001761
2.0827527093575684,15.502104321081447,-0.021422169939811695,1.000093228642937,-0.38286594670974994
2.07893449318249,15.323573099554078,-0.021002454227731768,0.9835870105500316,-0.37189762427137724
2.0751942078088352,15.148221999486946,-0.020556272146207335,0.9647585457514568,-0.411023789331053
2.0715306310354658,14.976250917517746,-0.020150136446787044,0.9460312539063128,-0.4512604853286801
2.0679366714359655,14.807641866505097,-0.01978274799210217,0.9274026462342085,-0.4925078046409054
2.0644054732150994,14.642377298509423,-0.019452787795298014,0.9088703314955047,-0.5346670563593406
2.060930419517354,14.480440087435053,-0.01915891995742869,0.8904320137752836,-0.5776405485853585
2.057505135236359,14.321813512039899,-0.018899794275852318,0.8720854906153229,-0.6213313707225647
2.054123489382828,14.166481239249755,-0.01867404854115211,0.8538286514973701,-0.6656431747923479
2.050779597065743,14.01442730771344,-0.018480310537574072,0.8356594766839268,-0.7104799547645461
2.0474678211390094,13.865636111533558,-0.018317199759465816,0.8175760364258766,-0.7557458228533277
2.0441827735638247,13.720092384105758,-0.01818332885369856,0.7995764905496763,-0.8013447816772262
2.040919316535394,13.577781181996638,-0.018077304795529558,0.7816590884405391,-0.8471804911211483
2.0376725634215456,13.438687868787198,-0.017997729802787816,0.7638221694421244,-0.8931560286662457
2.0344378795601394,13.302798098804608,-0.017943201990611883,0.7460641636977853,-0.9391736418698352
2.0312108829620263,13.170097800660091,-0.017912315766203564,0.7283835934634997,-0.9851344915809909
2.027987444966654,13.040573160504827,-0.01790366196015037,0.7107790749283118,-1.0309383843668032
2.0247636908983413,12.914210604908671,-0.017915827687774503,0.6932493205845465,-1.0764834924983113
2.0215360007726835,12.7909967832583,-0.017947395930645028,0.6757931421973645,-1.1216660597023185
2.0183010101046936,12.670918549561698,-0.0179969448247958,0.6584094544315386,-1.1663800907242283
2.0150556108730178,12.553962943534607,-0.018063046638272337,0.6410972792028181,-1.2105170225661404
2.011796952698104,12.440117170831464,-0.018144266416327635,0.6238557508321178,-1.2539653750622048
2.008522444296529,12.32936858226818,-0.018239160267833607,0.6066841220932251,-1.296610378228285
2.0052297552789162,12.221704651866478,-0.01834627326119695,0.5895817712590352,-1.338333573574173
2.0019168183651126,12.117112953529062,-0.018464136892180683,0.5725482102677848,-1.3790123862933628
1.9985818320976667,12.015581136131491,-0.018591266079439048,0.5555830941496938,-1.4185196649478746
1.9952232641432626,11.917096896789161,-0.018726155636162926,0.5386862318762108,-1.4567231849453914
1.9918398552817989,11.821647952026584,-0.018867276157878313,0.5218575988190959,-1.4934851117664738
1.9884306241944603,11.72922200653969,-0.019013069256993663,0.5050973510352994,-1.5286614195473867
1.9849948731755727,11.63980671920013,-0.0191619420639798,0.4884058416264614,-1.5621012602700042
1.981532194908555,11.553389665902415,-0.019312260902883276,0.4717836394592866,-1.5936462784717835
1.9780424804641479,11.469958298799291,-0.019462344034972004,0.45523155057542225,-1.6231298660928317
1.974525928699646,11.389499901407472,-0.019610453348385095,0.4387506426669993,-1.6503763518643335
1.9709830572614924,11.312001538993243,-0.019754784853320412,0.4223422730466371,-1.6752001195737576
1.9674147154208,11.237450003565232,-0.019893457821039486,0.4060081205979165,-1.6974046497070376
1.9638220990026953,11.165831752708673,-0.02002450238012268,0.38975022225274847,-1.7167814794980634
1.9602067677066222,11.097132841391655,-0.020145845354025096,0.37357101460302317,-1.7331090775041047
1.9565706651567758,11.031338845759425,-0.020255294088710657,0.357473381310661,-1.746151630753721
1.9529161420709544,10.96843477780925,-0.020350517975971462,0.3414607070246011,-1.7556577456920093
1.9492459829939641,10.908404989709144,-0.02042902732392137,0.32553693853213034,-1.761359069176087
1.94556343711074,10.851233066395288,-0.02048814915634573,0.3097066538440314,-1.7629688435267896
1.9418722537380058,10.796901704966896,-0.020524999429590095,0.2939751398047736,-1.7601804214002317
1.938176723196874,10.745392579312451,-0.020536451027430652,0.27834847857795825,-1.752665783877496
1.9344817239003878,10.696686188379232,-0.020519096711305827,0.2628336429022632,-1.740074131423501
1.9307927766623756,10.650761686588282,-0.020469205933274212,0.24743859921941724,-1.7220306562485548
1.9271161074675736,10.607596695177751,-0.020382674008969957,0.23217241645314304,-1.6981356619755712
1.9234587202709335,10.567167093849783,-0.02025496150925264,0.21704537607985736,-1.6679642808811002
1.9198284818708042,10.529446793184881,-0.020081020714406102,0.2020690757523599,-1.6310671625770377
1.9162342216162855,10.494407490152323,-0.019855204335801558,0.18725651349829278,-1.5869726881191484
1.9126858498132824,10.462018412097958,-0.019571149030900504,0.17262213155020192,-1.5351915238089398
1.9091945004365893,10.432246059424891,-0.019221621821244306,0.15818178703943578,-1.4752246998197067
1.9057727065539627,10.40505396460889,-0.018798310207942027,0.14395259980502315,-1.4065769146565452
1.9024346214168077,10.380402496227159,-0.018291524649334704,0.12995260443640871,-1.3287774541427375
1.8991963056170815,10.358248752373953,-0.017689762014289838,0.11620010504366417,-1.2414119589123185
1.8960761129203323,10.338546608669738,-0.016979045727367307,0.1027126027809312,-1.144169140421413
1.8930952273609583,10.321247010391996,-0.0161419049323461,0.08950515586062942,-1.036906994353222
1.8902784367031205,10.306298618756664,-0.015155769043628661,0.07658808453194928,-0.9197420132395293
1.8876552802861113,10.293648918145347,-0.013990413367585133,0.06396414448267036,-0.7931601345148427
1.8852617976346462,10.283245820128332,-0.012603838315360587,0.05162583348414741,-0.6581360167979757
1.8831432672267314,10.275039578753965,-0.010935388439247004,0.039554626231046656,-0.5162240065962289
1.8813587018000852,10.268984317759614,-0.008893116301264546,0.027726051483951797,-0.3695519871271822
1.8799890745997643,10.265037333189138,-0.006324963702301997,0.016129332632449284,-0.22062610481235922
1.8791570165297118,10.263150648417,-0.002920125964949482,0.0048338315024282485,-0.07187661822398636
