x,y,v_x,v_y,omega
2.375,32.48,0.0,3.282051282051282,-7.755102040816326
2.3732996954952914,31.863886467607777,-0.0178979421548252,3.203354322077354,-7.252163996438739
2.3684517862084253,31.262405013935528,-0.033132681917453194,3.128029400788417,-6.7981739247085535
2.3609260010725097,30.67493799680633,-0.046086108986918645,3.0558339374136496,-6.386927639522204
2.3511252141590044,30.1009114262949,-0.05708006904998184,2.986551015338271,-6.013158912388267
2.3393958486597057,29.53979044646865,-0.06638693620579454,2.9199856144117287,-5.672375991537235
2.326036471232907,28.99107546547588,-0.07423808933945172,2.8559615539331906,-5.3607304462555865
2.3113049304649733,28.454298814143574,-0.08083076084932742,2.79431898640689,-5.0749111570402645
2.2954243153725535,27.92902183976428,-0.08633360854456221,2.7349123228488117,-4.812058048119312
2.2785879512633587,27.414832361614728,-0.09089127681538405,2.677608499778072,-4.56969144997998
2.2609636055985427,26.91134242978924,-0.09462815123530842,2.6222855194375883,-4.345653930399112
2.2426970420712253,26.41818634043824,-0.09765146484171879,2.5688312105729585,-4.138062141072834
2.2239150343219007,25.935018869392884,-0.1000538798880136,2.517142168851825,-3.9452667607447287
2.204727929674673,25.46151369309198,-0.1019156427143827,2.4671228448419074,-3.7658190218443286
2.185231836629601,24.997361971185867,-0.103306389339005,2.418684754169819,-3.5984426194232793
2.1655104965756418,24.54227106952638,-0.10428666386056958,2.371745789614254,-3.442010042525035
2.145636889541239,24.095963405722408,-0.10490919965945994,2.326229618848572,-3.2955225563875947
2.1256746152061585,23.658175402241824,-0.10522000386769982,2.2820651546312734,-3.1580932117726763
2.105679083424752,23.22865653431895,-0.10525927804184775,2.2391860866621096,-3.028932374655595
2.08569854282383,22.807168461793793,-0.10506220196785013,2.1975304662343205,-2.9073353625373186
2.0657749713791036,22.393484235549508,-0.10465960271348256,2.1570403363370834,-2.79267184806161
2.045944849040634,21.987387570494448,-0.10407852716514723,2.117661401084609,-2.6843767504706744
2.0262398293112174,21.58867217810451,-0.10334273314450136,2.079342729335796,-2.58194238380234
2.0066873240562404,21.19714115244132,-0.10247311164472757,2.0420364881714352,-2.4849116700037666
1.987311013639366,20.812606404322473,-0.10148805063816418,2.005697702553292,-2.392872257160956
1.9681312926552963,20.43488813896699,-0.10040374919414687,1.9702840380307087,-2.3054514092649288
1.94916566000447,20.063814372992233,-0.09923448923560342,1.9357556038088688,-2.2223115554892647
1.9304290607728085,19.699220487113074,-0.09799287109767534,1.9020747738664685,-2.143146404736205
1.9119341863003922,19.340948811304024,-0.09669001808565357,1.8692060241235242,-2.0676775459310224
1.8936917379117637,18.98884823953955,-0.09533575442622622,1.8371157839235466,-1.9956514667743608
1.8757106590093466,18.642773871536676,-0.0939387603360579,1.8057723003172665,-1.9268369338541766
1.8579983395771427,18.302586679193194,-0.09250670737135375,1.7751455138246244,-1.861022685538456
1.8405607965854136,17.96815319565107,-0.09104637675210872,1.7452069445135532,-1.7980153962123977
1.8234028333128007,17.63934522512186,-0.08956376295960422,1.715929587372842,-1.7376378764287264
1.806528180197236,17.31603957179424,-0.08806416457265805,1.6872878160758078,-1.6797274786021084
1.7899396194802928,16.998117786305237,-0.08655226402674232,1.6592572943347264,-1.624134682157472
1.7736390956122814,16.685465928400568,-0.08503219774180133,1.6318148941354798,-1.5707218356677635
1.7576278131298841,16.37797434453682,-0.08350761786238041,1.6049386202197753,-1.5193620365965088
1.7419063234981966,16.075537459292164,-0.0819817466816972,1.578607540250287,-1.4699381318828635
1.7264746022193362,15.778053579553795,-0.08045742467472702,1.552801720153615,-1.422341824844708
1.7113321173459155,15.485424710541317,-0.07893715294022946,1.5275021641882498,-1.3764728757893743
1.6964778903958584,15.197556382807008,-0.0774231307445817,1.502690759330774,-1.3322383853621738
1.6819105505421137,14.914357489427235,-0.07591728876852058,1.47835022361419,-1.2895521510720336
1.667639768776783,14.63574414018931,-0.0743014666560116,1.4544218736271506,-1.2448897455455308
1.6536733903808054,14.361635273501427,-0.07271304277533136,1.4309346178242461,-1.2021780093038896
1.6400061698815638,14.091948528189398,-0.07115243616405577,1.4078732275655321,-1.1613092903614766
1.6266327952469233,13.826604372754407,-0.06961992841110784,1.3852231454343913,-1.1221830040239096
1.6135479123367475,13.5655259814006,-0.06811568116969056,1.362970447763573,-1.0847050946872174
1.6007461462194188,13.308639116945034,-0.06663975164429384,1.3411018096634408,-1.048787544121942
1.58822211971582,13.05587202015311,-0.06519210628832678,1.3196044723568223,-1.0143479217603921
1.5759704694910117,12.807155305078183,-0.06377263292018147,1.2984662126424003,-0.9813089729815907
1.5639858599767507,12.56242186001634,-0.062381151440461274,1.277675314324358,-0.9495982418095477
1.5522629953753417,12.32160675371681,-0.06101742331121192,1.2572205414601667,-0.919147724813245
1.5407966299665858,12.084647146515433,-0.05968115993885156,1.2370911132911915,-0.8898935533271758
1.5295815769142493,11.851482206083197,-0.05837203008574245,1.2172766807323256,-0.8617757014046113
1.5186127157461402,11.622053027504435,-0.05708966642066811,1.1977673043072847,-0.834737717176511
1.5078849986621443,11.396302557419808,-0.05583367130560538,1.1785534334256265,-0.8087264755210479
1.4973934558071484,11.174175521988293,-0.05460362190487734,1.1596258869061062,-0.7836919501555231
1.4871331996303654,10.955618358439633,-0.05339907469283924,1.140975834658732,-0.7595870034469572
1.477099428438932,10.740579150004788,-0.05221956942751145,1.122594780444922,-0.7363671924024819
1.4672874292415798,10.529007564026571,-0.05106463264987886,1.1044745456415739,-0.7139905894480725
1.4576925799674707,10.320854793066257,-0.049933780761796186,1.0866072539406832,-0.6924176167361701
1.4483103511358018,10.116073498834353,-0.048826522729457304,1.06898531692146,-0.6716108928410736
1.4391363070433631,9.914617758785322,-0.04774236245410715,1.0516014204367445,-0.6515350908071728
1.430166106529757,9.716443015226638,-0.04668080084700987,1.0344485117599462,-0.6321568066104999
1.4213955033733428,9.521506026802378,-0.04564133764156213,1.017519787442781,-0.613444437179877
1.4128203463650744,9.329764822220724,-0.044623472971790375,1.0008086818377884,-0.5953680672011812
1.4044365791021465,9.141178656103051,-0.04362670874323874,0.9843088562429994,-0.577899363997867
1.396249224818674,8.95592035519907,-0.04255596792489163,0.9657785216936332,-0.6057470447654842
1.3882601643918813,8.774172480408176,-0.04153940498871853,0.9473570024210546,-0.6350967574621418
1.3804592651687093,8.59591462588969,-0.04057532367624965,0.9290414661945908,-0.6658364375891639
1.3728367180998315,8.421126913005239,-0.03966201389088325,0.9108291957469988,-0.6978561579454872
1.3653830400553817,8.249789968814824,-0.038797754998063,0.8927175852047531,-0.731047877405809
1.358089075548712,8.081884905212181,-0.03798081875635413,0.8747041369283407,-0.7653051936856657
1.3509459979359735,7.917393298622095,-0.03720947190405115,0.8567864587567763,-0.8005230990130106
1.3439453101548855,7.756297170183114,-0.03648197842319077,0.8389622616535621,-0.8365977376229773
1.3370788450621645,7.598578966339353,-0.03579660150018779,0.8212293577544345,-0.8734261639812386
1.330338765425672,7.444221539764737,-0.03515160519973353,0.8035856588204936,-0.9109061006214235
1.3237175636244203,7.293208130541931,-0.034545255866074834,0.7860291751037649,-0.9489356944531064
1.3172080611071295,7.1455223475166605,-0.033975823263300835,0.768558014635923,-0.9874132703584665
1.3108034076580568,7.001148149745532,-0.033441581463781254,0.7511703829548919,-1.0262370808473178
1.3044970805173148,6.860069827952422,-0.03294080949139802,0.7338645832883726,-1.0653050504812034
1.298282883401884,6.722271985904307,-0.0324717917236642,0.7166390172181125,-1.1045145137069208
1.2921549454729868,6.5877395216124555,-0.03203281805420227,0.699492185854008,-1.14376194465742
1.2861077202954765,6.456457608258791,-0.03162218381432689,0.6824226915529985,-1.1829426773826186
1.2801359848354024,6.32841167473995,-0.031238189449611417,0.66542924022429,-1.221950614863408
1.274234838542983,6.203587385713007,-0.030879139944277424,0.6485106442698386,-1.2606779250380464
1.2683997025698925,6.081970621016723,-0.030543343982990637,0.631665826217383,-1.2990147219303207
1.262626319172076,5.963547454330357,-0.030229112836132315,0.6148938231127741,-1.3368487298125096
1.2569107513523181,5.8483041309184784,-0.029934758950791687,0.5981937917491094,-1.3740649281626274
1.2512493828005669,5.736227044294186,-0.029658594225538053,0.5815650148224092,-1.4105451749843951
1.245638918194611,5.627302711614892,-0.02939892794241793,0.565006908117519,-1.44616780585008
1.2400763839292526,5.521517747603564,-0.02915406432451293,0.5485190288438149,-1.4808072058018538
1.2345591293486617,5.418858836763853,-0.028922299681706995,0.532101085258406,-1.5143333510089658
1.229084828564309,5.319312703629464,-0.02870191910095422,0.5157529477351503,-1.5466113168299973
1.223651482949849,5.222866080755807,-0.028491192630202545,0.4994746614612293,-1.577500748678679
1.2182574244147566,5.129505674124882,-0.02828837089708536,0.4832664609695455,-1.6068552918490464
1.2129013195705665,5.039218125591994,-0.02809168009438894,0.4671287867450735,-1.6345219762375758
1.2075821749174744,4.951989971954429,-0.027899316253948616,0.4510623041766766,-1.660340551730955
1.2022993431950648,4.8678076001671755,-0.027709438718783116,0.435067925162822,-1.6841427699444724
1.197052531059365,4.786657198168324,-0.02752016270963639,0.4191468327198383,-1.7057516080502642
1.1918418082696556,4.708524700706445,-0.02732955086625052,0.4033005089841748,-1.7249804307030898
1.186667618592979,4.633395729483752,-0.027135603625081012,0.38753076704416445,-1.7416320866637278
1.1815307926626617,4.561255526841997,-0.026936248272996136,0.37183978707956133,-1.7554979377945
1.1764325630602122,4.492088882123618,-0.026729326489630983,0.3562301573244288,-1.7663568198847297
1.1713745819287065,4.425880049740371,-0.02651258015779835,0.34070492039396166,-1.773973937581946
1.1663589414716982,4.362612657878763,-0.026283635179130186,0.3252676255177077,-1.7780997000253989
1.161388197746866,4.302269606672148,-0.02603998297699654,0.3099223871834978,-1.7784685102748092
1.1564653982310655,4.244832954583462,-0.025778959294587785,0.2946739505921302,-1.7747975312673845
1.1515941137177275,4.190283791686507,-0.025497719793182005,0.2795277641126349,-1.7667854652140074
1.146778475215551,4.138602098533429,-0.02519321180867657,0.2644900585513466,-1.7541114040687178
1.1420232166598907,4.0897665893917114,-0.024862141408800307,0.24956793241408887,-1.7364338388625882
1.1373337244419708,4.043754538887569,-0.02450093456930377,0.2347694413137218,-1.7133899594284043
1.132716095032794,4.000541591597589,-0.024105690790453785,0.2201036880544815,-1.6845954392699627
1.1281772023711443,3.9601015550277268,-0.023672126700594417,0.20558090741773555,-1.649644991401076
1.1237247772673737,3.9224061779158923,-0.023195505970674494,0.19121253586471398,-1.6081141114793782
1.1193675019583051,3.887424918193382,-0.02267054991425787,0.17701125068803064,-1.5595626100597872
1.1151151243146098,3.8551247086677023,-0.02209132001937778,0.16299095484542508,-1.5035407960486087
1.1109785983437515,3.8254697341220734,-0.021451058621236977,0.1491666719506849,-1.4395995307267513
1.1069702610226033,3.798421241787949,-0.02074196581190136,0.135554299987456,-1.367305844219318
1.1031040608922122,3.773937418806579,-0.019954877665899252,0.12217015244802171,-1.2862663898841105
1.0993958624503632,3.751973385834404,-0.019078790143038052,0.1090301946275119,-1.196161636869879
1.0958638640432794,3.7324813746908454,-0.018100140457844246,0.09614887004153008,-1.0967941381973028
1.0925291885200008,3.715411176128452,-0.017001707155615386,0.08353743061526064,-0.9881538953635867
1.0894167397291108,3.700710950735594,-0.01576091169585843,0.07120178404641285,-0.8705015870973263
1.086556471381058,3.6883284675340633,-0.01434717617838058,0.05914014439076064,-0.7444641709355369
1.083985304017549,3.6782127245985308,-0.012717743437504078,0.04734136019380328,-0.611124456799579
1.0817500999188072,3.6703156360419023,-0.01081072075977568,0.03578588777069261,-0.47206574203558405
1.0799125512812506,3.664592906497635,-0.00853189647766315,0.02445337059002328,-0.3293107144516285
1.0785584022013082,3.661001944631767,-0.005722304363836507,0.01334622799805107,-0.1850883316397815
1.0778217108902965,3.6594896241048396,-0.0020323410152341924,0.0025729354432867026,-0.04140611886453105
