x,y,v_x,v_y,omega
2.375,32.48,0.0,2.564102564102564,-4.326530612244898
2.374101349024074,31.947319912568464,-0.008558580723105742,2.5090411257215623,-4.080622298797602
2.371524834653866,31.42599432370423,-0.01597965137411428,2.4559644825092204,-3.855373027529327
2.3674942550504943,30.915618825017123,-0.022406821038948956,2.4047545526060907,-3.648508009363428
2.362205321323046,30.4158127661509,-0.027963976365319138,2.3553031508817455,-3.458050880042183
2.355829484189819,29.926217294717368,-0.032758282046369276,2.307510862770955,-3.2822788300524364
2.348517183715798,29.446493615244435,-0.03688267484906886,2.261286084590319,-3.119685323447482
2.3404006185273714,28.97632143535477,-0.04041794599308744,2.2165442000731574,-2.968948977309266
2.331596113061154,28.515397573073898,-0.04343448701850467,2.173206869268472,-2.828907470560517
2.322206147216048,28.063434703662406,-0.0459937591253665,2.131201410840985,-2.6985355799934814
2.3123211014184166,27.6201602279538,-0.04814953418540704,2.0904602625743096,-2.576926619630751
2.3020207609578844,27.185315247064374,-0.049948946391086636,2.050920507801185,-2.4632766992080817
2.2913756160342613,26.758653630679376,-0.051433386214850586,2.0125234577702105,-2.3568713277641833
2.280447987913502,26.339941168028723,-0.05263926255428731,1.9752142817598237,-2.2570739758099707
2.2692930066436503,25.928954792234983,-0.05359865430143922,1.938941678180552,-2.1633162794171428
2.2579594617134195,25.525481870015742,-0.05433986884361714,1.903657581050297,-2.075089625667343
2.246490543676348,25.129319549804883,-0.054887921985636336,1.8693168971483776,-1.9919379041811727
2.2349244919780933,24.740274162264743,-0.055264951331076236,1.8358772699005683,-1.9134512461641007
2.2232951619067296,24.358160667926263,-0.055490573158100256,1.803298866656382,-1.8392606023161906
2.2116325216508095,23.982802147342767,-0.05558219118399656,1.771544186519773,-1.7690330354200319
2.1999630888290187,23.61402932969593,-0.05555526426163079,1.7405778863072532,-1.7024676235167178
2.1883103144933775,23.25168015626589,-0.05542353893494971,1.7103666225502658,-1.6392918861469
2.1766949214603817,22.89559937558489,-0.05519925185548762,1.6808789077449622,-1.579258659841452
2.1651352028548585,22.54563816744592,-0.05489330629235102,1.6520849792928614,-1.522143360426495
2.1536472859299107,22.20165379324341,-0.05451542632619886,1.6239566797786396,-1.4677415791864188
2.1422453655286984,21.863509270389322,-0.05407429178058849,1.5964673474031816,-1.415866967848328
2.1309419109599346,21.531073068780664,-0.05357765649334892,1.5695917155364003,-1.3663493739882187
2.1197478495522306,21.20421882749899,-0.053032452151453795,1.5433058204795271,-1.3190331940368794
2.1086727297190593,20.88282509010206,-0.052444879593033185,1.5175869166340907,-1.2737759157639092
2.0977248659947687,20.566775057026895,-0.051820489209733644,1.492413398367508,-1.2304468260898176
2.08692712223068,20.255959279317498,-0.05101516568635208,1.4677368655314966,-1.1848186484279757
2.076299671941963,19.950272338202762,-0.05019864658713929,1.443567335561227,-1.1413583977050508
2.065844545701835,19.64960972782758,-0.04937398427122491,1.4198860965833455,-1.0999367078581843
2.0555631708916935,19.353870778194946,-0.04854387106345566,1.3966753284893965,-1.0604333971551403
2.0454564431720215,19.062958473516673,-0.047710678647709434,1.3739180493989152,-1.022736712972763
2.035524790145564,18.776779281402533,-0.04687649303283514,1.3515980659738547,-0.9867426469537595
2.0257682280874416,18.495242992113006,-0.04604314561595034,1.3296999272597094,-0.9523543132250831
2.0161864125135844,18.218262567165915,-0.045212240801736324,1.308208881760182,-0.9194813831995011
2.0067786832685925,17.94575399664567,-0.04438518057913721,1.2871108374802545,-0.8880395712154037
1.9975441047350238,17.677636164617006,-0.04356318640723344,1.266392324697504,-0.8579501659127292
1.9884815016967747,17.413830722093167,-0.04274731871894876,1.2460404612438059,-0.8291396028071999
1.9795894913283412,17.15426196705212,-0.04193849431375169,1.226042920099532,-0.8015390740212506
1.970866511728223,16.898856731034044,-0.04113750187785203,1.2063878991202335,-0.7750841715670136
1.962310847367648,16.647544271889572,-0.040345015841907195,1.1870640927318605,-0.7497145609621311
1.9539206517843033,16.400256172281,-0.03956160876137596,1.1680606654450025,-0.7253736822996076
1.945693967814154,16.156926243568854,-0.03878776238290384,1.1493672270516344,-0.7020084761940607
1.9376287456221357,15.917490434743577,-0.03802387754107896,1.1309738093795776,-0.6795691322934919
1.9297228587639363,15.681886746087223,-0.0372702830132025,1.1128708444904656,-0.6580088582823378
1.9219741184858181,15.450055147272984,-0.036527243445066374,1.0950491442165786,-0.6372836675117447
1.914380286447061,15.221937499631483,-0.03579496644785784,1.0774998809405767,-0.6173521835799552
1.9069390860297621,14.99747748233207,-0.035073608954988206,1.0602145695300174,-0.5981754603521732
1.8996482123831329,14.776620522245121,-0.0343632829176721,1.0431850503456739,-0.579716816057715
1.892505341333801,14.559313727267664,-0.033664060409295364,1.026403473249155,-0.5619416802347774
1.8855081372797355,14.345505822909676,-0.032975978200854614,1.009862282541217,-0.5448174524115985
1.8786542601730412,14.135147091952255,-0.03229904186290158,0.9935542027675367,-0.5283133715187821
1.8719468396113244,13.928332973293632,-0.03158115396297142,0.9761040701717393,-0.5397647234815366
1.86538671781247,13.725170963293575,-0.030896196502309698,0.9587722155430924,-0.5532877916819198
1.8589669982456007,13.525636574736826,-0.03024398984882459,0.9415552945211857,-0.5687645306399114
1.8526808324578528,13.329706008676204,-0.02962425574877419,0.9244500965323597,-0.5860802201534356
1.8465214398634564,13.137356126935341,-0.029036626102619638,0.9074535390949259,-0.6051232074204795
1.8404821257639243,12.948564425760416,-0.028480651035781977,0.8905626625710054,-0.6257846578740016
1.8345562977420888,12.763309010529223,-0.027955806315033072,0.8737746253451059,-0.6479583137210504
1.8287374805625196,12.581568571429706,-0.027461500157053252,0.857086699412202,-0.6715402592096937
1.8230193297014932,12.403322360023555,-0.026997079471771355,0.8404962663606496,-0.6964286916728193
1.8173956436211163,12.228550166613218,-0.0265618355794355,0.8240008137377944,-0.7225236974167337
1.8118603748943993,12.057232298332941,-0.026155009436917103,0.8075979317886366,-0.7497270315348169
1.8064076402809457,11.889349557886291,-0.02577579640549908,0.7912853105604292,-0.7779419007322668
1.80103172984649,11.724883222853737,-0.02542335058931626,0.7750607373686411,-0.8070727482471224
1.7957271152136907,11.563815025494684,-0.02509678877067728,0.7589220946223307,-0.8370250399451331
1.7904884570263735,11.406127132968322,-0.024795193965678013,0.7428673580096989,-0.8677050506514353
1.7853106117047939,11.25180212789732,-0.024517618620793998,0.7268945950474464,-0.8990196497601236
1.780188637565419,11.100822989197276,-0.0242630874684892,0.7110019640005892,-0.9308760851333014
1.7751178003752135,10.953173073093037,-0.024030600057277196,0.6951877131826419,-0.9631817642636444
1.7700935784074445,10.808836094240654,-0.023819132969094395,0.6794501806495916,-0.9958440316283985
1.7651116670635916,10.66779610687043,-0.023627641734268057,0.6637877943049337,-1.0287699411074964
1.7601679831240586,10.5300374858625,-0.023455062451758307,0.6481990724372639,-1.0618660222734595
1.7552586686890561,10.395544907661343,-0.023300313119695753,0.6326826247166071,-1.0950380392852463
1.750380094870246,10.264303330929607,-0.02316229467849496,0.6172371536808826,-1.128190741031448
1.7455288652935774,10.136297976834392,-0.023039891765967206,0.601861456749756,-1.1612276010694103
1.7407018194741617,10.01151430885065,-0.022931973180849077,0.5865544288097062,-1.1940505457951653
1.7358960361251357,9.889938011956364,-0.02283739204796886,0.5713150654215738,-1.226559669153697
1.73110883646424,9.77155497108252,-0.022754985674848495,0.5561424667102778,-1.2586529320593562
1.726337787584368,9.656351248667317,-0.022683575085838865,0.5410358420059522,-1.2902258445416748
1.7215807059576895,9.544313061148443,-0.02262196421585878,0.5259945153166367,-1.3211711284622127
1.716835661147178,9.435426754209068,-0.02256893874139477,0.511017931725044,-1.351378358463732
1.7121009798045683,9.329678776572255,-0.02252326452155424,0.49610566481604573,-1.3807335786150126
1.707375250040065,9.227055652114522,-0.022483685616573188,0.48125742525758997,-1.4091188920052964
1.7026573262565814,9.127543950041492,-0.022448921845175298,0.46647307067604593,-1.4364120203256139
1.6979463345501147,9.031130252836796,-0.022417665835460995,0.4517526169877121,-1.4624858302566128
1.6932416787881635,8.93780112165906,-0.022388579516454163,0.4370962513716671,-1.4872078232740142
1.6885430474901004,8.847543058820008,-0.022360289988907954,0.4225043470954995,-1.5104395852986812
1.683850421647314,8.760342466929323,-0.022331384704294976,0.4079774804348478,-1.5320361924810484
1.6791640836370276,8.676185604237851,-0.02230040586986188,0.3935164499601085,-1.551845569352369
1.6744846274022742,8.59505853564966,-0.022265843984932115,0.3791222984988645,-1.5697077956458245
1.6698129700919697,8.51694707880469,-0.022226130398919304,0.3647963381198872,-1.5854543583582434
1.6651503653798363,8.441836744557222,-0.022179628764257168,0.3505401785226783,-1.5989073461874619
1.6604984187097103,8.369712671090763,-0.02212462523694323,0.33635575925312594,-1.6098785844840158
1.6558591047483084,8.300559550818488,-0.022059317252598316,0.3222453861971162,-1.618168710503447
1.6512347873658755,8.23436154912131,-0.02198180067533489,0.3082117728236333,-1.6235661913301849
1.6466282425117753,8.171102213876875,-0.021890055078001472,0.2942580866471904,-1.625846290785974
1.6420426844080753,8.110764374638105,-0.021781926861997206,0.2803880013410912,-1.6247699975380334
1.637481795552545,8.053330030239657,-0.021655109857339646,0.2666057548345914,-1.6200829353502069
1.6329497611077342,7.998780223561081,-0.021507122950382564,0.2529162135327874,-1.6115142892181356
1.6284513083617949,7.947094902182464,-0.021335284153801322,0.2393249424540414,-1.5987757997841403
1.623991752090026,7.898252763771769,-0.021136680339233077,0.22583828050495425,-1.5815609055044157
1.6195770468404067,7.852231085304137,-0.0209081315619034,0.21246341918678655,-1.5595441512118347
1.6152138474379587,7.809005535724431,-0.020646148461410913,0.19920848157231055,-1.5323810382059713
1.6109095793938102,7.768549972563498,-0.02034688053048038,0.18608259615084424,-1.4997085721614034
1.6066725214831197,7.730836224509282,-0.02000605195228682,0.17309595674643866,-1.46114688113653
1.602511903631298,7.695833864310515,-0.01961887996982372,0.16025985467038628,-1.4163024403779396
1.598438024598023,7.66350998006709,-0.01917996796612948,0.1475866619336632,-1.3647736705742317
1.5944623960615107,7.633828958494558,-0.01868316095303346,0.13508973399521382,-1.3061599907985346
1.5905979230466063,7.6067523018330725,-0.01812134395081929,0.12278318659035446,-1.2400758216626573
1.5868591359549682,7.582238511430575,-0.017486152160019863,0.11068148390962797,-1.166171543054712
1.5832624979242413,7.5602430860948004,-0.016767543370712155,0.09879875738345177,-1.0841639507457221
1.5798268247047726,7.5407187013626,-0.015953153957562072,0.08714776387559396,-0.9938791241357395
1.5765738755254897,7.523615653140396,-0.015027314416559943,0.07573840966921923,-0.8953103174278246
1.5735292069299298,7.508882655281404,-0.013969529350678014,0.06457585565450984,-0.7886914897386359
1.570723434862737,7.496468052183257,-0.012752109384490048,0.0536584595659263,-0.674581611473899
1.5681941399941621,7.486321399542046,-0.01133641317336704,0.0429763274932169,-0.5539436596939743
1.565988827259056,7.478395103343285,-0.009666565256214805,0.032512207733076906,-0.4281844439055536
1.564169799635048,7.4726452575395825,-0.007657507353383794,0.022248228492651505,-0.29910240253749903
1.562823370722703,7.469029573979174,-0.005165625145141903,0.01218685303505905,-0.16868548333631778
1.5620840474390278,7.467495341545963,-0.0018755489850975078,0.002424884424094968,-0.03873993339296705
