x,y,v_x,v_y,omega
2.375,32.48,0.0,2.6153846153846154,-4.081632653061225
2.3743766825103836,32.01385428365831,-0.006925749884626681,2.5640122328563657,-3.8752184776613072
2.3725816142407132,31.556810438481534,-0.013019453111708833,2.514252713552225,-3.6840037339426934
2.3697561232324458,31.10858576263807,-0.01837489142459628,2.4660214624862524,-3.5065078578958504
2.366025690240606,30.668912225204064,-0.02307436404029309,2.4192400645582937,-3.341422849879176
2.3615018754538992,30.237535408549626,-0.027190244700890612,2.3738356760465935,-3.1875901899621804
2.3562839860066407,29.814213553257364,-0.030786304713094136,2.329740493867403,-3.043981228242664
2.3504605229003266,29.39871669268254,-0.033918840912617314,2.2868912902973193,-2.9096804682149657
2.34411043958898,28.990825866272804,-0.03663764032456837,2.2452290031441855,-2.7838712688767537
2.337304239277414,28.590332402405267,-0.03898680758172346,2.204698373161801,-2.6658235770226644
2.3301049337025055,28.19703726284584,-0.041005476583925865,2.1652476219429313,-2.554883369929104
2.32256888263306,27.810750442050015,-0.04272842418768735,2.1268281646773515,-2.4504635440643012
2.314746530391557,27.431290415450956,-0.04418660071790385,2.0893943530899706,-2.352036030376394
2.3066830532585016,27.05848363165647,-0.04540758964937655,2.052903244626552,-2.2591249532901947
2.2984189295777875,26.692164044128948,-0.046416006803005026,2.0173143945681113,-2.171300680464961
2.289990442667739,26.332172678474574,-0.047233847753086956,1.982589668258259,-2.088174634947199
2.2814301251997797,25.978357231937487,-0.04788079077979494,1.9486930710427133,-2.009394761628828
2.2727671524882433,25.63057170209586,-0.048374461570607076,1.9155905938642532,-1.9346415567098116
2.2640276911028905,25.288676042101194,-0.048730664933317146,1.883250072743141,-1.8636245828156517
2.2552352083391685,24.952535840099124,-0.04896358799692667,1.8516410606132203,-1.796079404053204
2.2464107473348567,24.622022020727186,-0.049085978717649324,1.8207347101860774,-1.731764885019902
2.2375731719844825,24.297010566808645,-0.049109302953175546,1.7905036666866074,-1.6704608059476658
2.2287393852575894,23.977382259556478,-0.04904388290119193,1.760921969448555,-1.6119657530356393
2.2199245240591923,23.66302243577269,-0.048899019303218376,1.7319649614824828,-1.5560952488266055
2.211142133368695,23.353820760678136,-0.04868309948008656,1.703609206234756,-1.5026800923910122
2.2024043220472005,23.049671015140742,-0.04840369298096271,1.675832410847395,-1.451564883247819
2.1937219024042114,22.750470896186805,-0.048067636385582,1.6486133553074496,-1.402606706494403
2.185104515356176,22.456121829784284,-0.047681108592588874,1.621931826942816,-1.3556739596386982
2.1765607427853437,22.16652879497916,-0.04724969774999306,1.5957685597807711,-1.3106453042085262
2.1680982085129537,21.881600158548537,-0.046778460832119874,1.570105178337275,-1.26740872742444
2.1597236691317154,21.601247519407647,-0.04627197673718957,1.5449241454503992,-1.225860701120605
2.1514430957952873,21.325385562074118,-0.04573439366757133,1.5202087138110039,-1.1859054267310198
2.1432617479339755,21.05393191855204,-0.04516947145811194,1.4959428808787838,-1.1474541565656942
2.1351872616334107,20.786809000026782,-0.04454704299261099,1.4720895471796247,-1.108814617921269
2.1272258260727255,20.523941812310944,-0.04391335212611033,1.4486569829963347,-1.0718115032897215
2.1193792698995755,20.265255883070648,-0.04327060535333487,1.4256311196736535,-1.0363571183657527
2.11164904514483,20.010679218605354,-0.042620780810505576,1.4029984854962687,-1.0023693541989482
2.1040362663224226,19.760142199289085,-0.04196565054957867,1.3807461735733755,-0.9697712745049056
2.096541745721908,19.513577480606585,-0.04130680056724549,1.358861811787735,-0.9384907375596789
2.0891660252763287,19.270919899426858,-0.04064564882808328,1.3373335346537232,-0.9084600494414119
2.081909405347335,19.032106385183212,-0.03998346149406731,1.3161499569423325,-0.8796156457170365
2.07477197073348,18.797075875653512,-0.03932136754876425,1.295300148943213,-0.8518977989682606
2.0677536141755763,18.56576923705659,-0.03866037198350111,1.274773613244814,-0.8252503498143576
2.060854057604576,18.338129188201435,-0.03800136769427819,1.254560262923589,-0.7996204593235059
2.0540728713521244,18.114100228444514,-0.037345146221852,1.2346504010422106,-0.7749583809130709
2.0474094915213894,17.89362856922787,-0.036692407452981426,1.2150347013648757,-0.7512172500253216
2.040863235695695,17.676662068986566,-0.03604376838807039,1.1957041902051773,-0.7283528900312525
2.0344333171445452,17.463150171228516,-0.035399771069146525,1.1766502293287324,-0.7063236329637645
2.028118857670632,17.253043845603433,-0.03476088975210958,1.157864499838873,-0.685090153814453
2.0219188992270944,17.0462955317898,-0.03412753739830894,1.1393389869792747,-0.6646153172474383
2.0158324144215096,16.84285908604034,-0.033500071552631044,1.121065965792487,-0.6448640356906019
2.009858316011628,16.642689730237002,-0.032878799668276296,1.1030379875779595,-0.6258031378606288
2.0039954654875873,16.445744003316218,-0.03226398393217745,1.085247867097412,-0.6074012468646024
1.9982426808261393,16.251979714934315,-0.03165584563946668,1.0676886704792707,-0.589628667098619
1.9925987434941461,16.06135590125121,-0.031054569160457575,1.0503537037774555,-0.5724572792339101
1.987062404771177,15.873832782718367,-0.030460305539201062,1.0332365021430578,-0.5558604426441115
1.981632391454362,15.68937172376415,-0.02987317575874007,1.0163308195704481,-0.5398129046843378
1.976307411002655,15.50793519427642,-0.02929327370467238,0.9996306191820974,-0.5242907162842353
1.9710861561722406,15.329486732788329,-0.02872066885548792,0.9831300640189249,-0.5092711533637939
1.965971413920141,15.154220499002829,-0.02810980061228537,0.9642725335977355,-0.5452363765271554
1.9609628009036362,14.982339371397838,-0.027541455126659432,0.9455177731243946,-0.5823816792344342
1.9560527874370774,14.813825079876295,-0.027014250057324222,0.926863243781632,-0.6206035509922997
1.9512340943861017,14.64865980217473,-0.02652678384240775,0.9083065084579687,-0.6597998269594377
1.9464996963594463,14.486826145769232,-0.02607763867598601,0.8898452293809022,-0.699869461566601
1.941842824395085,14.32830713017453,-0.025665383150252137,0.8714771661157747,-0.7407123026293443
1.9372569681992147,14.173086169570144,-0.025288574581637926,0.8532001739329647,-0.7822288649488092
1.9327358779935682,14.021147055686765,-0.024945761036658458,0.8350122025490501,-0.8243201023665322
1.928273566023902,13.872473940884777,-0.024635483070741725,0.8169112952508145,-0.8668871772013148
1.9238643077803623,13.727051321354907,-0.02435627519081,0.7988955884144338,-0.9098312259491466
1.919502642978701,13.584864020368371,-0.0241066670498731,0.7809633114359713,-0.9530531200703592
1.915183376350071,13.445897171500722,-0.023885184379349243,0.7631127870934646,-0.9964532206208521
1.9109015782863297,13.310136201749415,-0.023690349662218724,0.7453424323654858,-1.03993112540552
1.9066525853874632,13.177566814460267,-0.023520682547409032,0.7276507597361809,-1.0833854072409772
1.9024320009579287,13.048174971971982,-0.023374700002974574,0.7100363790225326,-1.1267133418102677
1.898235695499424,12.921946877881009,-0.02325091620263411,0.692497999766047,-1.1698106234733434
1.8940598072488546,12.798868958820613,-0.02314784213702526,0.6750344342383676,-1.2125710672625072
1.8899007428121397,12.678927845638487,-0.02306398493758444,0.6576446011186041,-1.2548862951405138
1.8857551779470079,12.562110353845949,-0.02299784689721419,0.6403275299095875,-1.296645404429416
1.8816200585511562,12.448403463198694,-0.022947924167804046,0.6230823661710185,-1.3377346161294268
1.8774926019161389,12.337794296253925,-0.022912705110165334,0.6059083776597635,-1.378036900638164
1.873370298312198,12.2302700957312,-0.022890668266956248,0.5888049614816188,-1.4174315781511642
1.869250912975045,12.125818200484108,-0.022880279923633694,0.5717716523749712,-1.4557938907746517
1.8651324885724523,12.024426019866489,-0.022879991216284614,0.5548081322652308,-1.4929945431124083
1.861013348236543,11.926081006250115,-0.022888234738260543,0.5379142412500378,-1.528899207802897
1.8568920992570224,11.830770625419667,-0.022903420589748015,0.5210899901993836,-1.5633679921855854
1.8527676375414392,11.738482324535315,-0.022923931805617824,0.5043355751823205,-1.5962548619750259
1.8486391529611086,11.649203497312218,-0.02294811908694658,0.48765139396320545,-1.6274070175309805
1.8445061357157564,11.562921446019413,-0.022974294750300744,0.4710380648457493,-1.656664218053105
1.8403683838665912,11.47962333984685,-0.023000725795978796,0.4544964481827356,-1.6838580488300439
1.8362260122066068,11.39929616912822,-0.02302562598162313,0.4380276709131381,-1.708811126580598
1.832079462658911,11.321926694837781,-0.02304714677055442,0.421633154536183,-1.731336238005452
1.8279295164191707,11.247501392701075,-0.02306336700433524,0.4053146469827684,-1.7512354070187475
1.8237773080874646,11.176006391171917,-0.023072281125732383,0.38907425889674885,-1.76829888689037
1.819624342068611,11.107427402431231,-0.02307178575042185,0.37291450488864175,-1.782304074906015
1.8154725115593917,11.041749645458246,-0.023059664352013006,0.3568383503667548,-1.793014349437838
1.8113241204872326,10.978957760113353,-0.0230335697830871,0.3408492645764879,-1.8001778329403206
1.807181908819608,10.91903571105889,-0.02299100430163061,0.3249512804731253,-1.8035260899611512
1.803049081729251,10.861966680236844,-0.022929296702335095,0.3091490619940295,-1.8027727776794562
1.7989293431808582,10.807732946534113,-0.022845576057586314,0.2934479791474022,-1.7976122790497175
1.7948269346060246,10.756315751217041,-0.02273674144056585,0.2778541910422896,-1.7877183672195307
1.7907466794633158,10.707695147741369,-0.02259942681175459,0.2623747364651978,-1.7727429772308643
1.786694034653305,10.661849834693193,-0.02242995996614392,0.2470176307367451,-1.752315201060034
1.7826751499958293,10.618756970971738,-0.022224314005805282,0.2317919661682983,-1.7260406805077861
1.7786969373136667,10.578391973008294,-0.021978049129336357,0.2167080112032866,-1.6935016574999235
1.7747671511602157,10.540728295012407,-0.021686241464562783,0.20177729986212772,-1.654258064584228
1.7708944839717216,10.50573719521984,-0.02134339396315046,0.18701269783306435,-1.607850215845063
1.767088679570025,10.473387494284069,-0.02094332161125426,0.1724284236754899,-1.5538039114215443
1.7633606707414216,10.443645336860534,-0.02047899870656158,0.1580399921415627,-1.4916391235507305
1.7597227494844478,10.416473974818441,-0.019942348593147877,0.14386403054835972,-1.4208839157111095
1.7561887831303564,10.391833601256984,-0.019323944230089297,0.12991789791226704,-1.3410958736890344
1.752774496989493,10.369681279403732,-0.018612568446171675,0.11621901156831135,-1.2518940654142936
1.7494978562125563,10.349971029617006,-0.017794551297569624,0.10278376383975453,-1.153005234040706
1.746379598922945,10.332654158902606,-0.016852751920334537,0.0896259107646741,-1.0443281090706362
1.7434440036649994,10.31767993275918,-0.01576497316794873,0.07675437971784449,-0.926018341705302
1.7407200238591334,10.304996679076773,-0.014501469119451379,0.06417066119780047,-0.7985915915433033
1.7382430040921069,10.294553336967613,-0.013020972736399728,0.051866473348423314,-0.6630305918242572
1.7360573450823225,10.286301245472302,-0.011264127372313273,0.03982343215504659,-0.5208609445694621
1.7342208400179349,10.280195483172509,-0.009141484454216567,0.028018371176001124,-0.37413308730312544
1.7328125490116375,10.276194018027184,-0.0065061933935311456,0.016442352660945594,-0.22523087489680083
1.7319514591098097,10.27424951526303,-0.003061472182333694,0.0051632336074290495,-0.0764508860546915
