x,y,v_x,v_y,omega
2.375,32.48,0.0,2.564102564102564,-4.204081632653061
2.3742139089905465,31.972519128973534,-0.007860910094535404,2.510706146162046,-3.9749214986800077
2.3719564487007703,31.475534511668886,-0.014713692803225806,2.459140026884456,-3.7641133255627843
2.3684170237693687,30.98869049260096,-0.02068055651079209,2.40930016379481,-3.569723697827886
2.3637622077871714,30.51165139528767,-0.025867603311178038,2.3610908093380827,-3.3900622785911043
2.358138729438302,30.044099952806956,-0.03036718017751794,2.3144236154690527,-3.2236467643439695
2.3516760264700673,29.585735904880877,-0.03425984950482579,2.269216863791719,-3.069173523802488
2.3444884367881293,29.13627473854749,-0.03761604731455705,2.2253947995421903,-2.925492895079762
2.3366770836723716,28.69544655338358,-0.04049748384302081,2.1828870520969037,-2.79158831990136
2.328331502223287,28.262995035365773,-0.04295833064782435,2.141628128081159,-2.666558653287496
2.319531046154715,27.83867652597793,-0.045046230037895076,2.10155696579724,-2.54960311277303
2.310346107547602,27.42225917522144,-0.046803156033234594,2.0626165417676736,-2.44000843074724
2.3008391768646432,27.013522168861545,-0.04826615079635568,2.024753521831293,-2.337137852794247
2.2910657661597704,26.61225502162464,-0.04946795625236998,1.9879179505377482,-2.2404216884707076
2.281075214814076,26.218256929207364,-0.05043755720457868,1.9520629736350144,-2.149349172168552
2.270911394145055,25.831336172914746,-0.05120064948562518,1.9171445892911774,-2.0634614331816823
2.260613324753635,25.451309571547654,-0.051780044428579995,1.883121424379705,-1.982345407836894
2.2502157184012694,25.07800197583771,-0.05219601909507287,1.849954532719737,-1.9056285541227245
2.2397494544739134,24.7112458013032,-0.052466620178488695,1.8176072126253637,-1.832974251876664
2.2292419996314514,24.350880595890633,-0.052607928246128866,1.7860448415003236,-1.7640777902314957
2.218717778012329,23.996752639187335,-0.052634287945097766,1.755234725532633,-1.6986628594348652
2.2081984983245495,23.648714570353114,-0.05255850893269471,1.725145962809598,-1.6364784769461334
2.197703443274138,23.30662504223244,-0.05239204157141898,1.6957493183971484,-1.5772962883632058
2.1872497260344246,22.97034839938111,-0.0521451308257166,1.6670171101161613,-1.5209081926262242
2.1768525178226907,22.639754377978637,-0.0518269512916243,1.6389231039085652,-1.4671242483964642
2.166525250107056,22.31471782580553,-0.05144572586471934,1.6114424178224773,-1.4157708247697867
2.1562797945013243,21.99511844064704,-0.05100883019259859,1.5845514337624214,-1.366688964759431
2.1461266230066327,21.680840525645696,-0.05052288475431811,1.5582277162510418,-1.3197329344399336
2.1360749509160346,21.37177276026706,-0.04999383615166348,1.532449937535317,-1.2747689344191866
2.126132864403043,21.067807985669006,-0.04942702897825069,1.5071978084452469,-1.2316739535113914
2.1163074345606128,20.768843003376666,-0.04882726944605339,1.4824520144781363,-1.190334747212336
2.106614672778459,20.474780919702177,-0.04810034837548508,1.4581688222667484,-1.1476586348225073
2.097068431839685,20.18552829125029,-0.04736206101225404,1.4343574622521456,-1.1069292682431982
2.0876707142539463,19.90099243341586,-0.046615114845133546,1.4110011160921554,-1.0680348161406608
2.0784230114866604,19.621083948348886,-0.04586191282772286,1.388083734577586,-1.0308710877255662
2.069326361667837,19.34571657556897,-0.04510458536051669,1.3655899932215663,-0.9953409277920648
2.0603814012503165,19.074807051154966,-0.04434501881468411,1.3435052509184808,-0.9613536660559522
2.0515884112696106,18.808274974920728,-0.043584880992375646,1.321815511423919,-0.9288246153529824
2.042947358783329,18.546042685035314,-0.04282564387043759,1.3005073874302029,-0.8976746138589613
2.034457934003018,18.288035139589017,-0.04206860393267198,1.2795680670327683,-0.8678296070214271
2.0261195835738124,18.034179804645618,-0.04131490035938518,1.2589852824012084,-0.8392202653579544
2.017931540406755,17.784406548356955,-0.04056553131119043,1.2387472804854398,-0.811781634686515
2.0098928504240114,17.538647540748173,-0.03982136851624687,1.2188427956023953,-0.7854528157159077
2.002002396537807,17.29683715881172,-0.03908317034579618,1.1992610237621155,-0.7601766702450607
1.9942589201490735,17.058911896575083,-0.038351593541539504,1.1799915986042404,-0.7358995515042284
1.9866610404209506,16.824810279831972,-0.03762720373968886,1.1610245688268583,-0.7125710564232742
1.979207271554973,16.59447278524933,-0.03691048492008897,1.1423503769995702,-0.6901437978362559
1.9718960382735293,16.367841763583215,-0.03620184789434582,1.123959839661591,-0.6685731948308206
1.9647256896906784,16.144861366755674,-0.03550163793416389,1.1058441286138343,-0.6478172796284287
1.9576945117342752,15.925477478562161,-0.03481014162986773,1.0879947533212975,-0.6278365195397345
1.950800738265371,15.709637648795155,-0.03412759305917512,1.0704035443487654,-0.6085936526808065
1.9440425610256997,15.497291030584385,-0.0334541793375353,1.0530626377589443,-0.5900535362622452
1.937418138530586,15.288388320767723,-0.03279004561360385,1.0359644604076863,-0.5721830063763611
1.9309256040125682,15.082881703119352,-0.032135299566572254,1.0191017160760267,-0.5549507483089211
1.9245630725103113,14.880724794273412,-0.03149001545599656,1.002467372383374,-0.5383271764928934
1.9183286471877734,14.681872592192033,-0.030854237769382963,0.9860546484304106,-0.5222843233032596
1.9122254408704138,14.486465350075367,-0.03017782540421367,0.968017772736259,-0.543390875532513
1.9062537999347002,14.294654176697396,-0.02953858395292143,0.950093961043466,-0.5662415773336388
1.9004063587736313,14.10641676576363,-0.028935827657768632,0.9322801482941936,-0.590723344300525
1.8946758955925387,13.921731411805172,-0.02836880415315741,0.9145733912903926,-0.616725690420359
1.889055345079828,13.740576986253242,-0.027836700973949434,0.8969708642289311,-0.6441404816345535
1.8835378098319822,13.56293291436548,-0.027338651504508458,0.8794698546487082,-0.6728616950869978
1.8781165706408243,13.388779152922805,-0.026873740407069656,0.8620677597780328,-0.7027851830639528
1.872785095743666,13.218096168617677,-0.026441008564513355,0.8447620832732351,-0.7338084406397269
1.8675370491302863,13.050864917056135,-0.02603945756928423,0.8275504323421822,-0.765830376044893
1.8623662979946556,12.887066822297001,-0.025668053787022985,0.8104305152491411,-0.7987510827691094
1.857266919413909,12.726683756852058,-0.0253257320204403,0.7934001392002827,-0.8324716123983895
1.8522332063322615,12.56969802207082,-0.025011398796036623,0.7764572086121044,-0.8668937471666316
1.8472596729233146,12.41609232883279,-0.024723935293431108,0.759599723768201,-0.9019197711730235
1.8423410594005434,12.265849778468652,-0.024462199934282586,0.742825779873175,-0.9374522391801111
1.837472336342611,12.118953843829726,-0.024225030645039534,0.7261335665161086,-0.9733937418613526
1.8326487085976055,11.975388350422119,-0.02401124680501723,0.7095213675599615,-1.0096466663112302
1.8278656188282496,11.835137457518364,-0.023819650888541013,0.6929875614775975,-1.046112950564772
1.8231187507586872,11.698185639154612,-0.023649029807085217,0.6765306221599279,-1.0826938307958385
1.818404032182534,11.564517664915922,-0.023498155954446633,0.6601491202269901,-1.1192895797738953
1.8137176377915907,11.434118580405347,-0.02336578795498522,0.6438417248787475,-1.1557992350562691
1.8090559918849116,11.306973687284561,-0.023250671111806995,0.6276072063291019,-1.1921203152761082
1.8044157710188895,11.18306852276423,-0.023151537548414,0.6114444388741931,-1.228148522754406
1.799793906660672,11.062388838411348,-0.023067106033760196,0.5953524046546442,-1.263777430516564
1.795187587909618,10.944920578127764,-0.02299608147678079,0.5793301981811784,-1.2988981516291862
1.7905942643547148,10.830649855139232,-0.022937154072251345,0.5633770317041505,-1.333398988590484
1.7860116491399676,10.719562927816792,-0.022888998075220646,0.5474922415202275,-1.367165060307586
1.7814377223148277,10.611646174132375,-0.022850270176178474,0.5316752953239375,-1.4000779039765283
1.776870734552861,10.506886064527144,-0.02281960744348748,0.5159258007283615,-1.4320150489470977
1.7723092113291785,10.405269132944497,-0.022795624793337233,0.5002435150981267,-1.4628495594077449
1.7677519576557985,10.306781945748742,-0.02277691194046391,0.4846283568594025,-1.4924495424703519
1.7631980634842521,10.211411068215195,-0.02276202977499998,0.469080418476077,-1.520677617978723
1.7586469098965591,10.119143028236685,-0.022749506101929974,0.4535999813090217,-1.5473903461206844
1.7540981762194103,10.029964276845128,-0.022737830669558052,0.43818753260656224,-1.5724376087106018
1.7495518482122618,9.94386114509356,-0.02272544940192698,0.4228437849091236,-1.5956619398550955
1.7450082274983694,9.860819796783701,-0.02271075773699689,0.407569698189457,-1.616897801661292
1.740467942428945,9.780826176455601,-0.022692092957247105,0.39236650509153637,-1.6359708007545806
1.7359319605950465,9.703865951978923,-0.022667725381738793,0.37723573967524243,-1.6526968417293597
1.7314016032300799,9.629924450999535,-0.02263584826792798,0.36217927011861767,-1.666881214388493
1.7268785617786133,9.558986590400501,-0.022594566246736857,0.34719933587173685,-1.6783176129180999
1.7223649169455149,9.491036797834226,-0.022541882084248083,0.3322985897910151,-1.6867870872574593
1.7178631605844998,9.42605892427494,-0.022475681525900813,0.31748014580184536,-1.6920569302389827
1.713376220838788,9.364036146431975,-0.022393715931219565,0.30274763262779825,-1.6938795091378678
1.7089074910112438,9.304950857762606,-0.02229358234422127,0.2881052540659064,-1.6919910578750803
1.7044608627208842,9.24878454674117,-0.022172700559375185,0.2735578561484396,-1.6861104574014267
1.7000407640025805,9.195517660999919,-0.022028286623661096,0.2591110012640817,-1.6759380484029633
1.6956522031358983,9.145129455989238,-0.02185732204316003,0.24477104884272038,-1.6611545447902478
1.6913008191608365,9.097597826962126,-0.021656517707458443,0.23054524142841695,-1.6414201519014924
1.6869929402743167,9.052899123448213,-0.021422271157739377,0.21644179371069303,-1.61637404490056
1.6827356516361078,9.011007946065817,-0.021150615224350126,0.2024699801132775,-1.585634437531497
1.678536874602173,8.97189692670436,-0.020837155114999163,0.18864021350129384,-1.5487995791271332
1.6744054601377802,8.935536495057473,-0.020476989528927916,0.174964102967589,-1.5054501722244464
1.6703513002899069,8.901894637577861,-0.020064608949805062,0.16145447182853173,-1.4551539223751888
1.6663854633600321,8.870936659688088,-0.01959376034894251,0.1481253070691953,-1.3974732378448294
1.6625203612085122,8.842624969214242,-0.019057261166258072,0.13499159766925367,-1.3319775125379294
1.6587699615803144,8.816918909339766,-0.018446735115719308,0.12206900107549647,-1.2582619627346383
1.6551500654981046,8.793774683660505,-0.017752225706378678,0.10937325571710077,-1.1759756195992477
1.6516786812541158,8.773145434255365,-0.0169616167335114,0.09691923833428195,-1.0848616717926376
1.6483765448915646,8.754981554082736,-0.016059746891998534,0.08471956339199715,-0.9848135311532837
1.6452678662444284,8.739231330374203,-0.015027039579364172,0.07278267369334691,-0.8759489007412821
1.642381425991292,8.725842008174695,-0.013837362951999086,0.06111054830174043,-0.7587000918298115
1.6397522250574335,8.714761295388534,-0.012454646386587212,0.04969657955985992,-0.633909286787434
1.6374240252587815,8.705939135153013,-0.010827351599931765,0.038525022795346774,-0.5029000284265546
1.6354534313314526,8.699329135929343,-0.008878587673357238,0.027574969441357865,-0.36747294727618063
1.6339171211701853,8.694888123546825,-0.006484513939317116,0.016835154383817004,-0.22975740798783417
1.6329280294609463,8.692569537014649,-0.0034064031530700997,0.006350710937959799,-0.09186509405498591
