x,y,v_x,v_y,omega
2.375,32.48,0.0,3.333333333333333,-6.8979591836734695
2.3734538634715436,31.854322098688005,-0.01627512135217325,3.2527498383718316,-6.444600118482976
2.3690488151650912,31.243626037961334,-0.030093808189431935,3.1756297482247193,-6.035964458864289
2.362217685525983,30.64727712167821,-0.04181281959065547,3.101727265281849,-5.666322736444227
2.353330894404437,30.064684958510174,-0.051732350109828275,3.0308218206974846,-5.330817758748136
2.342706250413367,29.495299007470877,-0.06010600769090424,2.962714506031964,-5.025312225423311
2.3306170412191567,28.938604739453766,-0.06714882593236557,2.8972251573060346,-4.746266380608233
2.317298747119525,28.39412030448873,-0.07304374353743928,2.8341899475890657,-4.490639087852562
2.302954638128985,27.861393618325035,-0.07794687741561374,2.7734593804498355,-4.255807328452722
2.2877604601120582,27.33999979991845,-0.0819918385520384,2.714896602777386,-4.039500304855396
2.271868373590806,26.829538905065483,-0.08529328272430198,2.6583759746222735,-3.839745205018705
2.255410276404523,26.329633911929882,-0.0879498455523548,2.603781847857744,-3.6548223381356895
2.238500616053565,25.839928922360855,-0.09004657919457149,2.5510075160267505,-3.4832278471339837
2.221238777602337,25.36008754929588,-0.09165698344993817,2.4999543057098217,-3.323642581223817
2.2037111171888366,24.88979146560088,-0.09284470511322486,2.450530785816486,-3.174906002655617
2.1859926985529667,24.428739093741097,-0.09366496473803548,2.4026520758654404,-3.0359942275361926
2.168148779848947,23.97664441893022,-0.0941657584621716,2.3562392379332446,-2.9060014769139495
2.150236089813993,23.533235911047697,-0.09438887348471277,2.31121873977754,-2.7841243530761477
2.1323039257165752,23.098255542776286,-0.09437074859336902,2.267521978868886,-2.6696484658063384
2.114395100086898,22.671457893194336,-0.09414320540323595,2.225084858835871,-2.5619370207579246
2.0965467587938447,22.252609327536565,-0.09373407136574546,2.183847411245912,-2.460421052051169
2.078791089383933,21.841487245073363,-0.09316771189648458,2.143753456787789,-2.3645910374627253
2.0611559355870037,21.437879388097677,-0.09246548596592635,2.104750300850995,-2.2739896800410726
2.0436653314001676,21.04158320588744,-0.0916461370534011,2.0667884592567427,-2.1882056768832068
2.026339966090025,20.65240526825857,-0.09072612936915347,2.0298214105208867,-2.1068683258857783
2.009197589726651,20.270160723962128,-0.08971993761373186,1.9938053715469297,-2.0296428458968596
1.992253367419481,19.894672799727687,-0.08864029719858282,1.9586990940787485,-1.956226305911681
1.975520189215186,19.525772336227817,-0.08749842074136385,1.9244636796040764,-1.8863440756217396
1.9590089416003895,19.16329735764854,-0.0863041857301766,1.8910624107041152,-1.8197467234125915
1.9427287456947118,18.80709267190694,-0.08506629748748432,1.8584605971022021,-1.7562072993465327
1.9266871664951788,18.457009498868302,-0.08379243092865352,1.826625434883446,-1.6955189501910564
1.910890396919446,18.11290512418767,-0.08248935407905938,1.795525877544288,-1.637492821507325
1.8953434198743744,17.774642576640282,-0.08116303586906243,1.7651325176913526,-1.5819562084734629
1.8800501511332872,17.44209032701663,-0.07981874035290908,1.7354174783471021,-1.5287509227109943
1.8650135654273274,17.11512200684443,-0.07846110918350804,1.7063543129391947,-1.477731847092869
1.8502358078334358,16.793616145365576,-0.07709423391009125,1.6779179131540218,-1.4287656544880822
1.8357182922650077,16.477455923343065,-0.07572171944178356,1.6500844239250338,-1.3817296697636259
1.8214617886341564,16.166528942404195,-0.07434673983033267,1.6228311649051645,-1.3365108572201942
1.8074665000506833,15.860727008743254,-0.07297208736412297,1.596136557841577,-1.2930049180667142
1.793732131247383,15.559945930111812,-0.0716002158285118,1.56998005933148,-1.251115484609006
1.7802579492699615,15.264085325118671,-0.07023327867066305,1.5443420984910512,-1.2107533995965072
1.7670428373390608,14.973048443945949,-0.06887316270723784,1.5192040191165495,-1.1718360706852369
1.754085342678724,14.686741999663834,-0.06752151792788755,1.4945480259583326,-1.134286891274347
1.7413945975518943,14.405079117787057,-0.06606527288084414,1.4703244148498575,-1.0947632716737878
1.728978096057895,14.127975892669635,-0.06463474284546332,1.4465516390177307,-1.056978802826752
1.716830923096413,13.855348150471396,-0.06323023569645415,1.4232140683321473,-1.0208368628602287
1.704948116500002,13.587114621368755,-0.061851939002608915,1.400296764327222,-0.9862472151848116
1.6933246883989734,13.323196811813077,-0.06049993574506061,1.377785441522032,-0.9531255191414775
1.6819556437752752,13.063518883892758,-0.05917421818860469,1.3556664313234292,-0.9213928831727988
1.6708359965355255,12.80800754132764,-0.05787470012455131,1.3339266483093761,-0.8909754563947838
1.6599607833944052,12.556591921660846,-0.056601227676712246,1.312553558709525,-0.8618040548862183
1.649325075825438,12.309203494246432,-0.055353588838734015,1.2915351509158917,-0.8338138194016878
1.6389239903061519,12.065775963661675,-0.054131521890593816,1.270859907871018,-0.8069439015588735
1.6287526970582396,11.826245178200487,-0.05293472282427318,1.2505167811941273,-0.7811371758558272
1.6188064274600922,11.590549043129872,-0.051762851893068056,1.2304951669176163,-0.7563399751446086
1.6090804802886391,11.35862743841459,-0.05061553938538593,1.2107848827169372,-0.7325018474281157
1.5995702269293908,11.130422140636451,-0.049492390711963756,1.1913761465266173,-0.7095753320607994
1.5902711156776799,10.905876748854247,-0.04839299088499384,1.172259556443954,-0.6875157536244231
1.5811786752400498,10.68493661416823,-0.04731690845847846,1.1534260718299014,-0.6662810319198688
1.5722885175323416,10.467548772769618,-0.046263698991082576,1.134866995523918,-0.645831506667619
1.5635963398600494,10.253661882270713,-0.04523290808567559,1.1165739570961377,-0.6261297756450808
1.5550979265568254,10.043226161125286,-0.044224074053524645,1.0985388970662395,-0.6071405451102028
1.5467891501484072,9.836193330961727,-0.04323673024561611,1.0807540520238663,-0.5888304914695044
1.5386659721016427,9.632516561663369,-0.042270407088746284,1.0632119405904454,-0.5711681332460905
1.530724443211535,9.432150419041427,-0.04132463385975629,1.0459053501668338,-0.554123712490739
1.5229607036732438,9.235050814956118,-0.040398940227519664,1.028827324415386,-0.5376690848578032
1.515370982880678,9.041174959750911,-0.03949285758896258,1.0119711514288734,-0.5217776176384465
1.5079515989885932,8.850481316873662,-0.03860592022245402,0.9953303525421829,-0.506424095107476
1.500706739895191,8.66313397159227,-0.03765575444493942,0.9767469662092935,-0.5346109650775724
1.493637567765965,8.479307032743996,-0.03675658375743978,0.9582734427199199,-0.5643308489444849
1.4867345371115879,8.298979899598908,-0.035906896814952544,0.9399069061757551,-0.5954724003615856
1.4799883917517849,8.122132506924427,-0.035105159604024244,0.9216445956609002,-0.6279264626679781
1.4733901687584896,7.9487453034898685,-0.03434981927276954,0.9034838615449573,-0.6615858217297778
1.4669312017092295,7.778799231235169,-0.033639307561545984,0.8854221621887162,-0.6963449629390098
1.4606031233240766,7.612275705027901,-0.03297204386111839,0.8674570610456706,-0.7320998313224703
1.4543978675546545,7.449156592933793,-0.03234643792227167,0.8495862241554855,-0.7687475937113079
1.4483076711894218,7.289424196926312,-0.031760892238071554,0.8318074180285089,-0.8061864019124293
1.442325075035661,7.13306123396087,-0.03121380411730438,0.814118507923516,-0.8443151558048335
1.4364429247353396,6.980050817338341,-0.030703567465026303,0.7965174565241422,-0.883033265257301
1.4306543712692206,6.83037643828137,-0.030228574283595214,0.7790023230229405,-0.9222404097280654
1.424952871201302,6.684021947644744,-0.029787215905019794,0.7615712626257475,-0.9618362943616507
1.4193321867138482,6.540971537678452,-0.029377883962914374,0.7442225264931139,-1.001720401342337
1.4137863854819435,6.401209723758303,-0.028998971109768474,0.7269544621400236,-1.0417917351970218
1.4083098404356686,6.264721325994596,-0.028648871482597205,0.7097655143200531,-1.0819485606617447
1.4028972294576783,6.131491450623759,-0.028325980917302953,0.6926542264256118,-1.1220881316349645
1.397543535064159,6.001505471081334,-0.02802869690921648,0.6756192424420338,-1.1621064096358307
1.3922440441179287,5.874749008646823,-0.027755418314260896,0.6586593095001904,-1.2018977700661595
1.386994347623788,5.751207912541698,-0.02750454478195538,0.6417732810800779,-1.2413546944395495
1.381790340658242,5.630868239351059,-0.027274475908003325,0.6249601209266581,-1.2803674465890176
1.3766282224883895,5.513716231626848,-0.027063610090443318,0.6082189077492555,-1.3188237306947646
1.3715044969382209,5.399738295515881,-0.026870343069226883,0.5915488407872368,-1.3566083287854542
1.3664159730648109,5.288920977239009,-0.026693066124563274,0.5749492463377303,-1.3936027151593404
1.3613597662120622,5.181250938228104,-0.026530163904370196,0.5584195853560254,-1.4296846449459035
1.356333299515814,5.076714928704931,-0.026380011845611936,0.5419594622563021,-1.464727713785511
1.351334305941411,4.975299759459904,-0.02624097314810355,0.5255686350597576,-1.4986008853465056
1.3463608309433623,4.8769922715585885,-0.026111395252408298,0.50924702705936,-1.5311679831306546
1.3414112358466483,4.78177930366936,-0.025989605765634676,0.492994740195664,-1.5622871427466598
1.3364842020607528,4.689647656665933,-0.025873907770106723,0.47681207036671414,-1.5918102205694555
1.3315787362508056,4.6005840551130035,-0.025762574439864874,0.46069952492729643,-1.619582154468628
1.3266941766055569,4.514575105191369,-0.025653842878543626,0.4446578426688731,-1.645440272109928
1.3218302003595805,4.4316072485597395,-0.025545907079101163,0.4286880166114515,-1.669213542250017
1.3169868327474399,4.351666711583352,-0.02543690989080098,0.412791319982113,-1.6907217645154768
1.3121644575909894,4.274739449283942,-0.02532493386130856,0.39696933580115856,-1.7097746934687519
1.307363829748057,4.200811083281131,-0.025207990801137243,0.3812239905442186,-1.7261710934405077
1.3025860896821078,4.129866832901968,-0.025084009893065175,0.3655575923943465,-1.7396977218295135
1.2978327804490375,4.061891438533969,-0.02495082413925282,0.3499728746372091,-1.75012824059659
1.2931058674401483,3.9968690761896113,-0.024806154901685296,0.33447304477709294,-1.7572220588817538
1.288407761271279,3.9347832621406376,-0.02464759424430675,0.3190618399489549,-1.7607231145919375
1.2837413442693604,3.8756167463760036,-0.024472584723258133,0.3037435891524591,-1.7603586102178064
1.279110001082806,3.819351393549322,-0.02427839618784087,0.2885232827073325,-1.7558377291652016
1.274517654036362,3.7659680500296524,-0.024062099037885826,0.27340664907866213,-1.7468503751531343
1.2699688039723405,3.7154463956835784,-0.023820533214972257,0.258400238774762,-1.7330660010833825
1.2654685774810852,3.667764779144189,-0.023550271956134582,0.24351151427145645,-1.7141326286165546
1.2610227816438864,3.6229000356365084,-0.023247578961747978,0.2287489437041243,-1.6896762103761815
1.2566379677230994,3.580827287039952,-0.022908357046535967,0.21412209415435854,-1.659300560226609
1.2523215056881272,3.5415197249428125,-0.022528085426857178,0.19964171739448916,-1.6225881833012934
1.2480816721452992,3.5049483792278657,-0.02210174133975255,0.1853198164470407,-1.5791024900644655
1.2439277552800614,3.4710818775789782,-0.021623699346960634,0.17116967459389432,-1.528392095925641
1.2398701820425788,3.4398862057182704,-0.021087597889698176,0.1572058186767168,-1.4699982125616098
1.2359206753739187,3.4113244848440125,-0.02048615651725047,0.14344387473650655,-1.4034665536368323
1.2320924533655615,3.3853567924591523,-0.019810917254930973,0.1299002556304312,-1.3283657225026495
1.2284004888128943,3.361940066365218,-0.019051867509987143,0.11659159798993528,-1.244314705009992
1.2248618581583182,3.34102814934327,-0.01819687622239274,0.10353384434634541,-1.1510227440287653
1.2214962256492923,3.3225720525084945,-0.017230834398931767,0.09074085917762327,-1.0483451877844707
1.2183265352429749,3.3065205326391194,-0.01613432777283173,0.07822250786842166,-0.9363580870796849
1.215380025041404,3.2928210775166384,-0.014881569085809572,0.06598228289452042,-0.8154507736576898
1.2126897472115625,3.281421340208418,-0.013437144912521857,0.05401495192887238,-0.6864267899451101
1.2102968961193388,3.272270896841178,-0.011750761321412503,0.0423055045684067,-0.5505866211899793
1.2082545051968954,3.265322821153614,-0.009748090493780575,0.030832134248051136,-0.40974156302380316
1.2066338228391622,3.2605337703482746,-0.0073117237981467995,0.01957892686078442,-0.26608803412483834
1.2055377452006344,3.2578591505413286,-0.004225935554777944,0.008574965843929135,-0.12187886201940101
