x,y,v_x,v_y,omega
2.375,32.48,0.0,2.769230769230769,-2.612244897959184
2.374514970057124,31.959384435030593,-0.005105578346064257,2.7109330725524172,-2.4668740874091584
2.3731236585166897,31.449654034609306,-0.009539806290084432,2.6546500897769447,-2.333421635153732
2.3709456854918516,30.95043665682166,-0.013386225550318907,2.6002696764088067,-2.210607216193876
2.3680858672634373,30.461380669080675,-0.01671712422246163,2.5476880892857627,-2.0973138071449138
2.364636196239681,29.982153429023867,-0.019595202343394732,2.4968091744701035,-1.9925639696464101
2.3606775301141973,29.512439910336894,-0.02207496739853733,2.447543653813825,-1.8954999719886547
2.3562810369986305,29.051941456157248,-0.024203907502166562,2.3998084954455896,-1.8053670659601782
2.351509435107564,28.600374645263585,-0.026023480824852976,2.3535263560666704,-1.7214993683650264
2.346418058933449,28.15747025835886,-0.027569952586878475,2.3086250850356995,-1.6433079012912453
2.3410557784479207,27.722972333500444,-0.028875105155526853,2.2650372818950064,-1.570270428327217
2.3354657934534626,27.296637301188184,-0.029966842154559716,2.2226999003392973,-1.5019227902850076
2.329686321590705,26.878233190847382,-0.03086970376920574,2.181553892721758,-1.437851497232871
2.323751195527766,26.467538901480513,-0.031605307419622454,2.141543890087393,-1.3776873765512416
2.3176903823972803,26.064343530143518,-0.032192725532857715,2.1026179134599228,-1.321100111461852
2.311530436507111,25.668445752656552,-0.03264881015313613,2.0647271127186753,-1.2677935327114072
2.305294894654785,25.27965325160679,-0.03298847250292685,2.0278255299104186,-1.217501549126651
2.299004621961177,24.897782187259907,-0.033224924271894836,1.9918698842672575,-1.16998462162301
2.2926781149557605,24.522656707481236,-0.03336988631143792,1.9568193765608615,-1.125026700754086
2.2863317676532473,24.15410849318885,-0.03343376950448829,1.9226355107274304,-1.0824325606759504
2.2799801055266604,23.791976336228863,-0.03342583182800807,1.8892819309565996,-1.042025472979481
2.2736359915779434,23.436105746885417,-0.033354315000588934,1.8567242726586717,-1.0036451726243718
2.267310808112142,23.086348588520973,-0.033226563586797875,1.8249300259143963,-0.9671460755178213
2.261014617316887,22.742562737092474,-0.03304912899483421,1.7938684101750808,-0.93239571338337
2.2547563033206126,22.404611763509227,-0.03282786043962977,1.7635102591222613,-0.8992733566745228
2.2485436980382856,22.072364636994315,-0.0325679846374975,1.7338279147189113,-0.8676688005768879
2.2423836928023446,21.745695447784872,-0.03227417574082916,1.7047951295910302,-0.8374812927526943
2.2362823375105867,21.424483147661405,-0.03195061680398888,1.6763869769717827,-0.8086185845278694
2.2302449287948725,21.108611306934485,-0.03160105388774057,1.6485797675220955,-0.78099608979877
2.2242760885189297,20.797967886640613,-0.03122884375376306,1.621350972413404,-0.7545361381206731
2.218379833745315,20.492445024809804,-0.030836995968492882,1.5946791521214527,-0.7291673102971422
2.212559639166631,20.19193883576686,-0.030428210122921434,1.5685438904358375,-0.7048238463711816
2.206818492870955,19.896349221517717,-0.03000490877893399,1.5429257332393451,-0.6814451172694005
2.2011589462032384,19.605579694352762,-0.029569266670713294,1.5178061316549065,-0.6589751525055606
2.1955831583906704,19.319537209871847,-0.029123236619473004,1.4931673891968678,-0.6373622173401284
2.190097046406737,19.038132765299146,-0.028625310579828218,1.468984658936783,-0.6151595714710026
2.1847055690739148,18.761280453267865,-0.0281270823972489,1.4452502045504056,-0.5939347643233382
2.1794086866988454,18.488896568998072,-0.027629574182427834,1.4219485772368843,-0.5736334552389539
2.1742061773225214,18.22090027866809,-0.027133682410454586,1.3990650051839875,-0.5542048931866251
2.1690976593148363,17.957213494335015,-0.02664019135465332,1.3765853562168193,-0.5356016419320586
2.1640826115546705,17.697760755719415,-0.026149785068142046,1.3544961028947604,-0.5177793290532509
2.1591603914558224,17.44246911840674,-0.02566305807762849,1.3327842898702267,-0.500696416493645
2.154330251069697,17.191268048051864,-0.02518052493421917,1.311437503338988,-0.4843139905914454
2.1495913514698106,16.944089320204156,-0.02470262874879336,1.2904438424263558,-0.4685955697408037
2.144942775600353,16.700866925398813,-0.024229748824443148,1.2697918923667302,-0.45350692803296894
2.1403835397509265,16.46153697918611,-0.023762207485313633,1.2494706993459217,-0.43901593339598327
2.1359126038018053,16.226037636794032,-0.023300276189643684,1.2294697468864653,-0.4250923989028094
2.1315288803683434,15.994309012141553,-0.022844181004692786,1.2097789336659543,-0.4117079460522281
2.1272312429592235,15.76629310093989,-0.02239410751235869,1.1903885526673246,-0.39883587894646894
2.1230185332509333,15.541933707637522,-0.02195020520648413,1.1712892715681142,-0.38645106839611265
2.1188895675698993,15.321176375981658,-0.02151259143598139,1.1524721142830983,-0.37452984507786136
2.114843142664005,15.103968322984528,-0.02108135494185189,1.133928443581411,-0.36304990095566353
2.1108780408365995,14.890258376097282,-0.02065655903084116,1.1156499447053958,-0.35199019825158084
2.1069930345084122,14.67999691340749,-0.020238244423758406,1.0976286099240136,-0.34133088532072253
2.103186890265984,14.473135806688628,-0.019826431812326635,1.0798567239587549,-0.3310532188454546
2.0994583724491123,14.269628367141202,-0.019421124154746824,1.0623268502246728,-0.3211394918187076
2.095806246324406,14.069429293675682,-0.019022308736899016,1.0450318178334395,-0.3115729668352597
2.092229280887195,13.872494623597127,-0.01862995902321369,1.0279647093092503,-0.30233781425396816
2.088726251329715,13.67878168556041,-0.018244036318683612,1.0111188489719964,-0.29341905483361164
2.0852959412096252,13.488249054673254,-0.01786449126121056,0.994487791945436,-0.2848025064807585
2.081939969456272,13.301056224090306,-0.017461527195137445,0.9759630562961183,-0.3180982737697704
2.078657087108403,13.117372924796495,-0.01709512909822328,0.9575453573229635,-0.3527858037338509
2.075440433453382,12.937179083052577,-0.016764383059888394,0.9392319241919784,-0.38876155169225823
2.072283325678082,12.7604551414729,-0.01646833036432407,0.9210200924362096,-0.4259238077984121
2.0691792669251203,12.58718203912575,-0.016205972298429707,0.9029073006916769,-0.4641724741737654
2.0661219534778765,12.417341192219759,-0.015976274514660715,0.8848910877924246,-0.5034088445831927
2.0631052811561537,12.250914475308527,-0.015778170977161842,0.8669690902205567,-0.5435353857196346
2.060123350999252,12.08788420294615,-0.015610567516538486,0.8491390399097108,-0.5844555191521081
2.0571704743086885,11.928233111726428,-0.015472345015707238,0.8313987624031371,-0.6260734029700721
2.0542411771187847,11.77194434263794,-0.01536236224644061,0.8137461753703976,-0.6682937121280995
2.051330204159895,11.619001423666226,-0.01527945837345373,0.7961792874897526,-0.7110214164573593
2.048432522376103,11.469388252572575,-0.01522245514014634,0.7786961977065798,-0.7541615552639281
2.045543324056787,11.323089079776683,-0.015190158747384311,0.7612950948817447,-0.7976190073777467
2.0426580296395604,11.18008849126738,-0.015181361433952354,0.743974257847762,-0.841298255449265
2.039772290240707,11.040371391461825,-0.015194842764503258,0.7267320558949237,-0.8851031432125679
2.036881989968425,10.90392298592894,-0.015229370627936336,0.7095669497144003,-0.9289366243429592
2.0339832480738895,10.770728763887153,-0.015283701946123489,0.6924774928307403,-0.9727005014324328
2.031072420995484,10.640774480379815,-0.015356583089727063,0.6754623335622942,-1.016295153486859
2.0281461043524844,10.514046138023673,-0.015446749994477184,0.6585202175550036,-1.05961925021263
2.0252011349460823,10.390529968216377,-0.015552927967650836,0.6416499909428571,-1.1025694512064086
2.0222345928279513,10.270212411678063,-0.015673831170568486,0.6248506041972836,-1.145040087987894
2.019243803499677,10.15308009818921,-0.01580816175863834,0.6081211167380174,-1.18692282662054
2.016226340310308,10.039119825372072,-0.015954608655767935,0.5914607023897478,-1.22810630844733
2.013180027124209,9.928318536345717,-0.016111845934753715,0.5748686557823965,-1.2684757662266444
2.0101029413373075,9.820663296064588,-0.01627853076946795,0.5583443998084476,-1.3079126126859122
2.0069934173269797,9.71614126612726,-0.016453300918193428,0.5418874942686949,-1.346293998217687
2.003850050429182,9.61473967781518,-0.01663477169020109,0.5254976458584499,-1.3834923341246927
2.0006717015463606,9.516445803089972,-0.01682153233949917,0.509174719670066,-1.4193747774794818
1.9974575025011645,9.421246923241888,-0.01701214182045992,0.49291875241502553,-1.4538026733053955
1.9942068622644105,9.329130294840432,-0.017205123829583516,0.47672996760028274,-1.4866309494169787
1.9909194742012502,9.240083112590103,-0.017398961045789477,0.46060879292951734,-1.5177074588938464
1.987595324497431,9.154092468638915,-0.017592088468097147,0.4445558802408826,-1.54687226482433
1.984234701948224,9.07114530782382,-0.017782885734079223,0.42857212833905844,-1.5739568616779571
1.9808382093164414,8.991228378264157,-0.017969668284686168,0.4126587091310814,-1.5987833275001557
1.9774067764934502,8.914328176631138,-0.01815067722048317,0.3968170975322677,-1.6211634011448528
1.973941675728816,8.840430887326953,-0.018324067670405026,0.38104910566966854,-1.6408974790837783
1.970444539230859,8.769522314700811,-0.018487895465983277,0.36535692197390945,-1.65777352712148
1.9669173794829475,8.701587807311128,-0.018640101880452842,0.34974315581222354,-1.671565903846155
1.9633626126699144,8.636612173113868,-0.018778496151475147,0.33421088836945484,-1.6820340952157262
1.9597830856672211,8.57457958431948,-0.018900735455821552,0.31876373051885426,-1.6889213638395433
1.956182107114596,8.515473470520021,-0.019004301940232324,0.30340588842282545,-1.691953323035735
1.9525634831790684,8.45927639855384,-0.019086476328480144,0.2881422375369721,-1.6908364557478208
1.948931558714385,8.405969937464,-0.019144307510290778,0.272978405513985,-1.6852566135441212
1.9452912646520164,8.355534506846208,-0.01917457735674677,0.2579208641469933,-1.6748775536284648
1.9416481726247774,8.307949206916838,-0.019173759772085765,0.24297702984637728,-1.6593396056305874
1.9380085580457624,8.263191628832367,-0.019137972638597577,0.22815537104279107,-1.6382586101602286
1.9343794731724364,8.221237644268971,-0.019062920764834804,0.21346551909822242,-1.611225345365535
1.930768832126983,8.182061174196203,-0.01894382708204542,0.19891837640458013,-1.5778057671602028
1.927185510500074,8.145633938412459,-0.01877534793804929,0.18452621079273338,-1.5375425492964612
1.9236394631707887,8.111925190143022,-0.018551466054425023,0.17030271835922933,-1.4899586432681697
1.920141865556444,8.080901444405075,-0.018265350938679085,0.1562630262507496,-1.4345639146672071
1.9167052860422311,8.052526215719851,-0.017909170263559485,0.142423591488435,-1.3708663878216705
1.9133439014685705,8.026759791151203,-0.017473825248659158,0.1288019302868111,-1.2983902784867356
1.9100737743358542,8.003559079764479,-0.016948565622039086,0.11541608431027661,-1.2167038228112352
1.9069132215739968,7.982877600312243,-0.016320410818564536,0.10228369939746326,-1.12546083657112
1.9038833231666614,7.964665694551915,-0.015573256627070748,0.08942057176387078,-1.0244606392434312
1.9010086491908744,7.948871078715101,-0.014686469433845741,0.07683854230784892,-0.9137305903370899
1.8983183333799856,7.93543985386237,-0.01363264436498295,0.06454277193140448,-0.7936321080759642
1.8958477036321835,7.924318048376559,-0.012373984559248931,0.05252886476133763,-0.6649812416763039
1.8936408269610097,7.915453585544181,-0.010856296189949568,0.040781270316316176,-0.5291543360216181
1.8917546443190862,7.908798120955463,-0.008998257935560885,0.029276251670187742,-0.3881174461576845
1.8902663095528662,7.904307204828282,-0.006668423814123499,0.017996549668555697,-0.24428821678088736
1.8892894019399251,7.9019344396646645,-0.003614814216835555,0.00697992573794203,-0.10014374769825116
