x,y,v_x,v_y,omega
2.375,32.48,0.0,2.358974358974359,-7.020408163265306
2.374078006458411,32.05937680276413,-0.010244372684322425,2.3146167214242244,-6.693193450730391
2.3714147504346847,31.646618475419835,-0.01934736091263607,2.2715869157345616,-6.387958299697606
2.367204978472315,31.241492493521456,-0.027427883113696046,2.2298128831363067,-6.10271552756949
2.3616232660851932,30.843778776855125,-0.034591143409876686,2.189228413156248,-5.8356970626523195
2.354826323812249,30.453268696546274,-0.04093043740061572,2.149772479164332,-5.585325591302189
2.346955002851557,30.069764193088826,-0.046528684384848314,2.11138867036288,-5.350190440121578
2.338136045226642,29.693076989429663,-0.051459733669767034,2.0740247036278148,-5.1290269712259855
2.328483615712172,29.323027885938068,-0.0557894831576738,2.037632001834367,-4.920698907515244
2.3181006465333076,28.95944612626788,-0.059576841051933414,2.0021653278343527,-4.724183114008181
2.3070800208201483,28.60216882488958,-0.06287455576094628,1.96758246525785,-4.538556447659192
2.295505616694267,28.25104044851461,-0.06572993452662167,1.933843938908523,-4.362984356898008
2.283453230495651,27.905912344820898,-0.0681854676802245,1.9009127687994043,-4.196710967341457
2.2709913948772895,27.56664231286761,-0.07027937252379513,1.8687542529037595,-4.039050434686127
2.2581821051859197,27.233094210398875,-0.07204606849142249,1.8373357745266767,-3.889379381966358
2.245081465620973,26.905137593912436,-0.07351659334131834,1.8066266308782066,-3.7471302678919307
2.231740265048513,26.582647387935197,-0.07471896857490297,1.7765978799799964,-3.611785557209506
2.2182044909865892,26.265503580422966,-0.07567852100202847,1.747222203489249,-3.482872584009633
2.204515789127883,25.95359094160329,-0.07641816631693235,1.7184737833959853,-3.359959015448828
2.1907118747886587,25.646798763920494,-0.07695865967444455,1.6903281908573535,-3.2426488371223217
2.1768269018405784,25.34502062103138,-0.07731881752644834,1.6627622856883173,-3.1305787928221234
2.1628917939701005,25.04815414404773,-0.07751571436775523,1.6357541252411454,-3.0234152210576526
2.148934542499573,24.756100813433424,-0.07756485752699013,1.6092828815844877,-2.9208512388317924
2.1349804744787266,24.468765765146976,-0.07748034270463737,1.5833287660426898,-2.822604230019378
2.1210524943019173,24.186057609777723,-0.07727499259324588,1.5578729602823724,-2.7284136015030422
2.107171301714279,23.907888263560686,-0.07696048060273192,1.5328975532402733,-2.63803877515814
2.0933555887297466,23.634172790274114,-0.07654744144763008,1.5083854832772008,-2.5512573879872966
2.0796222176881587,23.364829253127333,-0.07604557012556978,1.4843204850203846,-2.467863676303552
2.0659887209760472,23.09978571015145,-0.07543772667566544,1.4606077702671962,-2.384971208651938
2.0524695050305986,22.838972625109577,-0.07477578382932144,1.4373153968647014,-2.3055840239609684
2.0390737552990696,22.582315624826197,-0.0740658798543329,1.4144290507284196,-2.229514241720644
2.025809602683378,22.32974285604636,-0.0733135936533538,1.3919350468253326,-2.1565859704481305
2.012684219627909,22.08118487542792,-0.07252399585185901,1.3698202933795685,-2.086634417716557
1.9997039074554375,21.83657454575201,-0.07170169495337632,1.3480722585749683,-2.0195050754083264
1.9868741757930264,21.59584693792121,-0.07085087907341414,1.3266789395450806,-1.9550529730530284
1.9741998148428608,21.35893923835059,-0.06997535370620267,1.3056288334617736,-1.8931419928630917
1.9616849611757805,21.125790661389352,-0.06907857592802366,1.2849109105519645,-1.8336442407457838
1.949333157656564,20.89634236643974,-0.06816368539660564,1.264514588888227,-1.7764394681592328
1.9371474080488376,20.67053737946658,-0.06723353246702012,1.2444297108135094,-1.7214145402024064
1.925130226792901,20.448320518614786,-0.06629070371005315,1.2246465208731145,-1.6684629457927385
1.9132836844010255,20.22963832367373,-0.06533754508856375,1.2051556451386236,-1.617484346197507
1.901609448871221,20.014438989147564,-0.06437618302037522,1.1859480718187787,-1.5683841585523628
1.8901088234814765,19.80267230070833,-0.06340854353234242,1.1670151330616023,-1.521073171327971
1.8787827812915534,19.594289574825353,-0.06243636968902412,1.1483484878603547,-1.475467188998266
1.8676319966480928,19.389243601379412,-0.061461237460536874,1.1299401059834169,-1.4314867034254126
1.856656873960679,19.187488589083962,-0.06048457017739428,1.1117822528549455,-1.389056589710792
1.845857573991246,18.988980113548287,-0.059507651705195105,1.0938674753192312,-1.348105824471317
1.8352340378764953,18.793675067829106,-0.058531638458701275,1.0761885882272137,-1.3085672246888578
1.8247860090825463,18.601531615327684,-0.05755757036295381,1.0587386617885868,-1.270377205449933
1.8145130534726204,18.41250914489934,-0.05658638085844733,1.0415110096374613,-1.2334755550452032
1.8044145776519511,18.22656822805124,-0.055618906037877336,1.0244991775636585,-1.1978052260355505
1.7944898457391303,18.043670578112618,-0.05465589299346237,1.0076969328654428,-1.1633121410152767
1.7847379946995594,17.863779011269266,-0.053698007446214994,0.99109825428291,-1.1299450119146548
1.7751651306847829,17.68709569461828,-0.052667148273523166,0.9720497085058509,-1.1495628948281245
1.7657740613608772,17.513831001836998,-0.05167806643654273,0.9531135446195029,-1.1707665806197465
1.7565573699010835,17.343964962181204,-0.05072961645005243,0.9342868960003898,-1.1934351956411757
1.7475078497573557,17.177478109781404,-0.049820607369145106,0.9155670195529578,-1.2174499381679649
1.7386185124149005,17.01435146171113,-0.04894980754702633,0.8969512923389727,-1.242693814655396
1.7298825943302512,16.854566496622027,-0.048115948949077586,0.8784372086510926,-1.2690513792057763
1.7212935631303004,16.698105133865898,-0.04731773105037368,0.8600223775281056,-1.2964084751374254
1.712845123145081,16.54494971302423,-0.04655382434095255,0.8417045207126268,-1.3246519775375827
1.7045312203429643,16.395082973765103,-0.04582287346034477,0.8234814710554968,-1.3536695356653339
1.6963460467333191,16.24848803594638,-0.04512349998015716,0.8053511713747634,-1.383349314046216
1.6882840442985287,16.105148379882362,-0.04445430485084707,0.7873116737810028,-1.4135797310671119
1.6803399085145947,15.96504782668843,-0.043813870526197375,0.7693611394849094,-1.4442491938380961
1.6725085915173623,15.828170518615103,-0.043200762776383746,0.7514978391076002,-1.4752458280366716
1.6647853049696777,15.694500899278708,-0.04261353219789008,0.7337201535190189,-1.5064572013889632
1.6571655226835413,15.564023693690825,-0.042050715425848886,0.716026575235254,-1.537770039371521
1.649644983050568,15.436723887982609,-0.04151083605163414,0.698415710411586,-1.5690699316360754
1.6422196913338092,15.31258670871284,-0.04099240524568426,0.6808862814747484,-1.600241027567567
1.634885921874268,15.191597601640034,-0.04049392208255108,0.6634371304453238,-1.631165719282895
1.6276402202662563,15.0737422098291,-0.04001387356202203,0.6460672230095138,-1.6617243102641153
1.6204794055571616,14.959006350951448,-0.039550734316809166,0.6287756534088496,-1.6917946676956295
1.613400572529216,14.847375993624233,-0.0391029659936971,0.611561650226882,-1.7212518564411114
1.60640109412358,14.738837232619083,-0.03866901629114534,0.5944245831636552,-1.7499677524540436
1.5994786240704886,14.633376262753178,-0.038247317632094005,0.5773639709019783,-1.777810633268376
1.5926310997934543,14.53097935125541,-0.03783628544606355,0.5603794901843329,-1.804644743066989
1.585856745660654,14.431632808377596,-0.037434316029495714,0.5434709862358269,-1.8303298296813666
1.5791540766627183,14.335322955994535,-0.0370397839475686,0.5266384846870801,-1.8547206507451064
1.5725219026033477,14.242036093907274,-0.03665103893432821,0.5098822051713783,-1.877666446119435
1.5659593328975876,14.151758463530488,-0.03626640224078358,0.49320257679290325,-1.8990103736492236
1.5594657820823965,14.064476208607278,-0.03588416237244841,0.47660025568721276,-1.918588905319221
1.5530409761555142,13.980175332552527,-0.035502570148467374,0.4600761449211369,-1.9362311809992092
1.5466849598718229,13.898841651979062,-0.03511983300365709,0.4436314170062623,-1.9517583172453696
1.5403981051417017,13.820460745909056,-0.034734108442136105,0.4272675393271434,-1.9649826691359469
1.5341811206936533,13.745017900116665,-0.03434349653617855,0.4109863028105562,-1.9757070439639808
1.5280350631842807,13.672498045987272,-0.03394603134573957,0.3947898541826938,-1.9837238669307096
1.5219613499631146,13.60288569321527,-0.03353967111166208,0.3786807321728557,-1.9888143009791808
1.5159617737288118,13.536164855598066,-0.03312228704725743,0.36266190801828224,-1.9907473258571702
1.5100385193480887,13.472318969122838,-0.03269165051633344,0.346736830595361,-1.9892787857917094
1.5041941831512735,13.411330801490323,-0.032245418337168034,0.3309094764326094,-1.9841504213409318
1.498431795071203,13.353182352185812,-0.03178111588583832,0.3151844047286138,-1.975088909828876
1.49275484405926,13.297854742205836,-0.0312961175801941,0.2995668172711159,-1.9618049513395828
1.4871673072995404,13.24532809260084,-0.030787624194467438,0.2840626227844131,-1.9439924550528573
1.4816736838583102,13.195581391131505,-0.030252636263646267,0.268678504652624,-1.9213279058474162
1.476279033564673,13.148592346605785,-0.029687922554545675,0.2534219900775787,-1.893470026500673
1.4709890221406035,13.104337230933517,-0.0290899821573373,0.23830151739208447,-1.8600599005090206
1.4658099739165973,13.062790709704245,-0.028454998109396605,0.22332649626649675,-1.8207217900207129
1.4607489339334712,13.023925663301508,-0.02777877948089595,0.20850735265281103,-1.7750649799022107
1.455813741919761,12.987713002408444,-0.02705668733810433,0.19385554615899403,-1.7226871118578
1.4510131216700028,12.954121484499538,-0.026283537659208177,0.17938354171774548,-1.6631796528525415
1.4463567909221342,12.923117541892072,-0.025453470650442497,0.1651047094763268,-1.5961363810983895
1.441855599236702,12.894665137552149,-0.024559770298806006,0.15103311652282062,-1.5211660774273204
1.4375217050677118,12.868725672510134,-0.023594609356640175,0.13718316172180545,-1.437910971529972
1.4333688088672862,12.845257978632766,-0.02254868175920054,0.12356899247117861,-1.3460728637622417
1.429412467697893,12.824218442158223,-0.02141066456739065,0.11020363502373923,-1.245449090416545
1.4256705299196595,12.805561314754026,-0.020166421857425364,0.09709778057845146,-1.1359803198254603
1.4221637482539768,12.789239274456872,-0.01879781887238085,0.0842582227232562,-1.0178109582433865
1.4189166593461473,12.775204286963092,-0.017280946770170003,0.07168608276317985,-0.8913596878833165
1.415958864602072,12.763408766395472,-0.015583439275112515,0.059375256877027036,-0.7573909946202606
1.4133269282934784,12.753806907661719,-0.01366029748703824,0.04731206238688813,-0.6170675571252884
1.411067282748818,12.746355803981878,-0.011446875231410468,0.0354779785002306,-0.471949742759743
1.4092410136682523,12.741015460424236,-0.008845003441542005,0.02385917214022476,-0.3238992892041121
1.4079331658769592,12.73774558801226,-0.005686638683938339,0.012472743548389219,-0.17485111101555417
1.4072790816859277,12.736491195219767,-0.001580963438631424,0.0014649541459728563,-0.026476786895321347
