x,y,v_x,v_y,omega
2.375,32.48,0.0,3.333333333333333,-2.4897959183673475
2.3743628712053555,31.821635957100533,-0.006371287946445411,3.250307095661325,-2.3186155496888614
2.372553139026029,31.179515418090656,-0.011726033846820492,3.1708982944374156,-2.1651329498473055
2.3697585369493703,30.552939465381588,-0.016219986919766654,3.094861232653264,-2.0269890455852964
2.3661382270438804,29.941256095191076,-0.019983112135128347,3.0219724692518737,-1.9021946799536844
2.361827490038132,29.343856022107865,-0.023124257922355354,2.9520282615802187,-1.789065003531944
2.3569415739092547,28.760168958892308,-0.025734903366420547,2.8848423705753703,-1.6861667507490938
2.3515788654265717,28.18966030520144,-0.027892181460411496,2.8202441663333007,-1.592275636927042
2.3458235143024346,27.63182819012376,-0.029661329780957438,2.7580769844435205,-1.5063417534812584
2.339747612734886,27.086200822360098,-0.03109768589452984,2.6981966931930965,-1.427461320372802
2.333413012250124,26.55233410911534,-0.03224831895308663,2.6404704392544867,-1.354853519139581
2.3268728434363286,26.029809510655774,-0.03315336918486852,2.5847755453411554,-1.2878414072335909
2.32017279133814,25.518232102326653,-0.033847151797021635,2.5309985379500506,-1.2258361270656173
2.31335216915266,25.01722881983107,-0.03435907005777477,2.479034287005776,-1.1683237872332832
2.306444824828131,24.52644686691105,-0.03471437318751402,2.4287852421944125,-1.114854520736866
2.299479908755082,24.045552267372976,-0.03493478754297518,2.3801607531863267,-1.0650333243524348
2.292482525604343,23.57422854576256,-0.03503904396442107,2.333076462917863,-1.018512361286583
2.285474289235567,23.11217552299844,-0.03504331972333492,2.287453764723293,-0.9749844707037638
2.278473796263907,22.659108214981,-0.0349616099932681,2.2432193154511464,-0.9341776764169276
2.2714970311678626,22.214755823654134,-0.03480604096717217,2.200304597817519,-0.895850525794356
2.2645577136205466,21.778860811253818,-0.034587134505987,2.1586455261856354,-0.8597881209242331
2.2576675969293407,21.35117804956032,-0.03431403240607302,2.118182090749339,-0.8257987289573394
2.2508367249962546,20.931474036908906,-0.03399468692478992,2.0788580357648145,-0.79371087860312
2.2440736540005597,20.51952617652833,-0.03363602303215984,2.040620568040964,-0.7633708659838404
2.2373856440067588,20.115122110486077,-0.03324407690584673,2.0034200923815453,-0.7346406062347337
2.2307788248749274,19.7180591041394,-0.032824114412466784,1.9672099710852504,-0.707395777985631
2.2242583401651106,19.328143476534407,-0.032380732685701547,1.9319463049646657,-0.6815242166522412
2.2178284721572137,18.945190072672872,-0.03191794739326852,1.8975877336507059,-0.6569245196829355
2.211492750632024,18.56902177398647,-0.03143926785863163,1.8640952532132982,-0.6335048328511228
2.205254047660964,18.199469043729334,-0.030947761851964455,1.8314320493580785,-0.611181791594255
2.199114660318332,17.836369504327735,-0.03044611157435934,1.799563344657895,-0.5898795954702515
2.193076382949055,17.47956754401681,-0.029936662118407422,1.7684562584513626,-0.5695291971847875
2.18714057038841,17.12891395035245,-0.029421463488039538,1.738079678192243,-0.5500675904625687
2.181308193330243,16.784265568416615,-0.028902307093631768,1.7084041411661133,-0.5314371833926904
2.175579886870986,16.44548498173928,-0.028380757498939275,1.679401725607243,-0.5135852458537277
2.169955993113129,16.112440214143454,-0.027858180079631027,1.6510459503510309,-0.49646342128443355
2.1644365985896514,15.785004450883587,-0.027335765155146553,1.623311682247625,-0.4800272944647343
2.159021567166828,15.463055777594615,-0.026814549073088487,1.5961750506420802,-0.46423600815321076
2.1537105689939406,15.146476935700715,-0.026295432655782755,1.5696133682969355,-0.4490519224276342
2.148503105992379,14.835155093051458,-0.025779197359830242,1.5436050581956284,-0.4344403114241407
2.1433985343114297,14.528981628659828,-0.025266519449666694,1.5181295857206747,-0.4203690928928519
2.1383960841220753,14.227851930512767,-0.024757982443878074,1.49316739574993,-0.4068085866034887
2.1335003246573994,13.931665642237299,-0.024199612202878137,1.4686954870047588,-0.3921893877785664
2.12871514292795,13.640326019960163,-0.0236522050916166,1.444700735766594,-0.37823753522055237
2.1240383400038416,13.353739329255351,-0.02311582414946885,1.4211661712815415,-0.3649146819454194
2.119467708970272,13.071815152738203,-0.022590486186228456,1.398075593889935,-0.3521851015379524
2.1150010435173745,12.79446624024072,-0.022076168342743882,1.3754135310848916,-0.34001548067957094
2.110636145299797,12.521608367478049,-0.02157281383303248,1.353165196541817,-0.32837473028660774
2.1063708302194835,12.253160202635243,-0.021080336970104432,1.3313164518862353,-0.3172338133978189
2.1022029337660246,11.989043180347824,-0.020598627564483305,1.309853770987966,-0.306565588154802
2.0981303155322797,11.729181382590202,-0.020127554772964722,1.2887642065882658,-0.2963446643993228
2.094150863008458,11.473501426023041,-0.019666970465253057,1.2680353590833309,-0.28654727257048107
2.0902624947451787,11.221932355384439,-0.019216712167538508,1.247655347302709,-0.2771511437249276
2.0864631629649613,10.97440554254068,-0.018776605634637494,1.2276127811348672,-0.2681353996273367
2.0827508556919114,10.730854590840735,-0.01834646709585912,1.2078967358645665,-0.25948045196809616
2.079123598460911,10.491215244444486,-0.01792610521414409,1.1884967280979304,-0.25116790986245363
2.075579455660183,10.255425302318564,-0.01751532279313425,1.1694026931612977,-0.2431804948716982
2.0721165315546126,10.023424536615515,-0.01711391826257182,1.1506049638692064,-0.23550196286368594
2.0687329710314843,9.795154615172066,-0.016721686968712304,1.1320942505652778,-0.228117032098291
2.065426960105294,9.570559027880794,-0.01633842229319154,1.1138616223474378,-0.221011316984194
2.0621967262138794,9.349583016706461,-0.0159639166209524,1.0958984893958892,-0.21417126700767744
2.0590405383342487,9.13217350913401,-0.015597962175356537,1.0781965863286203,-0.2075841103825595
2.0559567069430695,8.918279054849641,-0.015240351736434938,1.0607479565150468,-0.20123780201372346
2.0529435838437933,8.707849765469767,-0.014890879256327698,1.0435449372836956,-0.19512097540548887
2.049999561879731,8.50083725714493,-0.014549340384293875,1.0265801459646906,-0.18922289818082708
2.047123074550081,8.297194595877237,-0.014215532912206513,1.009846466712257,-0.18353343090861005
2.044312595543844,8.09687624540036,-0.01388925715016005,0.9933370380565215,-0.178042988964086
2.041569287689728,7.900008200406663,-0.013543821391001689,0.9753434118804373,-0.20645770446995743
2.038891803554947,7.706727899721365,-0.013231019956808173,0.9574595949725546,-0.23645516548441514
2.036273670817247,7.517013675210407,-0.01295030742019449,0.9396826501370373,-0.2679311810347353
2.0337085328741624,7.33084443503186,-0.012701072010648318,0.9220097516484422,-0.3007838383826455
2.0311901614751044,7.14819964174383,-0.012482641979934844,0.9044381812318575,-0.33491328088039907
2.0287124681345983,6.969059291179946,-0.012294291425126712,0.8869653244069803,-0.3702214902653783
2.0262695144314407,6.793403892020599,-0.012135245606448764,0.8695886671864677,-0.40661207251030373
2.0238555212914275,6.621214445989828,-0.012004685793682664,0.852305793121248,-0.44399004634763845
2.021464877344898,6.4524724286089175,-0.011901753671610723,0.8351143806878676,-0.48226163358176133
2.0190921464445504,6.287159770438592,-0.011825555331864324,0.8180122010154022,-0.5213340502906978
2.0167320744238086,6.12525883874185,-0.011775164875554127,0.8009971159520133,-0.5611152980003393
2.0143795951714365,5.966752419499258,-0.011749627648170701,0.7840670764739133,-0.6015139538877602
2.0120298360940763,5.811623699707631,-0.011747963125429218,0.7672201214423556,-0.6424389590359664
2.009678123034937,5.659856249891664,-0.011769167465964039,0.7504543767173326,-0.6837994037196221
2.0073199847139374,5.51143400675593,-0.01181221574403109,0.7337680546399901,-0.7255043086493085
2.004951156752272,5.36634125590199,-0.01187606387261946,0.7171594538994117,-0.7674624010399049
2.0025675853425526,5.224562614531703,-0.011959650224578943,0.70062695980345,-0.8095818842958329
2.000165430624444,5.086083014053582,-0.012061896956505103,0.684169044977752,-0.8517702000211527
1.9977410698250782,4.950887682503591,-0.01218171103715389,0.667784270522141,-0.8939337809647026
1.9952911002234583,4.818962126685463,-0.012317984979046103,0.6514712876591534,-0.935977793398328
1.992812341998691,4.690292113927956,-0.012469597268627498,0.6352288399159154,-0.9778058672983652
1.9903018410231454,4.564863653347587,-0.012635412486827565,0.6190557658877969,-1.0193198125553797
1.9877568716636569,4.442662976494752,-0.012814281108058753,0.6029510026405627,-1.0604193192730822
1.9851749396566947,4.323676517248973,-0.013005038961561933,0.5869135898172133,-1.101001640032655
1.9825537851270916,4.207890890814593,-0.013206506334470047,0.5709426745265829,-1.140961251791718
1.9798913858245486,4.095292871651608,-0.013417486690958894,0.5550375171032684,-1.1801894948562204
1.9771859606578226,3.985869370156994,-0.013636764976301211,0.5391974978428744,-1.2185741861072958
1.9744359736133479,3.879607407889388,-0.013863105468446008,0.5234221248331707,-1.255999203382629
1.971640138153223,3.7764940911039773,-0.014095249132804749,0.507711043020945,-1.2923440376030297
1.9687974221971305,3.676516582334237,-0.014331910428119725,0.49206404467645737,-1.3274833089008098
1.9659070538040704,3.5796620697223,-0.01457177350247956,0.4764810814429329,-1.3612862426503556
1.9629685276829654,3.4859177337592158,-0.014813487708571924,0.46096227818791025,-1.3936161009290609
1.9599816126765144,3.3952707110497222,-0.015055662355936668,0.44550794890700757,-1.424329564559208
1.9569463603804127,3.307708054662097,-0.015296860605081048,0.43011861496925097,-1.4532760605157264
1.953863115080547,3.2232166905614754,-0.015535592393575007,0.41479502603696466,-1.4802970291581734
1.9507325252144567,3.141783369553515,-0.01577030626732939,0.39953818404263236,-1.5052251254993017
1.9475555565906477,3.06339461408324,-0.01599937997075915,0.38434937066011066,-1.5278833486197891
1.944333507630881,2.988036659140466,-0.016221109626909095,0.3692301787676164,-1.548084093472462
1.941068026936975,2.9156953864173367,-0.016433697312149713,0.35418254846366903,-1.5656281198278852
1.9377611335258869,2.8463562507447797,-0.0166352367987325,0.33920880826190625,-1.5803034342004763
1.9344152401259251,2.780004197703448,-0.016823697200884957,0.3243117221513951,-1.5918840825604252
1.9310331799844285,2.716623571162593,-0.016996904214082856,0.30949454325714404,-1.600128854922951
1.9276182377050814,2.656198009351204,-0.017152518579387262,0.2947610748567314,-1.6047799081616632
1.9241741847141274,2.5987103279175088,-0.017288011330151794,0.28011573948022617,-1.6055613215718878
1.920705320053231,2.5441423882989795,-0.017400635278814358,0.26556365670506615,-1.6021776122194644
1.917216517318987,2.4924749496287504,-0.01748739206362541,0.2511107299972197,-1.5943122560252347
1.913713278724899,2.4436875023836215,-0.017544993877253546,0.23676374245405563,-1.5816262889164672
1.9102017974666625,2.397758082094988,-0.01756981870511181,0.22253046043227337,-1.5637571047389116
1.9066890298511008,2.3546630617937616,-0.017557857450504623,0.2084197425799823,-1.5403176296110053
1.9031827790446023,2.31437692259502,-0.017504650614479516,0.19444164940744524,-1.510896145737586
1.8996917928773318,2.276872003180724,-0.01740521105822727,0.1806075447355025,-1.4750571754594666
1.8962258790202753,2.242118231263312,-0.017253927512337595,0.16693017443861616,-1.4323440384742507
1.8927960422277719,2.2100828439345577,-0.01704444041269683,0.15342369884893853,-1.3822839890696368
1.8894146505371732,2.180730109878848,-0.01676947649329084,0.14010364170816092,-1.3243972607871584
1.8860956408950245,2.154021075786833,-0.01642061992819577,0.1269866992120023,-1.2582119314253286
1.8828547805707205,2.1299133732066444,-0.015987983314842424,0.114090326589873,-1.1832872966706829
1.8797100104853306,2.108361141713665,-0.015459717539059078,0.10143198833991435,-1.0992493708563116
1.8766819127985495,2.089315149844765,-0.014821259328751508,0.08902793034908296,-1.0058430095172304
1.8737943719411998,2.0727232234439867,-0.014054149244745358,0.0768913336586846,-0.9030053422898339
1.8710755425459107,2.0585311097323036,-0.01313414470814614,0.06502980345813927,-0.7909632172734169
1.8685593111639618,2.046683883119588,-0.012028169111341237,0.05344246266902865,-0.6703502280431821
1.8662875663372134,2.0371278686667686,-0.010689279156144349,0.04211768185916821,-0.542322193926788
1.864313848573584,2.0298126988940695,-0.00904789848014859,0.0310340158678286,-0.408620723458961
1.862709637171989,2.0246923047626524,-0.006994215535801672,0.020169925446351565,-0.27150021048899026
1.8615771646643111,2.0217216118336516,-0.0043305095409748055,0.009537003843647647,-0.1334219298359942
1.861089967663779,2.0208353687014586,-0.0005414604643453041,-0.0006745725217032015,0.0034756896808525173
