x,y,v_x,v_y,omega
2.375,32.48,0.0,3.948717948717949,-5.673469387755102
2.3730972929213303,31.663123578937476,-0.018121019796855767,3.831057489972712,-5.195349641200967
2.3677529430010926,30.870277206756477,-0.03277755087207489,3.7198603403225277,-4.778485816905669
2.359627193680911,30.100162011013285,-0.04461053789155837,3.6145700953269118,-4.412873723468711
2.3492591419759754,29.351588993484736,-0.054132811679255446,3.514696738278328,-4.090422953362686
2.3370906985148174,28.623466194389053,-0.06175712604605914,3.4198061102519786,-3.8045429713442185
2.323485364673196,27.914787843272848,-0.06781748196938416,3.329511519426174,-3.549828552291992
2.308743052309086,27.22462510309897,-0.0725854929269001,3.2434669584202984,-3.3218184002992364
2.2931118556911807,26.552118109519242,-0.07628304629124696,3.161361551862831,-3.1168082869898623
2.2767974578775827,25.89646907573464,-0.07909217098111612,3.082914960371449,-2.9317052221502164
2.2599706880856503,25.256936283309134,-0.08116277941823705,3.007873538919091,-2.7639127935026107
2.242773624422413,24.632828816428567,-0.08261877927926047,2.936007098038693,-2.6112403850621924
2.225324545368128,24.02350192512955,-0.08356292599964611,2.867106152428105,-2.47183083257544
2.207721965046838,23.428352924508708,-0.0840806961078805,2.800979567770399,-2.3441024184100563
2.190047935534603,22.846817553616084,-0.08424339448483135,2.7374525359688757,-2.2267020948991516
2.17237075993685,22.278366730870147,-0.08411065882710272,2.6763648235162836,-2.1184675562317454
2.15474722959962,21.72250365328297,-0.08373248724175292,2.617569248742545,-2.0183963253472244
2.1372244753374057,21.17876119518798,-0.08315088668409724,2.560930352162083,-1.9256204338405185
2.1198415042942664,20.646699568983674,-0.08240121848865715,2.5063232307360894,-1.8393855851685708
2.10263047976747,20.125904215991078,-0.08151330081416527,2.4536325120505267,-1.759033930043654
2.085617790088981,19.61598390013022,-0.08051231517144601,2.402751448529077,-1.683989766374152
2.0688249437834747,19.116568980949033,-0.07941955440480418,2.3535811151012918,-1.6137476180640618
2.0522693211746956,18.62730984573988,-0.07825304186928046,2.3060296964144498,-1.5478622574413445
2.0359648069927925,18.147875483171994,-0.07702804557741894,2.2600118518511216,-1.48594032251031
2.019922324035505,17.677952183145884,-0.07575750639674825,2.2154481483975412,-1.4276332481967584
2.004150284318142,17.217242349511714,-0.07445239567337442,2.172264552880256,-1.3726312844821957
1.9886549712270682,16.765463413946563,-0.0731220147178039,2.130391976311683,-1.3206584169929119
1.9734408638256418,16.322346840702608,-0.07177424624816366,2.089765864106923,-1.27146803965149
1.9585109125380962,15.887637213158214,-0.07041576601417449,2.050325826792044,-1.2248392562756956
1.943866773867708,15.461091394157538,-0.06905222132285534,2.0120153065477235,-1.1805737099586566
1.9295090105212578,15.042477753037769,-0.06768838197667243,1.9747812755453336,-1.1384928567970345
1.915437262257277,14.631575453037318,-0.06632826815647547,1.9385739625542187,-1.0984356149162058
1.9016503919071095,14.228173793470958,-0.0649752589879779,1.9033466047444532,-1.0602563314501494
1.888146610300474,13.832071601663714,-0.06363218488474076,1.869055221991216,-1.0238230197003608
1.8749235832330655,13.44307667016653,-0.06230140623343574,1.835658411315294,-0.98901582654196
1.8619785231202268,13.061005235243787,-0.06098488055550294,1.8031171593775,-0.9557256965982459
1.8493082675697914,12.68568149303421,-0.05968421992483716,1.771394671189887,-0.9238532050312905
1.836909346764116,12.316937150150245,-0.058400740129212446,1.7404562134193078,-0.8933075352064527
1.8247780412542296,11.954611005802612,-0.05713550282208899,1.7102689708438672,-0.8640055811517351
1.8129104315281657,11.598548562822167,-0.0558893517118535,1.6808019146841797,-0.8358711577843854
1.801302440513085,11.248601665204724,-0.05466294366986498,1.6520256816724157,-0.8088343044265436
1.7899498700001641,10.904628160030317,-0.053456775500810655,1.6239124628457362,-0.7828306692676675
1.778848431837172,10.566491581809789,-0.05227120700387613,1.596435901159278,-0.7578009642258734
1.7679937746117709,10.234060857491578,-0.05110648085708636,1.5695709971093939,-0.7336904811718407
1.7573815064452334,9.90721003052267,-0.049962739776606334,1.5432940216421,-0.7104486617554353
1.7470072144285007,9.585818002502155,-0.04884004133513194,1.5175824356961232,-0.688028714155957
1.7368664811578227,9.269768291095499,-0.047738370766563766,1.4924148157958277,-0.6663872709941832
1.7269685318625587,8.958950262183897,-0.046527812997854426,1.4677568881241891,-0.6417557248498821
1.7173213843357513,8.653257357896862,-0.04534978249555106,1.443604105085663,-0.6182871656757224
1.7079182819515197,8.352585445056654,-0.04420357354474731,1.4199379219639374,-0.5959126068560576
1.6987526190549835,8.056834192943285,-0.0430884540413131,1.3967406695919604,-0.5745679316651264
1.6898179457067568,7.7659068948672,-0.04200367308465534,1.3739955025612123,-0.5541934950677523
1.681107970953276,7.479710300235581,-0.040948467424687676,1.3516863510732398,-0.5347337624110288
1.672616564846931,7.1981544563785675,-0.039922066921451664,1.3297978761364153,-0.5161369811967719
1.6643377594090274,6.921152559461213,-0.038923699153821656,1.3083154278383984,-0.49835488255767657
1.6562657487019146,6.64862081386099,-0.03795259329487437,1.2872250064494304,-0.4813424094396208
1.648394888153642,6.380478299439758,-0.03700798335533868,1.2665132261337304,-0.4650574688256
1.640719693258652,6.1166468461837695,-0.036089110882663075,1.2461672810661575,-0.44946070562948837
1.633234837760885,5.857050915726056,-0.035195227191309617,1.2261749137692084,-0.43451529614549705
1.625935151410887,5.601617489302626,-0.03432559518962014,1.2065243855015633,-0.4201867591663554
1.6188156173757022,5.350275961727846,-0.03347949085976033,1.1872044485439521,-0.406442783083797
1.6118713693692666,5.102958041005397,-0.03265620443962617,1.1682043202412793,-0.39325306746224586
1.6050976885614587,4.85959765321952,-0.03185504134902015,1.1495136586718375,-0.3805891777335871
1.5984900003156557,4.620130852377329,-0.03107532289672435,1.1311225398252336,-0.3684244118000875
1.59204387079748,4.384495734896735,-0.030316386800186598,1.1130214361804114,-0.356733677456089
1.5857550034912054,4.152632358456469,-0.02957758754528781,1.0952011965840363,-0.3454933796489278
1.579619235654902,3.9244826649447013,-0.028858296609980603,1.0776530273375653,-0.334681316697286
1.5736325347407518,3.6999904072613496,-0.02815790257240259,1.0603684744086552,-0.3242765846722947
1.5677909948029125,3.4791010797460693,-0.02747581112130543,1.0433394066892456,-0.3142594892244294
1.5620908329118297,3.2617618520196814,-0.026811444984244367,1.0265580002287307,-0.3046114642086726
1.5565283855908603,3.0479215060411633,-0.026164243786893304,1.0100167233761945,-0.29531499652250814
1.551100105288457,2.8375303761957333,-0.025533663855044696,0.9937083227707497,-0.2863535566269138
1.545807857289469,2.6306767633332875,-0.02486869804007903,0.9763260854430226,-0.3037352017510649
1.5406514008084402,2.4274613668855594,-0.024240411303049797,0.9590586426305682,-0.3230360413833372
1.5356230797572508,2.2278604159988618,-0.02364836061304153,0.9419027943856011,-0.3441447094918701
1.5307153395023012,2.031850798702802,-0.023092022767428926,0.9248554655768567,-0.36695289201917836
1.5259207428978157,1.8394100362483243,-0.02257080203719612,0.9079137006562812,-0.39135508508734174
1.521231984780099,1.6505162585015256,-0.02208403717915419,0.8910746588370309,-0.41724836096764073
1.5166419050508835,1.4651481803088053,-0.021631007860991897,0.8743356096650633,-0.4445321408725818
1.5121435004686512,1.2832850787522254,-0.02121094054122165,0.8576939289690376,-0.4731079736546592
1.5077299352583644,1.1049067712170348,-0.020823013842460915,0.8411470951756229,-0.5028793195162689
1.5033945506423316,0.9299935941957287,-0.020466363453090615,0.8246926859796622,-0.5337513378489828
1.4991308733878985,0.7585263827549618,-0.020140086589129826,0.8083283753609838,-0.5656306783279034
1.4949326234613007,0.5904864505931471,-0.01984324604513555,0.7920519309420145,-0.5984252743879754
1.4907937208712558,0.42585557061754287,-0.0195748738600525,0.7758612116827619,-0.6320441382038017
1.4867082917807268,0.26461595597007204,-0.01933397462117767,0.7597541659122234,-0.6663971562824721
1.482670673960695,0.10675024143100842,-0.01911952842674414,0.7437288296978806,-0.7013948847599007
1.478675421655757,-0.047758534870823155,-0.01893049352504552,0.7277833255576813,-0.7369483434648052
1.4747173099278506,-0.1989269495141741,-0.0187658086454925,0.7119158615218486,-0.7729688077803253
1.470791338541452,-0.34677121168224545,-0.018624395034493257,0.6961247305550113,-0.8093675972908418
1.466892735451142,-0.4913071809775431,-0.018505158206554413,0.6804083103525954,-0.84605586015021
1.463016959950513,-0.6325503852351275,-0.018406989418483843,0.6647650635291886,-0.8829443520466661
1.459159705540011,-0.7705160384188758,-0.018328766872013142,0.6491935382207693,-0.9199432085683192
1.45531690257046,-0.9052190586904274,-0.01826935664751731,0.6336923691273354,-0.956961709690496
1.451484720718751,-1.0366740867467072,-0.018227613368760553,0.6182602790276817,-0.993908035011319
1.447659571352482,-1.164895504529028,-0.01820238059570607,0.6028960808039308,-1.030689008253693
1.4438381098413005,-1.289897454415545,-0.018192490939356955,0.5875986800200572,-1.0672098294292436
1.440017237874291,-1.411693859018797,-0.01819676588930349,0.572367078106163,-1.1033737929215466
1.4361941058450993,-1.5302984417218752,-0.018214015341093327,0.5572003762088357,-1.1390819895910655
1.4323661153695848,-1.6457247481004629,-0.018243036806664503,0.5420977797776975,-1.1742329908315208
1.428530922004768,-1.7579861683939129,-0.018282614286828952,0.5270586039694444,-1.2087225123160958
1.4246864382427402,-1.8670959612068714,-0.018331516780102055,0.5120822799634867,-1.2424430549614163
1.4208308368591478,-1.9730672786443293,-0.018388496396968074,0.497168362297998,-1.2752835204076978
1.4169625547029652,-2.0759131931075814,-0.018452286042868624,0.482316537352025,-1.3071287980658344
1.4130802970226597,-2.1756467260070025,-0.0185215966267061,0.46752663311861936,-1.3378593205188882
1.4091830424336984,-2.2722808786802418,-0.018595113744355223,0.45279863043605073,-1.3673505837909445
1.4052700486438043,-2.365828665842315,-0.018671493778444858,0.4381326758693888,-1.39547262871821
1.4013408590657002,-2.456303151937263,-0.018749359346356353,0.4235290964634379,-1.4220894793877188
1.3973953104624637,-2.543717490811069,-0.01882729401780085,0.4089884166204641,-1.4470585343667757
1.393433541788412,-2.6280849691824386,-0.0189038362112623,0.3945113773925766,-1.4702299062596016
1.3894560044089315,-2.709419054453157,-0.018977472164744106,0.380098958519031,-1.491445705038552
1.3854634739063045,-2.7877334474738547,-0.01904662786027287,0.36575240358281697,-1.5105392606676233
1.3814570637058599,-2.8630421409643745,-0.019109659763010555,0.35147324870784213,-1.5273342808561843
1.3774382407882795,-2.9353594843816424,-0.01916484421394432,0.3372633552661377,-1.541643940482647
1.373408843790468,-3.0047002561312084,-0.019210365289022965,0.323124947110706,-1.5532699005024457
1.3693711038399987,-3.071079744131147,-0.019244300905920976,0.3090606528886857,-1.5620012562797392
1.3653276685182472,-3.134513835855806,-0.019264606920283953,0.29507355401283636,-1.567613418660365
1.3612816294067813,-3.1950191191077906,-0.019269098903200374,0.2811672388631914,-1.5698669363192155
1.357236553743231,-3.2526129948804368,-0.01925543122585025,0.26734586373343355,-1.5685062758174628
1.3531965208007732,-3.3073138037663554,-0.019221072988032353,0.25361422089434715,-1.5632585876287546
1.3491661637158086,-3.3591409674163515,-0.019163280202107075,0.2399778138675067,-1.5538325039355938
1.3451507176310118,-3.4081151465206077,-0.019079063462623416,0.22644293950639502,-1.5399170398725448
1.3411560752109737,-3.454258416611843,-0.018965150061548836,0.21301677564820926,-1.5211807079017305
1.3371888508494976,-3.497594462588161,-0.018817939095367282,0.19970747174527298,-1.4972710106502964
1.3332564552607924,-3.5381487920840016,-0.01863344746372979,0.18652423773895482,-1.4678145587269076
1.3293671826958293,-3.5759489664726303,-0.018407243631156003,0.1734774231051099,-1.43241817797843
1.325530313856088,-3.611024846054825,-0.018134364366379153,0.16057857291581148,-1.3906715408742778
1.3217562388649537,-3.6434088424284283,-0.0178092069777576,0.14784044016613254,-1.3421520998015735
1.3180566066917385,-3.6731361655151673,-0.017425385148101106,0.13527692256469406,-1.286433441118793
1.3144445106828877,-3.7002450444205692,-0.016975529221906142,0.12290287653439813,-1.2230986429974227
1.3109347251247723,-3.724776889255459,-0.016450999903002684,0.11073374094076409,-1.1517608181461498
1.3075440163198089,-3.7467763444310975,-0.01584146490617354,0.09878487977963178,-1.0720937134251884
1.3042915655497427,-3.766291162883171,-0.015134256713503776,0.08707053404967052,-0.983875843456762
1.3011995637589813,-3.783371808210177,-0.014313379388986615,0.07560227858845969,-0.8870516625119429
1.298294073923608,-3.7980706778757565,-0.013357952376474181,0.06438695632179388,-0.7818116163539429
1.2956063154972284,-3.8104408600329904,-0.012239746922378891,0.05342430231850288,-0.6686874588337763
1.293174624004748,-3.820534439667121,-0.01091921967267331,0.042705027530346766,-0.5486469246704822
1.2910475296983084,-3.828400646195689,-0.009338821341036575,0.03221122512270892,-0.42315070312856073
1.289288877865645,-3.834084739977449,-0.00741024373194699,0.021923001370270465,-0.2941094970062156
1.2879875857573817,-3.8376299208067692,-0.004983014441989635,0.011840625575617133,-0.16366802668910094
1.287283631371237,-3.8390900195595847,-0.0017213130451017556,0.002065076832129368,-0.03378397207172176
