x,y,v_x,v_y,omega
2.375,32.48,0.0,3.4871794871794872,-2.979591836734694
2.374281883731836,31.82564532648423,-0.007559118612254474,3.4007644445654126,-2.775934515100506
2.3722413094829298,31.18735336890019,-0.013920610323598726,3.31809826684555,-2.5932059789443125
2.369088517433867,30.5644360035224,-0.01926667440337615,3.238926631868031,-2.4286324403967203
2.365001976060689,29.956251230019436,-0.023749550577444697,3.1630183523737028,-2.2798727674825283
2.3601335623692234,29.36219903153116,-0.02749690933271877,3.090162684345011,-2.144942097836091
2.354612818440646,28.78171770909571,-0.030616184652308684,3.020167025501805,-2.0221504006141364
2.348550463849429,28.214280622857117,-0.03319807420260587,2.9528549349044333,-1.9100527868224615
2.3420413056692335,27.659393284219803,-0.035319380325769555,2.8880644191725633,-1.8074091107382488
2.3351666585419166,27.116590752424123,-0.037045326277563545,2.8256464418346106,-1.713150962046515
2.327996364547045,26.58543529647822,-0.03843145261582343,2.7654636207538172,-1.6263545693957928
2.3205904848219645,26.065514289421056,-0.03952517606923353,2.707389085111078,-1.546218456795547
2.31300072088996,25.556438306823836,-0.04036707584660423,2.651305468543858,-1.4720449402250078
2.3052716125888972,25.057839405498417,-0.04099195890142787,2.5971040190921464,-1.4032247416419097
2.297441550699321,24.56936956174993,-0.04142974519937374,2.5446838098392908,-1.339224144962606
2.289543635350173,24.090699251324494,-0.04170620584428672,2.4939510367442415,-1.2795742336698264
2.2816064056498977,23.621516155567093,-0.04184358047440164,2.4448183922810367,-1.2238618400523944
2.2736544614563052,23.161523980302974,-0.041861095247625,2.397204505236024,-1.17172190737167
2.265708994532097,22.710441375653478,-0.04177539869140634,2.351033438442868,-1.1228310227755318
2.2577882433568774,22.268000946446406,-0.04160092946880168,2.3062342374210125,-1.0769019238077413
2.249907883441878,21.83394834412354,-0.04135022753118837,2.262740523872346,-1.033678817386639
2.242081363011339,21.408041432117727,-0.041034198053436624,2.2204901288204058,-0.9929333790737925
2.23432019228828,20.990049517596592,-0.04066233587350136,2.1794247608757806,-0.9544613238062793
2.226634193284008,20.57975264327155,-0.04024291680304302,2.139489705703609,-0.9180794581802234
2.2190317158856514,20.17694093366879,-0.0397831610743974,2.100633553272809,-0.8836231397494891
2.211519825120904,19.781413990867673,-0.03928937329136577,2.0628079498968552,-0.8509440813489779
2.2041044637191147,19.392980335245227,-0.0387670625169408,2.0259673724446596,-0.8199084487237009
2.1967905934547907,19.01145688723334,-0.03822104552857807,1.9900689224173176,-0.7903952081831761
2.1895823182308742,18.636668486506974,-0.03765553577580334,1.9550721378602205,-0.7622946879555416
2.182482991416428,18.268447445385135,-0.03707422016573571,1.9209388213170382,-0.7355073226659924
2.175495309581658,17.90663313354742,-0.036480325463424335,1.887632882237834,-0.7099425551328766
2.1686213944604145,17.551071591453717,-0.035876675812823194,1.855120192432723,-0.685517873641259
2.161862864706413,17.201615170107317,-0.035265742650348375,1.8233684533188634,-0.6621579661624056
2.1552208987862835,16.85812219502671,-0.03464968808785438,1.7923470738454177,-0.6397939757552231
2.1486962901634614,16.520456652491788,-0.03403040267869788,1.7620270581011421,-0.6183628437069447
2.1422894957663265,16.188487896309272,-0.03340953834377242,1.7323809017147904,-0.5978067289223703
2.1360006785973193,15.862090373502479,-0.03278853711946189,1.7033824962514714,-0.5780724937166629
2.129829745223167,15.541143367474024,-0.03216865629266456,1.675007040890168,-0.5591112475575839
2.123776378786762,15.225530757319138,-0.031550990406341343,1.647230960740213,-0.5408779414814123
2.1178400680959153,14.91514079208303,-0.0309364905499382,1.6200318312188395,-0.5233310069074449
2.112020133271077,14.60986587886018,-0.030325981290461095,1.5933883079690427,-0.5064320334276681
2.106315748371211,14.309602383727583,-0.029720175550236,1.567280061847765,-0.49014548087470816
2.1007259613629086,14.014250444588875,-0.029119687695053836,1.5416877185596722,-0.4744384215922606
2.0952497117511495,13.723713795083249,-0.028525045060306835,1.5165928025521576,-0.4592803093642764
2.0898858461497904,13.437899598782582,-0.02793669811189188,1.4919776848232793,-0.44464277191596285
2.08463763625065,13.156718798779874,-0.027307616615902683,1.4678202099420656,-0.4291785700727955
2.0795077253221255,12.880085434051747,-0.026691445789615142,1.4441099450908612,-0.41439276087814453
2.0744936644299554,12.607915996722834,-0.026088142549018863,1.420831500476633,-0.4002477828141151
2.06959301629332,12.340129839059632,-0.02549762731030611,1.39797015913604,-0.3867085470848533
2.064803361706115,12.0766490491477,-0.024919789397113975,1.3755118399369215,-0.3737422489135456
2.060122304994341,11.817398333369361,-0.02435449177944812,1.3534430629929772,-0.36131819516146113
2.0555474786288337,11.562304905240655,-0.023801575225894864,1.331750917309212,-0.3494076466943505
2.0510765470980314,11.311298380199602,-0.02326086194044393,1.3104230304913471,-0.33798367408881214
2.0467072101327894,11.064310675968102,-0.022732158746316452,1.2894475403665508,-0.3270210254191626
2.042437205364103,10.821275918137594,-0.022215259871433787,1.2688130683756318,-0.31649600499632247
2.0382643104848928,10.582130350654108,-0.0217099493834115,1.2485086946084532,-0.30638636204635705
2.034186344978441,10.346812250901646,-0.02121600331608213,1.2285239343648404,-0.29667118841940754
2.030201171468593,10.115261849104368,-0.02073319152442197,1.2088487161328252,-0.28733082451139585
2.0263066967402463,9.887421251787696,-0.020261279300280502,1.1894733608847576,-0.27834677266246277
2.0225008724728664,9.66323436905667,-0.01980002877739912,1.1703885625997335,-0.2697016173687942
2.018781695724689,9.442646845466538,-0.019349200150783976,1.1515853699279914,-0.2613789517093598
2.015147209200777,9.225605994276023,-0.018908552732501832,1.1330551689195132,-0.25336330944703245
2.0115955013341718,9.01206073488789,-0.01847784586334231,1.1147896667450579,-0.24564010231538555
2.0081247062058933,8.801961533294492,-0.018056839697486837,1.0967808763433509,-0.23819556204886927
2.004733003326478,8.595260345358223,-0.017645295875302894,1.079021101933161,-0.2310166867556638
2.001418617299052,8.391910562767883,-0.017242978097605634,1.0615029253335921,-0.22409119126983781
1.9981798173815284,8.19186696152238,-0.016849652613166892,1.0442191930401243,-0.21740746115297313
1.9950149169634392,7.995085652802828,-0.016465088629876817,1.027163004007796,-0.21095451004557364
1.9919222729710193,7.801524036102926,-0.016089058658752705,1.01032769809646,-0.20472194009572497
1.9889002852125404,7.611140754495814,-0.01572133879892253,0.993706845136301,-0.198699905216935
1.985950450990742,7.424093741219238,-0.015329547746322957,0.9752090840908018,-0.23418731201307205
1.9830714191017291,7.240551254765087,-0.01497605108538982,0.9568170891107818,-0.27101421084151844
1.9802560107709235,7.060493458504858,-0.014659826080985762,0.9385281346810944,-0.30907919637097725
1.977497245102402,6.8839010238198455,-0.014379812535030605,0.9203395988453612,-0.34828261822993833
1.9747883457815973,6.710755110723287,-0.014134917157649186,0.9022489600657863,-0.38852636225187487
1.9721227469871858,6.541037349045954,-0.013924017520366292,0.8842537944324483,-0.42971363401912527
1.9694940985890497,6.374729820119121,-0.013745965617909025,0.8663517732184274,-0.4717487437837018
1.9668962707044337,6.211815038889302,-0.01359959106225891,0.8485406607796742,-0.5145368918279966
1.9643233576801902,6.05227593639912,-0.013483703929778375,0.8308183128011988,-0.5579839533055573
1.9617696815653094,5.8960958425680765,-0.013397097279493352,0.8131826748939776,-0.6019962615713185
1.959229795134755,5.743258469205898,-0.01333854935792011,0.7956317815499943,-0.6464803889713762
1.9566984845229531,5.59374789318937,-0.013306825503153564,0.7781637554660898,-0.6913429240139323
1.954170771523119,5.447548539731262,-0.013300679758258573,0.7607768072508503,-0.7364902437846638
1.9516419156069613,5.304645165666827,-0.013318856201296468,0.7434692355326683,-0.7818282804006197
1.9491074157181663,5.165022842679537,-0.013360089996544994,0.7262394274914487,-0.8272622802158238
1.9465630118924777,5.02866694038293,-0.013423108168598284,0.7090858598412602,-0.8726965543979326
1.944004686757148,4.895563109169828,-0.013506630098027892,0.6920071002966692,-0.9180342193872986
1.9414286669630954,4.7656972627332905,-0.013609367734107175,0.67500180956162,-0.9631769256262136
1.9388314246042682,4.6390555601557,-0.013730025516705624,0.658068743886683,-1.0080245728054098
1.9362096786805802,4.515624387452867,-0.013867299995798719,0.6412067582484157,-1.0524750097153994
1.9335603966633388,4.395390338448973,-0.014019879133058591,0.6244148102136372,-1.09642371661017
1.9308807962254633,4.278340194845306,-0.014186441265630314,0.6076919645618021,-1.1397634677882753
1.9281683472030264,4.164460905330628,-0.014365653707389807,0.5910373987505909,-1.1823839718696543
1.9254207738598481,4.053739563563582,-0.014556170957644686,0.5744504093235797,-1.2241714869938696
1.9226360575331491,3.946163384837245,-0.014756632481291125,0.5579304193746967,-1.265008407885472
1.9198124397457377,3.841719681212414,-0.014965660017777946,0.5414769872024734,-1.3047728214240286
1.9169484258790186,3.740395834878896,-0.015181854368739237,0.5250898163082248,-1.3433380270200879
1.914042789511446,3.6421792694725283,-0.015403791605707644,0.5087687669166928,-1.3805720177356002
1.9110945775390766,3.547057419038989,-0.015630018629760243,0.4925138692258312,-1.4163369177020182
1.9081031162088598,3.4550176942931756,-0.015859048004101216,0.4763253386248188,-1.4504883709889584
1.905068018211487,3.3660474457739404,-0.01608935196824314,0.46020359315658677,-1.4828748766737303
1.9019891909993092,3.2801339234374183,-0.016319355528364877,0.4441492735436557,-1.5133370644778972
1.898866846516396,3.1972642321670577,-0.01654742850230042,0.4281632661443328,-1.5417069050035843
1.8957015125526648,3.117425282603591,-0.016771876379080404,0.41224672926056777,-1.5678068483687029
1.8924940459626562,3.04060373661234,-0.016990929831537573,0.3964011232789199,-1.5914488849806823
1.8892456480225794,2.966785946607658,-0.01720273269558515,0.3806282451914328,-1.6124335224130495
1.8859578822374468,2.8959578878438315,-0.017405328200550203,0.3649302681119973,-1.6305486730217431
1.8826326949543732,2.828105082658297,-0.01759664320022346,0.34930978647256145,-1.6455684482996475
1.8792724391896765,2.763212515517022,-0.017774470112372997,0.3337698676461242,-1.6572518583738218
1.8758799021378338,2.701264537565656,-0.01793644622281231,0.3183141107892991,-1.6653414190233715
1.872458336901912,2.64224475923832,-0.01808002994478445,0.30294671370898146,-1.6695616749070883
1.8690114990709312,2.586135929327778,-0.018202473539226372,0.2876725485072373,-1.6696176574740553
1.8655436888744914,2.53291979879247,-0.01830079168645765,0.2724972466012743,-1.665193310962279
1.862059799776095,2.4825769674941647,-0.01837172513876481,0.25742729338087716,-1.6559499424438175
1.8585653745352155,2.4350867120692925,-0.018411698449441558,0.242470132144089,-1.641524785704839
1.8550666699923841,2.390426793307668,-0.018416770422466984,0.22763427587302293,-1.621529819251178
1.8515707321408448,2.3485732418563607,-0.0183825753832117,0.21292942361442235,-1.59555105384507
1.8480854834912055,2.3095001219577505,-0.018304252507726475,0.19836657531831742,-1.5631486163147938
1.8446198253930914,2.273179274536986,-0.01817635905136835,0.1839581343739429,-1.5238581206874378
1.841183758986214,2.2395800436797337,-0.017992761021029664,0.169717979912925,-1.4771940585877568
1.837788530042641,2.2086689949831353,-0.017746491016579168,0.15566148005127448,-1.4226562901910307
1.8344468055219103,2.1804096412700957,-0.017429556570060404,0.14180540113861345,-1.359741214281172
1.8311728938498515,2.1547622018597004,-0.017032671556872325,0.12816764528659425,-1.287959880938841
1.8279830278593214,2.131683437303721,-0.016544865185550216,0.11476671846056655,-1.2068661983247149
1.8248957408434139,2.111126623291536,-0.015952892876634202,0.10162079745715566,-1.1160993998466084
1.8219323853018203,2.0930417547742124,-0.015240323350666,0.0887462395673042,-1.015445754945708
1.8191178756232138,2.077376098925569,-0.014386094318877721,0.07615540094472763,-0.9049242255983836
1.816481788195981,2.0640752262897593,-0.013362194388836169,0.06385378469537985,-0.7848973559956537
1.8140600398722555,2.0530846020875764,-0.012129893229324637,0.05183699638023427,-0.6561983768837523
1.8118975228372194,2.044351630664746,-0.010633443981582743,0.04008901859694293,-0.5202434404886338
1.8100524158310358,2.0378275672747534,-0.008788735030874581,0.028585332876662678,-0.3790630935655172
1.8086039147394186,2.0334676392941766,-0.006458644880885458,0.017308645866243564,-0.2351539912436056
1.8076696668717807,2.0312246213706935,-0.003375543199513421,0.006302069117773552,-0.0910572508040709
