x,y,v_x,v_y,omega
2.375,32.48,0.0,2.564102564102564,-4.816326530612245
2.374197696407268,31.99773723942531,-0.008445300976126377,2.5123475472099313,-4.565057496829179
2.371889625433143,31.525146559982925,-0.015850182962033,2.462291183762521,-4.332945907434957
2.3682619983835247,31.06191415387555,-0.02233536492868396,2.4138394068414493,-4.118060942505621
2.3634795400480173,30.607743382484927,-0.028006301760867568,2.366905555165115,-3.9187049430188634
2.3576881848465536,30.162353445202765,-0.032955331938748764,2.321409574120803,-3.73338099258801
2.3510173969525656,29.7254781894043,-0.0372634879979705,2.27727732902091,-3.5607655939610274
2.3435821728481905,29.296865042076877,-0.04100202889018628,2.234440011267746,-3.399685544781663
2.3354847746326577,28.876274046919747,-0.0442337417996336,2.192833621965215,-3.2490982918770555
2.3268162342290912,28.463476993384308,-0.04701405192211762,2.1523985205130876,-3.108075180478023
2.3176576619968325,28.058256626269188,-0.049391971575342586,2.1130790280671463,-2.9757871231677413
2.308081387835076,27.66040592623084,-0.05141091433788453,2.074823077599653,-2.851492299590739
2.298151958412244,27.269727453001295,-0.05310939537613668,2.037581903763973,-2.734525566990168
2.2879270104823757,26.88603274428432,-0.054521635464580984,2.001309766941037,-2.624289317226779
2.27745803720494,26.50914176427998,-0.055678083245273874,1.9659637067888678,-2.5202455609296495
2.266791061849704,26.13888239660399,-0.056605867862470294,1.9315033213794277,-2.421909056037051
2.255967231149853,25.775089977053316,-0.05732919213595863,1.8978905686276901,-2.328841327910142
2.245023338789516,25.417606862247258,-0.05786967481495456,1.8650895872255477,-2.2406454527711293
2.233992288016152,25.066282030663306,-0.05824664911519542,1.8330665347107766,-2.156961496473677
2.2229035011052156,24.720970713004355,-0.05847742363150604,1.8017894406466142,-2.0774625173792605
2.2117832823347925,24.381534049191345,-0.05857751079399717,1.7712280731745547,-2.0018510560418283
2.2006551402192596,24.047838769582697,-0.058560827264246454,1.7413538174427654,-1.9298560460153331
2.1895400739771556,23.719756898287322,-0.05843987002106012,1.7121395646138147,-1.8612300898119478
2.178456828547687,23.39716547666812,-0.05822587134176387,1.6835596103251653,-1.7957470521894643
2.1674221219046887,23.07994630533336,-0.05792893542663941,1.6555895616197005,-1.7331999298064422
2.1564508479316276,22.76798570308832,-0.05755815902663975,1.6282062514859108,-1.6733989620742138
2.145556257704021,22.461174281473227,-0.05712173810606272,1.60138766025192,-1.6161699529360403
2.134750121666134,22.15940673364841,-0.05662706229274254,1.5751128431672055,-1.5613527774631508
2.124042874878421,21.86258163650713,-0.056080798630554686,1.5493618635831024,-1.5088000506962487
2.113443747243646,21.570601265001795,-0.05548896594602695,1.5241157312099232,-1.4583759391792916
2.102960880386894,21.283371417763142,-0.05485700096714616,1.4993563449864304,-1.4099550982125741
2.0926014326625824,21.00080125317539,-0.054189817183503915,1.4750664401477798,-1.3634217200628878
2.082377954651462,20.722806170557817,-0.05342574082828777,1.4511975874056053,-1.316221102448236
2.0723009682824918,20.449304468929974,-0.05264779989771778,1.4277676928875072,-1.2710850720850075
2.062372838095272,20.180214183911875,-0.05185883365196014,1.4047616230924764,-1.227899559165588
2.0525954178897794,19.915456163191323,-0.051061379037439555,1.3821649108080565,-1.1865579878490278
2.0429701052878797,19.654953943465394,-0.05025770098255506,1.3599637178859307,-1.146960705225389
2.033497890836489,19.398633634217546,-0.049449819558399014,1.338144800512486,-1.109014459636904
2.0241794022154265,19.14642380787498,-0.04863953434752661,1.316695476777646,-1.0726319235911077
2.015014944051646,18.898255395926604,-0.047828446323845614,1.2956035963631736,-1.037731257008685
2.0060045337872703,18.654061590614276,-0.04701797751168686,1.2748575121876908,-1.004235706997268
1.9971479340008254,18.41377775183974,-0.04620938866141703,1.2544460538600666,-0.9720732407392466
1.9884446815385508,18.17734131895648,-0.04540379515200122,1.2343585028057773,-0.9411762084333123
1.979894113774924,17.944691727140395,-0.044602181307227345,1.2145845689425159,-0.9114810335414948
1.9714953922880498,17.715770328055626,-0.04380541329144809,1.1951143687918435,-0.8829279278707228
1.963247524205792,17.4905203145527,-0.04301425073231744,1.1759384049231896,-0.8554606292646467
1.9551493814520524,17.268886649154663,-0.04222935720178458,1.1570475466351045,-0.8290261599012521
1.9471997180990155,17.050815996104614,-0.041451309672287225,1.1384330117864598,-0.8035746033878555
1.939397186010168,16.836256656763652,-0.04068060705242473,1.1200863496973588,-0.779058899020184
1.931740348940145,16.62515850816304,-0.03991767789518404,1.1019994250459366,-0.7554346517288256
1.9242276952407258,16.417472944527834,-0.03916288736186179,1.0841644026930712,-0.7326599563765214
1.916857649307327,16.21315282160162,-0.03841654351601903,1.0665737333723317,-0.71069523519542
1.9096285818869765,16.012152403613452,-0.03767890301398613,1.0492201401873442,-0.6895030872661561
1.9025388193567565,15.814427312738655,-0.036950176251487804,1.0320966058631684,-0.6690481490418906
1.8955866520709863,15.619934480914932,-0.036230532019777786,1.0151963607023209,-0.6492969650115256
1.8887703418657862,15.428632103884233,-0.03552010171917099,0.99851287119977,-0.6302178676782872
1.882093559738818,15.240685178339643,-0.034761815406809095,0.9798758187433031,-0.6547380529196685
1.8755569716904372,15.056268625904028,-0.03404437457614667,0.9613510490000171,-0.6808798942271107
1.8691529109264908,14.875361394409449,-0.03336679136013265,0.9429355983113321,-0.7085294147658879
1.8628739031511081,14.697942983452187,-0.03272802732810373,0.9246266222914364,-0.7375749213147367
1.856712675663881,14.5239934221011,-0.0321269988532355,0.9064213919305427,-0.7679067554521967
1.850662165483584,14.353493247307288,-0.03156258199199631,0.8883172901095725,-0.7994170490185405
1.8447155265881001,14.186423482937585,-0.031033616907832327,0.8703118085188944,-0.8319994828218582
1.8388661363543854,14.02276561935551,-0.030538911868111744,0.8524025449766082,-0.865549047555663
1.8331076012770868,13.862501593473976,-0.030077246840296615,0.8345872011448223,-0.8999618058864292
1.8274337620397736,13.7056137692039,-0.0296473767103667,0.8168635806454444,-0.9351346546525122
1.8218386980086407,13.552084918222462,-0.029248034143666286,0.7992295875802335,-0.9709650860906187
1.8163167312149644,13.401898200983325,-0.028877932105556618,0.7816832254633038,-1.007350946971977
1.8108624298895681,13.255037147889404,-0.028535766056507768,0.764222596577958,-1.044190194487123
1.8054706116100148,13.111485640545993,-0.02822021583352846,0.7468459017737357,-1.081380647665179
1.8001363461192565,12.971227893008713,-0.027929947227082624,0.7295514407239392,-1.1188197330500138
1.7948549578729982,12.834248432936409,-0.02766361325984912,0.7123376126687262,-1.1564042232809826
1.789622028372085,12.700532082553831,-0.027419855170815296,0.6952029176742116,-1.194029967139251
1.7844333983358613,12.570063939322601,-0.027197303105222847,0.678145958443999,-1.2315916095211172
1.7792851697726269,12.442829356211426,-0.026994576507771106,0.661165442726263,-1.2689822996863669
1.7741737080041358,12.31881392144756,-0.026810284213188797,0.6442601863670564,-1.3060933860015744
1.7690956437025298,12.198003437621129,-0.026643024224768875,0.6274291170690581,-1.3428140952545513
1.7640478750002475,12.080383900001724,-0.02649138316767467,0.6106712789246552,-1.3790311944560416
1.7590275697363453,11.965941473912572,-0.026353935399717292,0.5939858378032632,-1.4146286328677666
1.7540321679063797,11.854662470991158,-0.02622924175781544,0.5773720876853145,-1.449487161801854
1.749059384387613,11.746533324146341,-0.02611584791341316,0.5608294580496208,-1.4834839295260331
1.7441072120168948,11.641540561000102,-0.026012282304674367,0.544357522437088,-1.516492048383122
1.7391739251052658,11.539670775577012,-0.025917053607208602,0.527956008332294,-1.548380130995115
1.7342580834812413,11.44091059797552,-0.025828647698312335,0.5116248085255244,-1.5790117921764515
1.7293585371640003,11.345246661722125,-0.025745524062118084,0.49536399414178006,-1.6082451129357032
1.7244744317785226,11.252665568471379,-0.025666111574492882,0.47917382955029425,-1.635932062712175
1.7196052148372445,11.163153849671247,-0.02558880359685308,0.46305478939846634,-1.6619178757921556
1.714750643027323,11.076697924763838,-0.025511952297060627,0.4470075780479442,-1.6860403777060895
1.709910790659319,10.99328405543514,-0.025433862102980088,0.43103315172783047,-1.7081292573626783
1.7050860594524573,10.912898295363767,-0.02535278217977276,0.41513274376028675,-1.7280052807868447
1.7002771898538906,10.83552643484719,-0.0252668978051394,0.39930789325631627,-1.745479442679301
1.6954852741151984,10.761153939604196,-0.025174320496884367,0.3835604777225711,-1.7603520527265906
1.6907117713792625,10.689765882964778,-0.025073076723495284,0.36789275006078254,-1.7724117548348421
1.685958525065563,10.621346870563872,-0.024961094999655462,0.3523073804750652,-1.7814344794862045
1.681227782882974,10.555880956555725,-0.024836191132861347,0.3368075038212016,-1.7871823325799276
1.6765222198478842,10.493351550264936,-0.02469605134176991,0.32139677292393454,-1.789402428931244
1.6718449647442335,10.433741312095389,-0.02453821290718516,0.3060794183344504,-1.7878256857944892
1.667199630534141,10.377032037440806,-0.024360041935891884,0.29086031487168845,-1.7821656024075532
1.6625903493182472,10.323204527298834,-0.024158707705096726,0.2757450550438036,-1.7721170671408695
1.6580218125613428,10.272238444313395,-0.023931152893898012,0.26074002901345356,-1.7573552565595127
1.6534993174532286,10.224112153102112,-0.02367405877046141,0.24585251005267447,-1.7375347237086292
1.64902882048576,10.178802544035378,-0.023383804044997514,0.23109074328136567,-1.7122888207014424
1.6446169996245077,10.136284840224114,-0.023056415547131896,0.21646403367931583,-1.6812296696119895
1.6402713268852058,10.096532388498616,-0.022687508024467177,0.20198282658909783,-1.6439489947246604
1.6360001537682933,10.059516436847368,-0.022272208995662807,0.18765876973983717,-1.6000202707150348
1.631812812984359,10.025205903458623,-0.02180506241417267,0.17350473961538473,-1.5490028417001063
1.6277197414219347,9.99356714662477,-0.02127990140082187,0.15953480600413408,-1.4904489455542194
1.6237326316955418,9.964563750936037,-0.02068967466647125,0.14576409598252793,-1.4239149580281425
1.6198646233964678,9.938156354140272,-0.020026202165887602,0.1322085018676123,-1.3489786662842878
1.616130551199506,9.91430255150063,-0.019279820960023543,0.11888415749706481,-1.2652649756660748
1.612547276593664,9.892956930719311,-0.018438859101474164,0.10580658756944641,-1.1724830486010562
1.6091341452786248,9.874071309282503,-0.017488838951570287,0.09298942755485912,-1.0704781807713735
1.6059136363841033,9.857595262386752,-0.016411254674970944,0.08044264503200133,-0.959301056098942
1.6029123076315681,9.843477030218732,-0.01518167956224169,0.06817032515766247,-0.8392940259467472
1.600162201347337,9.831664849786918,-0.013766807640188436,0.0561684162298663,-0.7111864905897397
1.5977029812466592,9.822108615939083,-0.012119719735369886,0.04442351901048902,-0.576176835977246
1.5955852881506716,9.814761451410092,-0.010171786538184706,0.03291505497890362,-0.4359569237087103
1.5938764057989525,9.809580092598004,-0.007816448743067346,0.021625564095717285,-0.29261562752749937
1.5926716298801256,9.806521331641417,-0.0048654030340606605,0.01057191965782397,-0.14835998337149414
1.5921290682113085,9.805523223775534,-0.0008457724271716026,-6.552106958579093e-05,-0.005083560676135995
