x,y,v_x,v_y,omega
2.375,32.48,0.0,2.1025641025641026,-3.3469387755102042
2.374331608085932,32.001321724302294,-0.0058121036005917654,2.0598556861115576,-3.172621387509353
2.372409221630885,31.532307915281134,-0.010904300356340026,2.01852526189854,-3.0114873274470737
2.3693888202306828,31.072650203532024,-0.015360059645418075,1.9784983185284952,-2.8622167098532167
2.3654083939257524,30.622056711618264,-0.01925234300614971,1.9397059589824808,-2.723647803445341
2.3605901915401475,30.180250828381002,-0.022645069042588385,1.9020843300371768,-2.5947552808960617
2.3550426581225516,29.7469701058316,-0.025594351979985087,1.8655741269141632,-2.4746318343320524
2.3488621090967206,29.321965262733414,-0.02814955259245807,1.8301201608961521,-2.3624725772131066
2.3421341806652785,28.904999281531033,-0.030354172898341504,1.7956709799941075,-2.2575617633467537
2.334935089456354,28.495846587353736,-0.03224662022274008,1.7621785345910708,-2.159261440929928
2.3273327290456143,28.09429229950976,-0.03386086160978237,1.7295978814434902,-2.0670017289055904
2.31938762658596,27.700131547277277,-0.03522698586547078,1.697886920578121,-1.980272458517809
2.311153779145853,27.313168842947636,-0.03637168752676373,1.6670061605491824,-1.8986159677338883
2.3026793863476187,26.933217506033756,-0.03731868463179663,1.6369185082671853,-1.821620872464705
2.294007493392737,26.560099133358143,-0.03808908019326094,1.6075890802163881,-1.7489166680179122
2.2851765564694375,26.193643110410495,-0.03870167566151701,1.5789850323718562,-1.6801690383316015
2.2762209407847824,25.83368615993649,-0.039173243335485296,1.5510754065325167,-1.6150757703271883
2.2671713599892325,25.480071924206317,-0.039518763582339606,1.523830991121178,-1.5533631870295157
2.258055264518225,25.13265057782767,-0.03975163181772747,1.4972241947801233,-1.4947830265930235
2.248918281324109,24.791281600110693,-0.0397003959571896,1.4712016984109648,-1.4350041343031488
2.2398010145946605,24.455830141267946,-0.03958018429888736,1.4457675089172737,-1.3783101761964527
2.230718393960547,24.126163587757326,-0.03939912556297039,1.4208981737837472,-1.3245017884845776
2.221683577978759,23.80215458010688,-0.03916449166996496,1.3965714579592439,-1.2733949333800085
2.2127081405153333,23.48368074207906,-0.03888279062069431,1.3727662640218312,-1.2248195351068267
2.2038022369974914,23.170624427470003,-0.038559848664888624,1.34946255866562,-1.1786182535178982
2.1949747528463774,22.862872483157922,-0.03820088308392533,1.3266413049176673,-1.1346453798179539
2.186233436116983,22.560316027143273,-0.037810566736896124,1.3042843995575657,-1.0927658408192904
2.1775850161249064,22.262850240438254,-0.037393085368118216,1.28237461526866,-1.0528542998219164
2.1690353096249626,21.97037417176594,-0.03695218854443927,1.2608955470992798,-1.0147943436516391
2.160589315919766,21.682790554121098,-0.03649123497900698,1.239831562855877,-0.9784777466403932
2.1522513021134637,21.400005632327513,-0.03601323290188502,1.2191677570883357,-0.9438038034204974
2.144024879583453,21.121929000800765,-0.03552087605472778,1.19888990836165,-0.9106787233516618
2.1359130726184614,20.84847345079228,-0.03501657581476546,1.1789844395382252,-0.879015080226087
2.1279183800623,20.57955482645088,-0.034502489890984644,1.1594383808217532,-0.8487313116195714
2.1200428307069927,20.315091889092585,-0.03398054798125107,1.140239335337359,-0.8197512628893411
2.112288033094963,20.055006189118743,-0.03345247473205238,1.121375447043888,-0.79200377137445
2.1046552203160984,19.799221945067487,-0.032919810301554595,1.1028353707931111,-0.7654222868423904
2.0971452903204626,19.547665929324012,-0.032383928790927885,1.0846082443675396,-0.7399445246548707
2.0897588422100717,19.30026736005222,-0.03184605477768942,1.0666836623437066,-0.7155121485041516
2.0824962089225223,19.056957798943934,-0.03130727815752202,1.0490516516413824,-0.6920704799054245
2.075357486674537,18.817671054412564,-0.030768567477133007,1.031702648631429,-0.6695682319260945
2.0683425614938935,18.582343089886056,-0.03023078191976854,1.0146274776860225,-0.6479572648943586
2.06145113313316,18.350911936879697,-0.029694682086608522,0.9978173310649132,-0.6271923620613508
2.0546871713601766,18.12342499672326,-0.029122376808898915,0.9803299746432446,-0.6260505379891318
2.04805262896353,17.89994463360118,-0.0285692962054207,0.9629775307661261,-0.6275488261165595
2.0415429700884733,17.68044029359799,-0.02803643314289697,0.9457558605659838,-0.6315465468024899
2.0351534520250834,17.46488235456293,-0.02752459349527689,0.9286610006084409,-0.6379077687807226
2.0288791664472456,17.253242086744905,-0.027034411529401173,0.9116891543309222,-0.6465009765561005
2.022715077251263,17.045491615323748,-0.026566364087836553,0.8948366841138847,-0.6571987522464531
2.016656055260319,16.84160388469659,-0.026120783659501115,0.878100103948399,-0.6698774704944522
2.010696910041034,16.641552624385746,-0.025697870421240363,0.8614760726676345,-0.6844170051416664
2.004832419060027,16.445312316441925,-0.025297703326647162,0.8449613877134179,-0.7007004464159448
1.9990573543915728,16.252858164222445,-0.02492025031208448,0.8285529794124746,-0.7186138274332007
1.993366507172022,16.06416606242988,-0.024565377684011198,0.8122479057402672,-0.7380458588560379
1.9877547099825388,15.879212568301092,-0.02423285874627631,0.7960433475535386,-0.7588876705847514
1.9822168573288033,15.697974873840717,-0.023922381720989084,0.7799366042757986,-0.781032559381205
1.976747924374527,15.520430778996346,-0.023633557011848157,0.7639250900230761,-0.8043757413430378
1.9713429840749106,15.34655866567525,-0.023365923854381666,0.7480063301603516,-0.8288141081545859
1.9659972228464186,15.176337472504354,-0.02311895639337483,0.7321779582822068,-0.8542459860417457
1.9607059549004429,15.00974667023624,-0.0228920692238059,0.7164377136144264,-0.880570896350595
1.9554646353605034,14.846766237704372,-0.02268462242784128,0.7007834388365999,-0.9076893166536659
1.950268872275567,14.687376638230301,-0.022495926136823,0.6852130783292468,-0.9355024412630073
1.9451144376358087,14.531558796384381,-0.022325244643683656,0.6697246768526764,-0.9639119399951532
1.9399972774916865,14.379294074999418,-0.02217180008781337,0.654316378668742,-0.9928197139893058
1.9349135212725175,14.230564252333604,-0.022034775731046754,0.6389864271209325,-1.022127647325857
1.9298594903968354,14.08535149927501,-0.02191331884010257,0.6237331646929226,-1.0517373531271081
1.9248317062636657,13.943638356474676,-0.021806543187459154,0.6085550335708576,-1.0815499127449342
1.9198268977114943,13.805407711288883,-0.021713531179249065,0.5934505767403708,-1.1114656065503243
1.914842008030125,13.67064277440333,-0.021633335615267302,0.5784184396557257,-1.141383634736334
1.909874201609874,13.53932705600247,-0.021564981082568047,0.5634573725256509,-1.1712018264280502
1.9049208703126406,13.41144434133614,-0.0215074649803295,0.5485662332685372,-1.200816335259827
1.8999796396503934,13.28697866552239,-0.02145975816964639,0.5337439911988365,-1.2301213194304468
1.895048374858559,13.165914287410079,-0.021420805237610346,0.5189897315169187,-1.259008604080398
1.8901251869547877,13.048235662306684,-0.02138952436039947,0.5043026606865028,-1.2873673236518124
1.8852084388776609,12.933927413356049,-0.021364806745052485,0.48968211279729645,-1.315083541691031
1.8802967518052114,12.82297430132638,-0.021345515624073257,0.47512755702590553,-1.3420398453373785
1.875389011759788,12.71536119254095,-0.021330484770911557,0.4606386063256658,-1.3681149115118754
1.8704843766139096,12.611073024651446,-0.02131851649759529,0.44621502749610364,-1.3931830415806459
1.8655822836215397,12.510094769916758,-0.021308379088231976,0.4318567528055272,-1.4171136610267574
1.8606824576108272,12.412411395607023,-0.02129880361361506,0.41756389336607413,-1.439770780432349
1.8557849199880627,12.318007821103617,-0.02128848006259885,0.40333675448963996,-1.461012413867219
1.850889998718634,12.226868871209462,-0.02127605271504138,0.38917585328563253,-1.4806899506260671
1.8459983394695034,12.138979225119908,-0.021260114668702774,0.3750819387974356,-1.49864747619197
1.8411109181195098,12.054323360431649,-0.021239201418198034,0.3610560150135198,-1.514721038383496
1.8362290548691547,11.972885491485084,-0.021211783367499074,0.34709936713054257,-1.528737854947184
1.831354430211027,11.89464950124395,-0.021176257137959127,0.33321359148800117,-1.5405154595018078
1.8264891030564492,11.819598865814886,-0.021130935510541963,0.3194006296343109,-1.549860783893394
1.8216355313542834,11.74771657059987,-0.021074035812641143,0.3056628070179873,-1.5565691769219794
1.816796595585486,11.678985016958794,-0.02100366652472832,0.29200287681744025,-1.5604233624012998
1.8119756255738557,11.613385918141848,-0.020917811837272243,0.2784240694168683,-1.5611923441144204
1.807176431122167,11.550900183140598,-0.020814313829586532,0.2649301479852977,-1.5586302721592034
1.8024033370675552,11.491507787015689,-0.02069085186268931,0.2515254704921883,-1.5524752954895595
1.7976612234566316,11.435187626210087,-0.020544918667082263,0.23821505825216083,-1.5424484406742776
1.7929555716785988,11.381917357384477,-0.020373792446245344,0.22500467066619717,-1.528252579218317
1.7882925175781303,11.33167321846954,-0.020174504079568938,0.21190088511585353,-1.5095715784062569
1.7836789128218673,11.284429831002033,-0.019943798148804107,0.1989111798189885,-1.4860697781202334
1.7791223961498934,11.240159983523561,-0.019678085955315436,0.186044015645993,-1.4573920050143394
1.774631476665843,11.198834397062964,-0.019373387819036376,0.17330891009834215,-1.4231644350574413
1.7702156321030935,11.160421475775145,-0.019025260552698563,0.1607164924044428,-1.3829967585826357
1.7658854262076398,11.12488704907668,-0.01862870375559373,0.14827852236480682,-1.336486305594797
1.7616526512590969,11.092194116669202,-0.018178034927388943,0.1360078463958616,-1.2832250741151534
1.7575305047320087,11.062302615427562,-0.01766671748207362,0.12391825135750983,-1.2228109925806188
1.753533813866825,11.035169238149809,-0.01708711612821984,0.11202415975339079,-1.1548652512067714
1.7496793295796356,11.010747349454764,-0.01643013854299315,0.10034008976873003,-1.0790581331209788
1.7459861234490321,10.988987063817444,-0.015684697375295598,0.08887978533839723,-0.9951463426134457
1.7424761412227805,10.969835572787986,-0.01483688720080806,0.0776549192655906,-0.9030250183026967
1.7391749976492328,10.953237825307138,-0.013868709090909478,0.06667331969831115,-0.8027966317535982
1.7361131473696454,10.939137657566423,-0.01275607594898204,0.055936834568782796,-0.6948552387761412
1.7333276483953597,10.927479396687723,-0.011465654262197261,0.04543934698514889,-0.5799756239189626
1.7308648832294984,10.918209752261788,-0.009949695006162943,0.03516625671863082,-0.45938048706649015
1.7287849399829909,10.911279338725631,-0.008136768006945443,0.02509820881316903,-0.33473678312533206
1.72716939953565,10.906642162691497,-0.005911409796018291,0.015225061048856478,-0.20801670077928205
1.726138909642438,10.904248381317885,-0.003049371884085702,0.005590429156471181,-0.08117225463084066
