x,y,v_x,v_y,omega
2.375,32.48,0.0,2.41025641025641,-3.7142857142857144
2.3744862247290115,32.0502232023871,-0.005708614122094738,2.365041340998019,-3.538725435981281
2.37300327026237,31.62846746031141,-0.010768657729477011,2.321133570954101,-3.375103456899405
2.3706617215083514,31.21450321679296,-0.015248550648508375,2.2784691348064365,-3.22233859390049
2.367560552738701,30.808112038112135,-0.01920888012538425,2.236988406091613,-3.079467245168245
2.363788448031349,30.409085868453147,-0.022703394400749644,2.196635701230475,-2.945628691355963
2.3594249554463746,30.017226351603636,-0.02577985654341112,2.1573589304307506,-2.820052466416487
2.354541498129958,29.632344211892764,-0.028480780305662062,2.119109288578953,-2.7020474737127937
2.3492022619612,29.25425868768186,-0.03084406601387227,2.081840980431079,-2.5909925791826316
2.3434649763874287,28.88279701165968,-0.0329035514724736,2.045510975370922,-2.4863284588204975
2.337381602620003,28.51779393297606,-0.03468949038781171,2.0100787877804316,-2.387550514764829
2.3309989412935184,28.15909127690307,-0.03622896879535063,1.9755062796972205,-2.294202704557533
2.3243591699540382,27.806537538264823,-0.03754626830998669,1.941757482949945,-2.2058721530171628
2.317500319278105,27.45998750534458,-0.0386631836448216,1.9087984383861434,-2.1221844366875295
2.3104566956867467,27.119301911375665,-0.03959930070360518,1.8765970501573255,-2.042799447819838
2.3032592569691914,26.78434711106298,-0.04037224060256551,1.8451229533169453,-1.9674077589767793
2.2959359466384246,26.454994779873793,-0.04099787418373279,1.8143473932295955,-1.895727421136515
2.2885119919794246,26.131121634088732,-0.04149051091626753,1.7842431154932779,-1.8275011380441382
2.2810101700999557,25.812609169822014,-0.04186306552227596,1.754784265248027,-1.7624937678470967
2.2734510457357646,25.499343419409662,-0.04212720519095962,1.7259462948892144,-1.7004901100336502
2.2658531840825353,25.191214723730194,-0.04229347984491947,1.6977058793271078,-1.6412929415926638
2.258233341514028,24.888117519167206,-0.04237143758294241,1.6700408380394298,-1.584721271310842
2.250606636689437,24.58995013805082,-0.04236972713473435,1.642930063253754,-1.5306087853688717
2.24298670424481,24.29661462152732,-0.04229618891667605,1.6163534536740558,-1.4788024610133237
2.235385832996277,24.00801654390572,-0.04215793606702621,1.5902918532326156,-1.4291613281675737
2.2278150903509797,23.72406484761821,-0.04196142665849513,1.5647269944064028,-1.3815553614860172
2.220284434419915,23.444671688009763,-0.04171252813111436,1.5396414456874274,-1.335864487620858
2.2128028151511687,23.169752287242254,-0.041416574854955736,1.5150185628404562,-1.2919776944175008
2.205378265648669,22.89922479666082,-0.041078419617263565,1.4908424436199081,-1.2497922304313234
2.198019507836754,22.633012117131514,-0.04068555607068225,1.4670762178168255,-1.2077738543401906
2.1907336836495968,22.371039734832763,-0.04026804600883936,1.4437280299470807,-1.1675328167868995
2.18352495413985,22.113233659813872,-0.03982894854390271,1.420783914707302,-1.1289739717566607
2.176396955729017,21.859522362562515,-0.039371033798687914,1.3982304991966332,-1.092008226572794
2.169352849789663,21.60983667024528,-0.038896809971913006,1.3760549709948857,-1.0565520950434208
2.1623953675955474,21.364109668508654,-0.03840854774047912,1.3542450483009565,-1.022527288029853
2.155526851093874,21.1222766084838,-0.03790830227811429,1.3327889519751939,-0.989860337935553
2.148749289906391,20.884274818665155,-0.037397933138366285,1.3116753793430747,-0.9584822539760922
2.142064354923927,20.65004362135759,-0.03687912222234274,1.290893479629876,-0.9283282054112534
2.1354734288214603,20.41952425340926,-0.036353390027290725,1.2704328309071264,-0.8993372302053214
2.128977633787444,20.19265979096787,-0.03582211035066563,1.2502834184416525,-0.8714519668350341
2.122577856731398,19.96939507801688,-0.035286523605402055,1.230435614347108,-0.8446184071903754
2.11627477220723,19.749676658465493,-0.034747748885353716,1.2108801584460827,-0.8187856687146938
2.1100688632660938,19.533452711582093,-0.034206794905046196,1.191608140258334,-0.7939057841103714
2.1039604404314125,19.320672990575474,-0.03366456992474916,1.1726109820374553,-0.7699335070969606
2.0979496589697653,19.111288764141506,-0.03312189076022023,1.1538804227844308,-0.7468261328525437
2.0920365346143943,18.90525276080541,-0.03257949096612217,1.1354085031721366,-0.724543331897956
2.086220957882881,18.702519115901126,-0.03203802827291319,1.117187551319936,-0.7030469962991504
2.080502707116925,18.503043321039733,-0.03149809134882163,1.0992101693621792,-0.6823010971668336
2.0748814603599213,18.30678217592886,-0.030960205951222158,1.0814692207586625,-0.662271552525879
2.0693568061770407,18.11369374241367,-0.030424840525226673,1.0639578182989944,-0.6429261047110623
2.0639282535126355,17.923737300618686,-0.029892411301499236,1.0466693127563667,-0.6242342065213933
2.05859524067089,17.73687330707716,-0.02936328694011938,1.029597282149494,-0.6061669154336058
2.0533571434976374,17.553063354742,-0.028837792762682793,1.0127355215744742,-0.5886967952370297
2.048213282834035,17.372270134778905,-0.028316214610680394,0.9960780335710641,-0.5717978245077846
2.0431661683340256,17.194681644628474,-0.02776283538941895,0.9771274125448214,-0.6046512960602045
2.0382152139704854,17.02049474740771,-0.02724776864991992,0.958282556574809,-0.6388017853018235
2.0333536234045035,16.849690643882415,-0.026769904305434366,0.9395408159284515,-0.6741431257478023
2.028574803278987,16.68225100224189,-0.02632809708919313,0.9208996467440594,-0.7105706947852218
2.023872369195272,16.518157939284983,-0.02592117050764037,0.9023566083326805,-0.7479811849022104
2.0192401510132942,16.35739400205842,-0.02554792040322197,0.8839093608513413,-0.7862723761280738
2.0146721975435677,16.19994214988046,-0.025207118149294237,0.8655556633482054,-0.8253429086999319
2.0101627806954028,16.045785736682646,-0.024897513496986913,0.8472933721830742,-0.8650920549478338
2.0057063991424666,15.894908493601491,-0.024617837091188213,0.829120439829739,-0.9054194893587337
2.0012977815639426,15.747294511750514,-0.024366802670194136,0.8110349140699915,-0.9462250557395814
1.996931889517139,15.602928225100875,-0.024143108960955256,0.7930349375926697,-0.9874085303505424
1.9926039199955219,15.461794393396183,-0.02394544127923539,0.7751187480150161,-1.0288693798203525
1.9883093077246698,15.32387808502352,-0.023772472841341073,0.7572846783479092,-1.0705065125862796
1.984043727247727,15.189164659758394,-0.023622865791359898,0.7395311579312808,-1.1122180225202785
1.979803094851452,15.057639751296158,-0.023495271945028484,0.7218567138713229,-1.15390092330974
1.975583570384043,14.929289249476206,-0.023388333248403934,0.7042599730170227,-1.195450872054767
1.9713815590165107,14.804099282097852,-0.02330068194639959,0.6867396645202408,-1.2367618804230651
1.9671937130005712,14.68205619621823,-0.023230940452926837,0.6692946230311034,-1.2777260115672386
1.9630169334778345,14.563146538812418,-0.0231777209108154,0.6519237925890394,-1.3182330608564043
1.9588483723975376,14.447357036664247,-0.023139624425816078,0.6346262312795393,-1.3581702183035715
1.9546854346032851,14.334674575342685,-0.023115239954767084,0.617401116737816,-1.397421710381316
1.950525780153253,14.225086177102892,-0.023103142823366906,0.6002477525932253,-1.4358684187103452
1.9463673269432014,14.118578977532849,-0.023101892843873015,0.5831655759627971,-1.4733874728785827
1.9422082537074907,14.015140200745506,-0.023110031997358307,0.5661541661187911,-1.5098518144031638
1.938047003480235,13.914757132892142,-0.023126081638815597,0.5492132544741339,-1.5451297285862526
1.9338822876068744,13.817417093744861,-0.02314853917630161,0.5323427360512127,-1.5790843407417283
1.9297130904059472,13.72310740606408,-0.02317587416733513,0.515542682624143,-1.6115730729901294
1.9255386745918779,13.631815362430174,-0.023206523766768482,0.4988133577526123,-1.6424470575443195
1.9213585875823536,13.543528189176307,-0.023238887450168895,0.48215523395703536,-1.6715505021544055
1.9171726688285728,13.458233007011348,-0.023271320925172142,0.46556901232027,-1.698720003171928
1.9129810583236027,13.375916787866867,-0.023302129130051544,0.4490556448406187,-1.7237838015665112
1.9087842064635778,13.296566307439843,-0.023329558203557598,0.43261635990411274,-1.746560977236088
1.9045828854589324,13.220168092832324,-0.023351786292503108,0.4162526912905407,-1.7668605771717647
1.900378202518735,13.146708364610333,-0.023366913043022068,0.3999665111760437,-1.7844806735822376
1.8961716150611225,13.076172972516623,-0.02337294759711817,0.38376006764294196,-1.7992073491119118
1.8919649482375616,13.008547323976199,-0.023367794886892754,0.3676360272506468,-1.8108136080343673
1.8877604150992702,12.94381630443085,-0.02334923998301108,0.3515975232532211,-1.8190582151040546
1.8835606397819908,12.8819641884328,-0.02331493020898107,0.3356482100584545,-1.8236844680876574
1.8793686841424537,12.822974540323166,-0.023262354674764132,0.31979232449302547,-1.8244189165698834
1.875188078349185,12.766830103228038,-0.023188820806001417,0.3040347543417298,-1.8209700494434602
1.8710228560161295,12.713512675039048,-0.023091427339058255,0.28838111442483244,-1.8130269880046561
1.866877594576459,12.663002970031478,-0.022967033101726004,0.2728378301037368,-1.8002582428864662
1.8627574617361133,12.615280464850144,-0.02281222067989355,0.2574122274666199,-1.7823106242089903
1.8586682690381942,12.570323227822133,-0.0226232537414299,0.2421126284001698,-1.758808439687524
1.854616533835906,12.528107731028054,-0.02239602628399612,0.22694844708957543,-1.7293531812895941
1.850609551354652,12.488608645419319,-0.02212600128549268,0.21193028189638644,-1.693523996287308
1.8466554790901486,12.451798620714861,-0.021808134986765794,0.1970699925976022,-1.6508793756638531
1.8427634366482888,12.417648054150064,-0.02143678103389999,0.18238074701124343,-1.6009606886949608
1.8389436254627496,12.386124855814408,-0.021005565472089576,0.16787701227380716,-1.54329846885739
1.8352074749205087,12.357194223892378,-0.020507218330586344,0.15357445352651597,-1.4774227380825735
1.8315678247608098,12.330818451363204,-0.01993333899940291,0.13948968568653428,-1.4028791655987585
1.8280391589633131,12.306956797436655,-0.019274058750559105,0.12563980238623101,-1.3192534938948972
1.8246379149456973,12.285565472763334,-0.01851754144517433,0.11204158287288588,-1.226207359311263
1.8213829057056226,12.266597806691156,-0.01764922788898871,0.09871026237355447,-1.1235291515250674
1.8182959146103603,12.25000468387367,-0.01665067316948023,0.08565776893184726,-1.0112032939583508
1.8154025576406814,12.23573534561383,-0.015497737604729505,0.07289043395527381,-0.8894990050502937
1.8127335642509101,12.223738623692334,-0.014157744503840622,0.06040647628354139,-0.7590729379070716
1.810326723573279,12.213964562651636,-0.012584929692061375,0.04819420194644357,-0.6210661022716885
1.808229931500093,12.206366107694517,-0.010712760010004726,0.036233075354894645,-0.4771529147249496
1.8065062617693644,12.200899943795136,-0.008439125886980182,0.024502079082694788,-0.329475784460059
1.805243723647165,12.197524201160942,-0.005589075470790487,0.013006172408346178,-0.1803921339444132
1.8045819638181366,12.19618497524014,-0.0017638115184132885,0.0018741156005620298,-0.03201559600796974
