x,y,v_x,v_y,omega
2.375,32.48,0.0,3.7435897435897436,-4.204081632653061
2.373789056836655,31.74151804826851,-0.012109431633450799,3.6412297737251373,-3.88222203228793
2.3703686548722147,31.02300408524212,-0.022094588010950385,3.5439098565387224,-3.597655476331093
2.365127707625776,30.323488823888862,-0.03031488445344028,3.4512427569938704,-3.344846496900851
2.3583898144037874,29.642076377128863,-0.03706404776644449,3.362881710606127,-3.119223691462779
2.3504250849130344,28.977936714879004,-0.04258324714108569,3.278514911892478,-2.916989899266987
2.341459624127282,28.330299128285482,-0.04707136071643987,3.1978609540427216,-2.734973805292053
2.331683182374679,27.698446531068733,-0.05069305680958721,3.1206650181247886,-2.5705130722915586
2.321255357242502,27.081710463187935,-0.05358519451218325,3.046695660683186,-2.42136167034155
2.310310645553795,26.479466688646173,-0.05586192237488481,2.9757420847344314,-2.2856159225515515
2.29896257713518,25.891131299630267,-0.05761876181126585,2.907611805424646,-2.1616551318531374
2.287307111569182,25.316157254989275,-0.05893589384871422,2.8421286409852633,-2.0480936438409296
2.2754254404667633,24.754031293479137,-0.059880817175472625,2.779130974116098,-1.9437419355341823
2.2633863080139656,24.20427117207602,-0.060510507352504656,2.718470239915108,-1.8475748700854584
2.251247939455975,23.666423187593217,-0.060873178227403756,2.6600096049129096,-1.758705672582058
2.2390596491726127,23.140059946269346,-0.06100972460621737,2.6036228083258073,-1.676364497614047
2.2268631858748074,22.62477835125781,-0.060954908371835745,2.5491931417895266,-1.5998807007587454
2.214693861315965,22.12019778228688,-0.06073833721658913,2.496612547919763,-1.5286681121244312
2.2025815000895,21.625958445363366,-0.06038527504805933,2.445780821315413,-1.4622127542222696
2.1905512410609234,21.141719873405762,-0.05991731523770643,2.396604898260633,-1.400062558758807
2.178624215367794,20.667159561226622,-0.059352941693591475,2.348998223530738,-1.3418187249546751
2.1668181214123017,20.201971720426698,-0.058707997861330276,2.3028801844685294,-1.2871284313156872
2.155147713636547,19.745866141584703,-0.057996079896214844,2.258175603951409,-1.2356786676488412
2.1436252189289906,19.298567152681887,-0.05722886717934887,2.2148142850767534,-1.1871909977457016
2.1322606921211062,18.85981266403411,-0.056416400899495234,2.1727306014010246,-1.141417098006283
2.121062320085396,18.429353291152584,-0.05556731945760739,2.1318631274142352,-1.098134945234416
2.110036682352614,18.00695154794665,-0.054689057870211874,2.09215430464512,-1.0571455493566928
2.099188974858466,17.59238110354243,-0.0537880170712706,2.053550139397085,-1.0182701450308325
2.0885232023535685,17.185426096739764,-0.0528697079777042,2.015999928629545,-0.9813477708959366
2.078042344121532,16.785880502782934,-0.05193887434265972,1.9794560109387513,-0.9462331772657652
2.0677484969138167,16.393547547692165,-0.05099959773449532,1.9438735399689522,-0.9127950129188019
2.0576429983985656,16.008239165904385,-0.050055387418014165,1.9092102779088347,-0.8809142497234871
2.0477265339113977,15.629775497412716,-0.04910925745366552,1.8754264070078432,-0.8504828104928857
2.037999228870921,15.257984420983028,-0.0481637929510988,1.8424843572890457,-0.821402370960384
2.0284607288657797,14.89270112036959,-0.04722120710031588,1.8103486488453335,-0.7935833113225683
2.019110269121302,14.533767680756196,-0.04628339034445849,1.778985747288618,-0.7669437965803219
2.009946734802543,14.181032712919208,-0.04535195284313451,1.7483639310812609,-0.741408968063678
2.000968713398612,13.834351002849225,-0.04442826119617578,1.7184531696185634,-0.7169102311625326
1.9921745402541549,13.493583184782018,-0.04351347024839509,1.6892250110535056,-0.6933846264950969
1.9835623381622105,13.15859543578042,-0.04260855067104805,1.6606524789624673,-0.6707742736029966
1.9751300518040003,12.829259190179641,-0.041714312911054714,1.6327099770453324,-0.6490258778265893
1.9668754777117823,12.505450872361415,-0.04083142801112535,1.6053732011369284,-0.6280902923357468
1.9587962903376772,12.187051646459661,-0.03996044572992489,1.578619057880594,-0.6079221284105173
1.9508900647317877,11.873947181723594,-0.03910181032896947,1.5524255894800838,-0.5884794080160637
1.943154296264875,11.56602743237518,-0.03825587434015901,1.5267719040040466,-0.5697232535245209
1.9355864177725461,11.263186430897886,-0.0374229105831302,1.5016381107689045,-0.5516176101256459
1.9281838144478674,10.965322093783808,-0.03660312266365659,1.4770052603718717,-0.5341289970571824
1.9209515917007933,10.672336893628444,-0.03571910480708252,1.4528467411817727,-0.5150706376119856
1.9138940108870646,10.384136777923391,-0.03485670333020552,1.429154415868769,-0.4968741489142611
1.9070067848615717,10.10063015629611,-0.034015556924723446,1.4059118004040407,-0.47949043075917164
1.90028570152546,9.821728660763888,-0.03319527643639399,1.3831031549181743,-0.4628737101364037
1.893726628817534,9.547347001120343,-0.03239545064286577,1.3607134415172797,-0.44698127994871356
1.8873255186297393,9.277402828474806,-0.03161565123508036,1.3387282849380957,-0.43177326098356816
1.8810784097956295,9.011816606398934,-0.03085543710601962,1.3171339358206042,-0.4172123848300918
1.874981430281343,8.750511489177246,-0.030114358036843914,1.2959172363962763,-0.4032637956857058
1.8690307986917962,8.493413206696843,-0.029391957858624907,1.2750655884077384,-0.3898948692189972
1.8632228251901686,8.24044995554691,-0.02868777715764888,1.254566923091582,-0.3770750468513355
1.8575539119160616,7.99155229593071,-0.028001355583423593,1.2344096730704348,-0.36477568399290233
1.8520205529766325,7.746653054022325,-0.027332233810867315,1.2145827460134329,-0.352969910921988
1.8466193340753931,7.50568722942738,-0.026679955201526225,1.195075499936015,-0.3416325051321261
1.841346931834949,7.268591907431713,-0.026044067202913378,1.175877720020654,-0.3307397740920358
1.836200112862651,7.035306175744665,-0.02542412252006758,1.1569795968498289,-0.3202694474702921
1.8311757326017353,6.805771045464546,-0.02481968008908962,1.1383717059513534,-0.31020057797177397
1.8262707340049626,6.579929376012991,-0.024230305878637424,1.1200449885641908,-0.30051345001765445
1.8214821460628914,6.3577258038025555,-0.02365557354207446,1.101990733540171,-0.29118949557623885
1.8168070822146738,6.139106674418169,-0.023095064940101502,1.0842005603036786,-0.28221121651939235
1.8122427386655433,5.924019978108056,-0.022548370551204146,1.0666664027974369,-0.27356211293957255
1.807786392631916,5.712415288393508,-0.02201508978506904,1.049380494348053,-0.2652266169164197
1.803435400532187,5.5042437036197,-0.02149483121221834,1.0323353533900441,-0.2571900312701721
1.7991871961388204,5.299457791281526,-0.02098721272144868,1.0155237699916944,-0.24943847288250875
1.795039288705155,5.098011534969324,-0.02049186161520662,0.9989387931303267,-0.24195882020432494
1.7909934290053955,4.900028515410735,-0.01996673538238842,0.9808914024555485,-0.26822711956447687
1.7870488539508274,4.705643809414003,-0.019479015163292944,0.9629556575117916,-0.2961573534562482
1.7831981538371209,4.5148353887927115,-0.019027985973769944,0.9451285487011146,-0.3256420338862294
1.779434068071085,4.327581815715327,-0.018612871686591807,0.9274071820727385,-0.3565761389932122
1.775749496778408,4.143862220004696,-0.018232841240177045,0.9097887750335822,-0.38885688112803035
1.7721375112235673,3.963656277257247,-0.01788701430823044,0.8922706524409041,-0.42238348018296573
1.768591363145951,3.7869441877065846,-0.017574466467932766,0.8748502430657245,-0.45705694124427965
1.7651044931090718,3.6137066557581967,-0.017294233900856507,0.8575250764181576,-0.4927798356487288
1.761670537953235,3.4439248701235563,-0.017045317657513933,0.8402927799282492,-0.5294560845254808
1.7582833374361502,3.277580484482886,-0.016826687513333573,0.8231510764784378,-0.5669907438984895
1.7549369401407282,3.114655598606408,-0.016637285440884716,0.8060977822863539,-0.6052897904108848
1.7516256087246096,2.955132739863835,-0.016476028720301687,0.7891308051393926,-0.6442599067119467
1.748343824581872,2.798994845051361,-0.016341812707074844,0.7722481429853568,-0.6838082655183629
1.7450862919838,2.6462252424641726,-0.016233513273647773,0.755447882886533,-0.7238423113242167
1.7418479417625785,2.4968076341407333,-0.01614998893856406,0.7387282003478631,-0.7642695386879101
1.7386239345993006,2.350726078202598,-0.016090082694214927,0.7220873590334732,-0.8049972659683194
1.735409663975727,2.2079649712102736,-0.01605262354152268,0.7055237108897682,-0.8459324033160778
1.7322007588478625,2.06850903045153,-0.01603642773712412,0.689035696697677,-0.886981213648086
1.728993086098574,1.9323432760736132,-0.016040299755760663,0.6726218470815054,-0.9280490652431224
1.7257827528262375,1.7994530129647295,-0.01606303296760287,0.6562807840073234,-0.9690401744926045
1.7225661085267676,1.6698238122829991,-0.016103410027098718,0.6400112228099748,-1.009857337221896
1.7193397472273981,1.543441492522522,-0.016160202966594827,0.6238119747947874,-1.0504016468626673
1.7161005096322994,1.4202920999962423,-0.01623217298439255,0.6076819504679981,-1.0905721976042724
1.7128454853425588,1.3003618886035433,-0.016318069913013968,0.5916201634589763,-1.1302657704803931
1.7095720152163363,1.1836372987368762,-0.01641663134920952,0.5756257352077033,-1.1693765001548513
1.7062776939391582,1.0701049351658192,-0.016526581422573915,0.5596979005028603,-1.207795519956118
1.702960372879453,0.9597515437185784,-0.016646629174477297,0.5438360139695511,-1.2454105824725452
1.699618163310677,0.8525639865594812,-0.016775466513281254,0.5280395576214122,-1.2821056527590495
1.6962494400888088,0.7485292158363421,-0.016911765705399876,0.5123081496099624,-1.3177604709209867
1.6928528458828114,0.647634245442859,-0.017054176354576442,0.49664155432487966,-1.3522500805336608
1.6894272960659884,0.5498661206080868,-0.017201321813652127,0.48103969402285535,-1.385444319029517
1.6859719843882273,0.455211884986781,-0.017351794963959964,0.46550266219018777,-1.4172072658457038
1.6824863895631197,0.363658544880181,-0.017504153287115947,0.4500307388757781,-1.4473966437827241
1.6789702829201882,0.27519303016589447,-0.017656913142198857,0.43462440826710713,-1.4758631686969057
1.6754237372911813,0.1898021514569379,-0.017808543147868786,0.4192843788224618,-1.5024498423612085
1.6718471373210373,0.10747255294285196,-0.01795745655357254,0.4040116063183765,-1.5269911831195186
1.6682411914190556,0.028190660288821334,-0.01810200246624451,0.388807320221909,-1.5493123888875509
1.6646069455945969,-0.04805737711861724,-0.01824045577834187,0.3736730538524748,-1.5692284272054389
1.6609457994548638,-0.12128575038948952,-0.018371005618990428,0.3586106788562202,-1.5865430475506348
1.6572595246808106,-0.19150906273258528,-0.018491742121540436,0.3436224445747341,-1.601047712161993
1.6535502863419955,-0.2587424094845261,-0.018600641266611928,0.3287110229446477,-1.6125204434808238
1.6498206674635565,-0.32300146773973637,-0.018695547517779517,0.31387955960747094,-1.620724589382884
1.6460736973203376,-0.38430259689317126,-0.018774153914408315,0.2991317319269134,-1.6254075122427465
1.642312884007083,-0.4426629515441718,-0.01883397921813686,0.28447181458311926,-1.6262992153965827
1.6385422519233992,-0.4981006083331536,-0.018872341618702368,0.26990475330672675,-1.623110932008131
1.6347663849236,-0.5506347083717031,-0.018886328379290582,0.2554362470787733,-1.6155337185393364
1.6309904760234781,-0.600285616947076,-0.01887276062192905,0.2410728386749706,-1.6032371206878577
1.6272203847425213,-0.6470751020796897,-0.01882815218763932,0.22682201265116042,-1.5858680177477527
1.6234627034136513,-0.6910265332010113,-0.018748661101059067,0.21269229856207347,-1.5630498076865127
1.6197248341498987,-0.7321651005664833,-0.018630031536467192,0.19869337509265433,-1.5343821782680465
1.616015078678948,-0.770518054819334,-0.018467523173039582,0.18483616743585754,-1.499441831471989
1.6123427440424631,-0.8061149640685343,-0.0182558231918083,0.17113292505617622,-1.4577847064947738
1.6087182683748482,-0.8389879824813207,-0.01798893348434239,0.15759725907166638,-1.408950504320345
1.6051533729057863,-0.8691721190628456,-0.017660021206276688,0.1442441067435586,-1.3524706844172727
1.6016612494416098,-0.8967054871085338,-0.017261213435488518,0.1310895737132981,-1.2878816152945667
1.5982567976549258,-0.9216295026562165,-0.016783304431352966,0.11815058176350197,-1.2147452401458234
1.594956934845301,-0.943988983022571,-0.016215323664893703,0.10544422190003926,-1.13268044666042
1.5917810145424722,-0.9638320737848858,-0.01554387936339353,0.09298668572309926,-1.0414091546444784
1.5887514128116347,-0.9812099065412951,-0.01475213794498166,0.08079164184096722,-0.9408214841102625
1.5858943778293417,-0.9961758693590852,-0.013818211877947703,0.06886798633691106,-0.8310630917972437
1.5832412983069026,-1.0087843807420924,-0.012712583346443729,0.05721712749314734,-0.7126425360334924
1.580830647658044,-1.0190891478755546,-0.011393923142142609,0.0458305438415011,-0.5865436325433642
1.57871105277491,-1.027141156840841,-0.009802025689197292,0.03468954581139624,-0.4543038368653666
1.576946401627275,-1.0329872533969322,-0.007844485787154049,0.023771419749546843,-0.31798826915705025
1.575625487328741,-1.0366715642988567,-0.0053646571981842625,0.013071689269695394,-0.17997006096926213
1.574886983655551,-1.0382471516662974,-0.0020203795337178504,0.0026841844047193874,-0.042463027215854626
