x,y,v_x,v_y,omega
2.375,32.48,0.0,3.948717948717949,-3.591836734693878
2.3737831103352347,31.66308055527241,-0.011589425378716031,3.831467239163838,-3.2893398659833775
2.3703664193638496,30.87011616731356,-0.02095048863447804,3.7205745509204236,-3.0255695161350187
2.3651743949813633,30.099827289579633,-0.02849736262729552,3.6155099989265134,-2.794212510765065
2.358553238706285,29.351039429782286,-0.03456126856392318,3.515802951524422,-2.590158064586664
2.350786404527644,28.62267159659596,-0.03940858075646995,3.421033555012001,-2.4092399523300623
2.3421067664086217,27.913726367660374,-0.04325463942469432,3.330825768184086,-2.248039680536351
2.3327062203378937,27.223281296167034,-0.046274370772713805,3.2448415793715006,-2.103734938748265
2.3227433077651045,26.550481433266004,-0.04861051087289871,3.162776162543077,-1.9739819834548014
2.3123493023932324,25.894532788419728,-0.050380016478264275,3.084353788373833,-1.8568236770162867
2.301633095831951,25.254696584008197,-0.05167909362917774,3.0093243488788475,-1.7506170828407974
2.2906851386617597,24.630284186900166,-0.0525871651345509,2.9374603854833654,-1.653976082476615
2.2795806344243488,24.02065262038812,-0.05317001807888495,2.8685545336789597,-1.5657256148189702
2.2683821395771115,23.425200576276197,-0.05348231379956431,2.8024173150060503,-1.4848649681299908
2.257141688700913,22.84336486003997,-0.05356959930708704,2.7388752205770523,-1.410538168800261
2.2459025384715576,22.274617212595,-0.053469926686775714,2.677769040803599,-1.3420099672533572
2.2347006040911737,21.71846146087108,-0.053215162650216606,2.6189524041861203,-1.278646263765356
2.2235656465558677,21.1744309565073,-0.052832051971741345,2.562290494516531,-1.2198980755984845
2.2125222572246686,20.642086267874273,-0.05234308451587039,2.5076589210361173,-1.1652883435353365
2.2015906768443445,20.121013095536448,-0.05176720482054779,2.4549427202765024,-1.1144010264390858
2.190787478870406,19.61082038537763,-0.05112039493125338,2.4040354717122527,-1.0668720483839862
2.1801261411507222,19.11113861707359,-0.050416154780018416,2.354838512135744,-1.0223817526775476
2.1696175254593557,18.621618248524037,-0.049665899423471854,2.3072602359552428,-0.9806485870105263
2.159270280720995,18.141928299344798,-0.0488792885609117,2.261215470513661,-0.9414237987050516
2.1490911828490535,17.671755058644926,-0.04806450069567903,2.216624917104205,-0.9044869620975303
2.1390854217774713,17.210800904132597,-0.047228461890818044,2.173414649679877,-0.8696421941429682
2.129256844377267,16.75878322115802,-0.04637703715874478,2.1315156643637105,-0.836714941373931
2.1196081604201655,16.315433411650478,-0.045515191004124815,2.0908634738033416,-0.8055492429271546
2.110141117510138,15.880495984074372,-0.04464712242470883,2.0513977412071984,-0.7760053916428986
2.1008566498919183,15.45372771654229,-0.04377637870119248,2.0130619495745554,-0.7479579291559775
2.091755005218309,15.034896886105148,-0.042905951523659856,1.975803102207725,-0.7212939221377509
2.0828358526795308,14.623782558009115,-0.04203835836946689,1.9395714510878448,-0.6959114759640164
2.074098375339587,14.220173929382366,-0.04117571153475704,1.9043202501193028,-0.671718449503906
2.065541349063909,13.823869722405504,-0.04031977680503788,1.8700055306127015,-0.6486313407867121
2.057163210041291,13.434677622538569,-0.0394720234103699,1.8365858966914363,-0.6265743182729919
2.048962112586769,13.052413757835076,-0.038633666632694956,1.8040223385799243,-0.6054783765439622
2.0409359786488395,12.676902215777488,-0.037805704204731894,1.77227806196853,-0.5852805985965631
2.0330825402248625,12.307974594425858,-0.036988947452191445,1.7413183318565362,-0.5659235097242985
2.025399375704879,11.945469584988203,-0.036184047976220025,1.711110329454474,-0.5473545102831125
2.017883941010163,11.589232583202609,-0.03539152054488734,1.6816230208845042,-0.5295253765732063
2.010533596263539,11.239115327171415,-0.03461176275629091,1.652827036555424,-0.5123918206812443
2.00334562861964,10.89497555951105,-0.03384507194751328,1.6246945602099556,-0.49591310147904466
1.9963172717913968,10.556676711880414,-0.03309165975003908,1.5971992267484953,-0.4800516801101905
1.9894457227314164,10.224087610128944,-0.032351664630726536,1.5703160280274002,-0.4647729142522151
1.9827281558610683,9.89708219846522,-0.03162516270592048,1.544021225912817,-0.4500447862494365
1.9761617351842744,9.57553928119021,-0.030912177073069817,1.5182922719444207,-0.43583766089503395
1.9697436245754767,9.259342280668058,-0.03021268586786141,1.493107733028451,-0.4221240692210004
1.9634796415782734,8.948379595477828,-0.029444295057885046,1.4684416497356412,-0.4065200713516963
1.9573748387242431,8.64254376215111,-0.028696684504307204,1.4442805724235859,-0.39165278543820164
1.9514249004997324,8.341730672983594,-0.02796939382436688,1.4206059910765605,-0.3774785222030547
1.9456256097318891,8.04584001586938,-0.027261946821758608,1.3974002671540382,-0.36395667512277097
1.9399728504094975,7.754775096681605,-0.026573856248638037,1.374646582253341,-0.35104946850874025
1.9344626095800261,7.4684426720569945,-0.025904627841566198,1.3523288903620039,-0.33872172890984004
1.9290909784647485,7.186752791861004,-0.025253763732505142,1.3304318734093248,-0.32694067743011807
1.9238541529140423,6.909618650668438,-0.024620765321841504,1.3089408998532175,-0.3156757408282154
1.9187484333079752,6.6369564476473,-0.02400513568832026,1.2878419860623989,-0.30489837950470905
1.9137702239926584,6.368685254281829,-0.023406381600410517,1.2671217602754379,-0.2945819306937626
1.9089160323302177,6.104726889414465,-0.02282401518473973,1.2467674289375426,-0.28470146536026547
1.9041824674293617,5.8450058011265185,-0.02225755529960311,1.2267667452333946,-0.2752336574663256
1.8995662386141285,5.589448955013754,-0.021706528654997084,1.2071079796500725,-0.26615666441442565
1.8950641536802808,5.337985728446572,-0.0211704707149825,1.1877798924183203,-0.2574500176012097
1.8906731169818087,5.090547810434856,-0.020648926413322843,1.1687717076932616,-0.24909452212786484
1.8863901273839487,4.847069106745597,-0.020141450709152173,1.15007308934731,-0.24107216481222893
1.8822122761138775,4.60748564994698,-0.019647609005811535,1.1316741182585623,-0.23336602973568876
1.8781367445357162,4.371735514076139,-0.01916697745286957,1.1135652709875468,-0.22596022063599788
1.874160801872557,4.139758733649337,-0.018699143148643713,1.0957373997438833,-0.2188397895265476
1.8702818028948383,3.9114972267532337,-0.018243704258203555,1.078181713552332,-0.21199067098439975
1.866497185591446,3.686894721974074,-0.017800270059816853,1.0608897605348966,-0.20539962160444736
1.8628044688374052,3.4658966889385283,-0.01736846093104827,1.0438534112322133,-0.19905416416619667
1.8592012500698036,3.248450272255333,-0.016947908284203776,1.0270648428934395,-0.19294253610355439
1.855685202981715,3.0345042286612447,-0.01653825445949833,1.0105165246693142,-0.1870536419072584
1.8522540752422336,2.8240088671879207,-0.01613915258318312,0.9942012036480611,-0.18137700912474208
1.8489089549484805,2.617049064990777,-0.015719135928750582,0.9768445315628269,-0.20111795136371502
1.8456489099570574,2.4137222464207753,-0.015328911608613303,0.9596013595800492,-0.22270777423590715
1.842467700536277,2.2140049062836304,-0.014968320970245188,0.9424685464880018,-0.24603898346717012
1.8393591298541727,2.0178741863994,-0.014637114097417747,0.9254430714570661,-0.2710069483225849
1.8363170622874163,1.8253078508442542,-0.01433495796692943,0.9085220290681436,-0.2975096730521449
1.833335440086346,1.6362842621955878,-0.01406144394802366,0.8917026247286655,-0.32544757521469303
1.830408298529187,1.4507823587007636,-0.0138160946915863,0.8749821704601344,-0.3547232700101603
1.8275297796890833,1.2687816322928924,-0.013598370452260691,0.8583580810433976,-0.3852413597702738
1.824694144928889,1.090262107379779,-0.013407674882921203,0.8418278705100684,-0.4169082277722228
1.8218957862307474,0.915204320334297,-0.013243360337475382,0.825389148970713,-0.44963183554828545
1.8191292364602698,0.7435892996162465,-0.01310473271469317,0.8090396197726292,-0.48332152286706287
1.8163891786585973,0.5753985464569809,-0.01299105587266316,0.7927770769822743,-0.5178878095586106
1.8136704544497124,0.4106140160389202,-0.012901555640525546,0.7765994031896999,-0.5532421983462034
1.8109680716450702,0.24921809910235737,-0.012835423451304725,0.7605045676347236,-0.5892969778314568
1.8082772111229048,0.09119360391171938,-0.01279181961693755,0.7444906246570695,-0.6259650247567216
1.8055932330554125,-0.06347626148718177,-0.012769876263941887,0.728555712475353,-0.6631596046386466
1.8029116825534137,-0.21480790678887018,-0.012768699945570113,0.7126980523026296,-0.7007941698290878
1.8002282947950383,-0.36281737680062065,-0.01278737394371888,0.6969159478092976,-0.7387821540135223
1.797538999702462,-0.5075203687400816,-0.012824960271293779,0.6812077849475046,-0.7770367621021583
1.7948399262287476,-0.6489322495358323,-0.012880501383128887,0.6655720321549081,-0.815470754404206
1.7921274063154238,-0.7870680732128719,-0.01295302160090759,0.6500072409597444,-0.8539962239004385
1.7893979785805754,-0.9219425984500873,-0.013041528254792007,0.6345120470137449,-0.8925243653422241
1.7866483917969531,-1.0535703064029107,-0.013145012541610615,0.6190851715845932,-0.9309652348055633
1.7838756082199576,-1.181965418891565,-0.01326245009644074,0.6037254235454299,-0.9692274982151131
1.7810768068263538,-1.307141917063916,-0.01339280127121485,0.5884317019055103,-1.0072181672244527
1.7782493865262703,-1.429113560652027,-0.013535011110532544,0.5732029989336296,-1.0448423206935518
1.7753909694134964,-1.5478939079531813,-0.013688009011124649,0.5580384039345052,-1.0820028098411802
1.772499404122358,-1.6634963366798559,-0.013850708047336768,0.5429371077481232,-1.1185999449674466
1.7695727693636334,-1.7759340658390101,-0.014022003940514859,0.5278984080533217,-1.1545311614385392
1.766609377717132,-1.8852201788194378,-0.014200773645214953,0.5129217155698296,-1.1896906624010521
1.7636077797648217,-1.9913676478873938,-0.014385873519643398,0.49800656126787163,-1.2239690354464814
1.760566768655894,-2.0943893603152404,-0.014576137041572637,0.48315260471159194,-1.2572528401777991
1.757485385204002,-2.194298146396598,-0.014770372024066636,0.46835964368227373,-1.289424163340899
1.75436292362733,-2.291106809634485,-0.014967357277570564,0.45362762525001393,-1.3203601378774463
1.7511989380542912,-2.3848281594270304,-0.01516583865613235,0.4389566584885391,-1.349932421938352
1.7479932499317627,-2.47547504661938,-0.015364524415567163,0.424347029057635,-1.3780066335789303
1.7447459564891221,-2.5630604023411507,-0.015562079800056614,0.4097992159115908,-1.404441736554104
1.7414574404302365,-2.647597280607066,-0.015757120760759826,0.39531391043046044,-1.429089372369918
1.7381283810473591,-2.7290989052252357,-0.015948206695215985,0.3808920383140049,-1.4517931335642307
1.7347597669760377,-2.8075787216339165,-0.01613383207927428,0.3665347846258194,-1.4723877731415627
1.7313529108391439,-2.883050454374448,-0.016312416843522973,0.35224362242683177,-1.4906983452587959
1.7279094660616519,-2.955528171005902,-0.016482295323066443,0.3380203454917706,-1.5065392727733118
1.7244314461766066,-3.0250263533764965,-0.01664170358212738,0.3238671056567769,-1.519713338304373
1.720921246987868,-3.0915599772870905,-0.016788764882049882,0.30978645539651134,-1.5300105972868983
1.7173816720080533,-3.1551446017117755,-0.01692147302094592,0.2957813962671784,-1.5372072145012858
1.7138159616524846,-3.2157964688756806,-0.017037673222564588,0.2818554338652228,-1.5410642303092588
1.7102278267445379,-3.2735326166231076,-0.01713504018645383,0.26801263991981034,-1.5413262701412849
1.7066214869784444,-3.328371004627691,-0.017211052823959728,0.2542577220285851,-1.5377202218776187
1.703001715098159,-3.3803306560783,-0.017262965083521455,0.24059610131055756,-1.5299539224183503
1.6993738876943882,-3.4294318164859305,-0.017287772095246248,0.22703399780975114,-1.5177149195522992
1.6957440437105578,-3.4756961311414614,-0.0172821706079,0.21357852271911862,-1.500669412026674
1.692118952005248,-3.5191468424255277,-0.0172425122998135,0.2002377752243617,-1.4784615250681319
1.688506189680808,-3.5598090074944153,-0.017164747932948032,0.18702093971743616,-1.450713158620563
1.6849142334168852,-3.5977097356334795,-0.01704435934250763,0.1739383758927259,-1.4170247629055563
1.6813525668454892,-3.632878442470904,-0.01687627467078816,0.16100168922560862,-1.3769775670169304
1.6778318082412287,-3.665347114820534,-0.01665475965550268,0.1482237617232262,-1.330138033497928
1.6743638647615724,-3.69515057451634,-0.01637327348408132,0.1356187115701609,-1.2760656636620984
1.6709621226347369,-3.722326721321693,-0.01602427058101864,0.12320173419508278,-1.2143257660149156
1.6676416878534277,-3.7469167227485514,-0.015598917812400992,0.11098875558455269,-1.1445094447680613
1.6644197004090948,-3.768965101340399,-0.015086676895533469,0.09899580243303605,-1.0662638429586249
1.6613157590473486,-3.7885196473783935,-0.014474669406811441,0.0872379693574188,-0.9793364300064873
1.6583525164094093,-3.805631059494644,-0.013746689049752597,0.07572786032118556,-0.8836373868334801
1.6555565418142764,-3.82035219672602,-0.012881640427704264,0.0644734466442872,-0.7793227878629259
1.652959610220516,-3.8327368377118205,-0.011851041417633146,0.053475515125234824,-0.6668960589578429
1.6506006800784787,-3.8428379388892964,-0.010614959935103028,0.04272544846976534,-0.5473125969358976
1.648529022833491,-3.850705661088128,-0.00911510906478101,0.032205239138121546,-0.4220495203447181
1.6468094608890382,-3.856386063807392,-0.007261671358577857,0.02189383437866829,-0.2930732638505855
1.6455323848330674,-3.8599228204203158,-0.004900957745907646,0.011789561934891758,-0.16262169411235947
1.6448404921859725,-3.861369977036425,-0.0016884960359472546,0.001992882028069314,-0.032757561369278654
