x,y,v_x,v_y,omega
2.375,32.48,0.0,3.7948717948717947,-3.1020408163265305
2.37408779050684,31.731499821221785,-0.009122094931602707,3.6901299929103124,-2.861595337693108
2.37151366678384,31.00342851153716,-0.016619142298394562,3.5905831039359706,-2.6493772107356435
2.367574713642326,30.294786862430794,-0.022770389116746045,3.4958333871276848,-2.4611462275472156
2.3625173434974873,29.604651142618394,-0.027803312331640524,3.4055238109963173,-2.293408331085502
2.3565466030650644,28.932165486396766,-0.03190409199258917,3.3193327512199535,-2.143267523322108
2.349833615794042,28.27653525687266,-0.03522578071763749,3.2369695440210924,-2.0083102463716096
2.342521565995731,27.637021229725917,-0.03789471726547108,3.158170727446315,-1.886514472677817
2.3347305350759835,27.012934472794257,-0.04001559193200118,3.0826968418702902,-1.7761777459360175
2.3265614289066288,26.403631819650244,-0.04167546976154732,3.0103296895698404,-1.6758598639817368
2.3180991816315433,25.808511853250216,-0.042947002989308175,2.940869974430427,-1.5843369529952738
2.3094153804342468,25.22701132992096,-0.043891008983655375,2.8741352588621556,-1.5005644618476421
2.300570424651361,24.658601985309232,-0.044558548845202835,2.8099581872551185,-1.4236471845030123
2.2916153086724926,24.102787673104196,-0.044992610943482385,2.7481849347952307,-1.352814852012661
2.2825930995459247,23.559101794834902,-0.045229480322193545,2.6886738478977383,-1.2874021627299324
2.273540165800592,23.027104985204936,-0.04529985713113625,2.6312942484019204,-1.2268323678287352
2.2644872027242364,22.506383022527324,-0.0452297736324162,2.575925378374188,-1.1706037191633567
2.2554600904764532,21.996544938074123,-0.04504134884541917,2.5224554661578296,-1.118278232638135
2.246480614414247,21.497221301719627,-0.044753411776642396,2.4707808973871273,-1.0694723333336231
2.2375670714505134,21.00806266426062,-0.04438201786069554,2.420805477202943,-1.0238490366267687
2.2287347818349623,20.52873813934217,-0.043940878294814655,2.3724397719815604,-0.9811113883772803
2.2199965221991516,20.05893411008329,-0.04344171806328982,2.3256005206072627,-0.9409969413755178
2.211362892854816,19.59835304734748,-0.042894575380067995,2.280210106750824,-0.9032730880106379
2.202842630032323,19.146712428190924,-0.04230805284486139,2.2361960848147246,-0.8677331030634957
2.1944428718807525,18.703743744388035,-0.041689528670844876,2.1934907532141854,-0.834192777596055
2.186169385534336,18.26919159211512,-0.04104533479331657,2.152030769514939,-0.8024875465846508
2.17802676131242,17.842812834896506,-0.040380907425846414,2.1117568026712386,-0.7724700303744497
2.1700185791068995,17.424375832807094,-0.039700914629357556,2.0726132182228674,-0.7440079241044766
2.1621475511789265,17.01365973170124,-0.03900936465037226,2.034547792835694,-0.7169821806573834
2.1544156449010603,16.61045380691556,-0.0383096981282897,1.9975114550210589,-0.6912854419656774
2.1468241884144903,16.214556856487757,-0.03760486673741206,1.9614580492569975,-0.6668206810803362
2.1393739617014136,15.825776639455185,-0.036897400393351515,1.9263441210687169,-0.6435000236128539
2.1320652751824456,15.443929355256806,-0.036189464796329014,1.8921287209150657,-0.6212437222623605
2.1248980376237583,15.068839160667434,-0.035482910790544595,1.858773224978662,-0.5999792623458202
2.1178718148669873,14.700337721052012,-0.03477931677716715,1.8262411711755566,-0.5796405797291563
2.1109858806673816,14.338263793045403,-0.034080025218891113,1.794498108890527,-0.5601673754447927
2.1042392607346243,13.982462836045322,-0.033386174108680236,1.763511461110285,-0.5415045136844283
2.097630770909954,13.632786650157051,-0.032698724138020656,1.733250397772424,-0.5236014918618745
2.0911590502775823,13.289093038452243,-0.03201848218569545,1.7036857192756365,-0.5064119731198642
2.0848225898937445,12.951245491603775,-0.031346121652687124,1.674789749209036,-0.4898933730639865
2.0786197577195757,12.619112893137135,-0.030682200088997115,1.6465362354573734,-0.4740064936928149
2.072548820261552,12.292569243698772,-0.030027174491240746,1.6189002589262758,-0.45871519849383124
2.0666079613530655,11.971493402885255,-0.029381414593625473,1.5918581492088926,-0.4439861235210072
2.0607952984509486,11.655768847305989,-0.028745214427542763,1.565387406583771,-0.42978841998741335
2.055108896769693,11.345283443668158,-0.02811880238501548,1.5394666297945174,-0.4160935245160252
2.049546781532449,11.039929235777127,-0.027502349987421515,1.5140754491158004,-0.4028749537113485
2.0441069485804815,10.739602244439716,-0.02689597953225265,1.4891944642583175,-0.3901081201579799
2.0387932935116897,10.444202735187837,-0.026240571155667317,1.4648006282604695,-0.37612096790616
2.0336090874453356,10.153634556086828,-0.025601489507872874,1.4408811627496196,-0.36277005646214305
2.0285510941021254,9.86780451739559,-0.024978443924228762,1.417419224162751,-0.350018945465204
2.02361613726235,9.586622721704778,-0.024371124473527076,1.3943987327453737,-0.337833677032709
2.0188011041962337,9.310002415519556,-0.02377920618763417,1.3718043291068338,-0.3261825798050108
2.0141029483077264,9.03785984923816,-0.023202352697440407,1.349621333707132,-0.31503609051792486
2.0095186911026364,8.770114144962825,-0.02264021935345808,1.3278357090462074,-0.3043665913546292
2.0050454235773976,8.506687171623511,-0.022092455898930163,1.3064340243469164,-0.29414826152077916
2.000680307112076,8.2475034269347,-0.021558708754289495,1.2854034225412159,-0.2843569416556102
1.9964205739402439,7.992489925742024,-0.021038622964027708,1.2647315893855455,-0.2749700098407873
1.9922635272588094,7.74157609434884,-0.020531843850317186,1.2444067245462982,-0.2659662681003078
1.9882065410325853,7.494693670443237,-0.020038018411924992,1.224417514509744,-0.2573258384010767
1.984247059541199,7.251776608273964,-0.01955679650193642,1.2047531071829716,-0.24903006726676086
1.9803825967096598,7.012760988749321,-0.01908783181345695,1.185403088063465,-0.24106143820884135
1.9766107352584448,6.777584934156476,-0.01863078269869152,1.166357457864974,-0.23340349125984766
1.9729291257042227,6.546188527220334,-0.018185312843528794,1.1476066114964518,-0.22604074896582432
1.9693354852381781,6.318513734240778,-0.01775109181691697,1.1291413182991217,-0.21895864825922318
1.9658275965053018,6.094504332065437,-0.017327795511847963,1.1109527034542839,-0.21214347769057845
1.9624033063048552,5.874105838671873,-0.01691510649261816,1.093032230481353,-0.20558231954832934
1.959060524229477,5.65726544714855,-0.016512714261163283,1.0753716847518824,-0.19926299644171883
1.9557972212579973,5.443931962878256,-0.016120315453634716,1.0579631579510682,-0.19317402196245173
1.9526114283149374,5.234055743740804,-0.015737613976963466,1.040799033423451,-0.18730455507728466
1.9495012348078493,5.027588643164027,-0.015364321093917756,1.0238719723443237,-0.18164435793643038
1.9464647871520497,4.824483955863322,-0.015000155464077585,1.0071749006627408,-0.17618375681201254
1.9435002872909215,4.624696366120446,-0.014644843147203752,0.990700996766029,-0.1709136059071766
1.9406089807420437,4.428353592831442,-0.0142682223415763,0.972726736124,-0.19986839395622605
1.937789580782405,4.235594751567739,-0.013925777254810109,0.9548616765130353,-0.23038500765492173
1.935035315731376,4.046398293579745,-0.013616873255479835,0.9371029033668798,-0.2623597128308153
1.9323395469696694,3.8607432419710506,-0.013340814361586607,0.9194476127200666,-0.2956910221450486
1.9296957806027648,3.6786091699741803,-0.013096849307459872,0.9018931072486402,-0.33027947323672835
1.9270976779633828,3.4999761799819886,-0.012884177086358393,0.8844367926732716,-0.36602741122029164
1.9245390650542755,3.3248248832631226,-0.012701952004714684,0.8670761745153991,-0.4028387746490193
1.9220139410257442,3.1531363802916452,-0.012549288280598678,0.8498088551993918,-0.44061888405882116
1.9195164857761065,2.9848922416220915,-0.01242526421577926,0.8326325314961301,-0.47927423220078114
1.9170410667577575,2.8200744892418896,-0.01232892596771012,0.8155449923058751,-0.5187122750584636
1.9145822450665033,2.658665578333217,-0.012259290944833226,0.7985441167808631,-0.5588412227263307
1.9121347808874445,2.5006483793760523,-0.012215350845753314,0.7816278727907806,-0.5995698291983973
1.9096936383668628,2.3460061605232596,-0.012196074360064393,0.7647943157371503,-0.64080718008097
1.9072539899762686,2.1947225701769675,-0.012200409545877833,0.7480415877257707,-0.6824624771993867
1.9048112204320424,2.0467816196934194,-0.01222728589638411,0.73136791710972,-0.7244448190154039
1.9023609302318991,1.9021676661405351,-0.012275616105048173,0.7147716184191357,-0.7666629757084776
1.8998989388677683,1.7608653950288158,-0.012344297536261845,0.6982510926980666,-0.8090251576997167
1.8974212877735996,1.6228598029316856,-0.012432213405423347,0.6818048282732466,-0.8514387763107284
1.8949242430661124,1.4881361799058865,-0.012538233669449601,0.6654314019847365,-0.8938101951497431
1.892404298136606,1.3566800916159991,-0.01266121562561337,0.6491294809141273,-0.9360444707029913
1.8898581761527153,1.228477361059337,-0.012800004213293407,0.6328978246525049,-0.9780450804788876
1.8872828325304174,1.1035140497783082,-0.012953432009685486,0.6167352881577786,-1.0197136369045834
1.8846754574387794,0.9817764384365866,-0.01312031890669461,0.6006408252594218,-1.0609495850072432
1.8820334784029042,0.8632510066228107,-0.013299471452056703,0.5846134928783522,-1.101649881724246
1.8793545630743829,0.7479244117308959,-0.013489681833157421,0.5686524560407833,-1.141708654475721
1.8766366222433717,0.6357834667490501,-0.01368972647695404,0.5527569937776609,-1.1810168363977667
1.8738778131722982,0.5268151167696828,-0.0138983642337814,0.5369265060160245,-1.2194617753740378
1.871076543338266,0.42100641400951844,-0.014114334106541431,0.521160521585627,-1.2569268137162504
1.8682314746796387,0.3183444911025788,-0.014336352479731038,0.5054587074837499,-1.293290835030542
1.8653415284521824,0.21881653239782395,-0.014563109794832867,0.4898208795637929,-1.3284277744678468
1.8624058908117354,0.12240974295751528,-0.014793266609636663,0.47424701483931064,-1.3622060881959432
1.8594240192538805,0.02911131491106289,-0.015025448968911585,0.45873726562521927,-1.3944881775552171
1.8563956500567573,-0.06109160922869705,-0.015258243002319996,0.44329197577238627,-1.425129762980792
1.8533208068912932,-0.14821197673506248,-0.015490188652322564,0.42791169929123724,-1.4539792024089653
1.8501998107840811,-0.23226286883466685,-0.015719772419797752,0.412597221704784,-1.4808767485645955
1.8470332916423167,-0.3132575494573331,-0.01594541899784653,0.3973495845218617,-1.5056537392922125
1.8438222015780974,-0.39120951923725045,-0.016165481644346204,0.38217011327731687,-1.5281317150133382
1.8405678303015933,-0.46613257552966303,-0.016378231120696057,0.36706044964683604,-1.5481214575644677
1.8372718228898128,-0.5380408793152043,-0.01658184299710781,0.3520225882085465,-1.565421945240404
1.8339362002808337,-0.6069490299849036,-0.016774383092682015,0.3370589184884729,-1.5798192200516206
1.8305633828935801,-0.6728721491324521,-0.01695379077985524,0.32217227298698364,-1.5910851653191034
1.8271562178320615,-0.7358259746240776,-0.017117859835330464,0.3073659819292783,-1.598976195242034
1.8237180102025454,-0.7958269663669526,-0.01726421645983074,0.2926439354994913,-1.6032318636687413
1.820252559155415,-0.8528924253449475,-0.017390294011473226,0.2780106542804291,-1.6035734079894755
1.8167641993649184,-0.9070406276219884,-0.017493303893493108,0.26347136849000163,-1.5997022573393367
1.8132578487863462,-0.9582909751028978,-0.01757020189222728,0.2490321063191022,-1.5912985543472558
1.8097390636918949,-1.0066641648485373,-0.01761764905228742,0.2346997911372776,-1.5780197697341807
1.8062141022002853,-1.0521823786014863,-0.017631965863808705,0.2204823463921926,-1.559499533932817
1.8026899978082662,-1.0948694937863692,-0.017609078056381084,0.2063888054566613,-1.5353468766082659
1.7991746448490409,-1.1347513164444436,-0.01754445153587215,0.1924294211240673,-1.5051461637923456
1.7956768984176854,-1.1718558350967427,-0.017433012777682718,0.17861576539894886,-1.4684581681742115
1.7922066922412418,-1.2062134920284677,-0.017269048986752255,0.1649608039182762,-1.424822921951474
1.7887751794412565,-1.237857464392249,-0.017046079013102167,0.15147891971951727,-1.3737653121499134
1.7853949034939658,-1.266823941044116,-0.016756680459805592,0.13818584679912302,-1.3148048215149024
1.7820800105378558,-1.2931523710791524,-0.0163922491012939,0.12509845355127283,-1.2474714320981903
1.7788465205191175,-1.3168856453358089,-0.015942651086089256,0.11223428901528323,-1.1713305142458468
1.775712685185416,-1.33807015154256,-0.015395702250927647,0.0996107730522127,-1.086020470542539
1.7726994784052907,-1.3567556173925936,-0.014736365550321578,0.0872438854481341,-0.991307742575394
1.7698312931938611,-1.3729946277759737,-0.013945486563975304,0.0751462183856411,-0.887163796300896
1.767136967479792,-1.386841686857018,-0.012997770576715207,0.06332437242483019,-0.7738661993122284
1.7646513399421897,-1.398351728169125,-0.01185850479931014,0.05177604069624933,-0.6521176678378974
1.76241767690857,-1.4075781302373898,-0.010478125536885685,0.04048797998637212,-0.5231584467448687
1.7604916015852226,-1.4145707043875575,-0.008782627696588743,0.029437761515274392,-0.3888163859565664
1.758947970089919,-1.4193750389700597,-0.006653687256446169,0.018605584309777656,-0.25140564987717584
1.7578954569862293,-1.4220369996688333,-0.0038714437804508333,0.00801402267798956,-0.113379874583075
