x,y,v_x,v_y,omega
2.375,32.48,0.0,3.948717948717949,-7.26530612244898
2.372813362219078,31.70160145845835,-0.021866377809216967,3.8352674666985442,-6.679980128322278
2.3666526851561667,30.945291151867814,-0.03974039281990133,3.72783559920679,-6.16624587951301
2.3572458557407323,30.209916532247696,-0.054327901334438516,3.6259105969944003,-5.71289243309791
2.3451931338180714,29.49442120509133,-0.06619931789217087,3.5290426745692347,-5.310774913976202
2.330991375137294,28.797833557051206,-0.07581826891560403,3.4368338058320385,-4.9523815016122
2.3150531931282265,28.119257208117318,-0.08356355117507153,3.348929683506837,-4.6315018549917095
2.2977222258009062,27.457862910984716,-0.08974612209813233,3.2650132878191678,-4.342970687940807
2.279285377805278,26.812881614956364,-0.09462235785815126,3.1847996724643513,-4.082467687670211
2.259982694268504,26.18359847910952,-0.09840447750958645,3.108031686004107,-3.8463601278888553
2.2400153670321017,25.56934766824306,-0.10126879485443703,3.0344764226604446,-3.6315781451189135
2.2195522584253036,24.969507801021418,-0.10336229121354235,2.963922249555998,-3.435515221475783
2.1987352412532744,24.383497946547617,-0.10480788050674977,2.8961762951820176,-3.255948274220737
2.177683588309802,23.81077408591993,-0.10570864892797474,2.8310623110948208,-3.090973107929316
2.156497594862704,23.25082597093487,-0.10615128554300515,2.7684188387557973,-2.9389519852885106
2.1352615792253413,22.70317432423959,-0.10620887083062035,2.708097628196988,-2.7984708177441107
2.1140463768426434,22.167368334791338,-0.10594315299635983,2.6499622662855535,-2.6683040374306493
2.0929114201821637,21.64298341008346,-0.10540641360843767,2.5938869807932257,-2.5473856364134897
2.0719064785769956,21.12961915270785,-0.10464300244324214,2.5397555929628663,-2.4347851835221164
2.0510731178603523,20.626897533780795,-0.10369060472319179,2.487460596307689,-2.329687878410196
2.030445928291229,20.13446123981593,-0.1025812909680421,2.4369023433409502,-2.231377895494329
2.010053560237867,19.651972172974148,-0.10134238956557638,2.3879883250768974,-2.1392244207440134
1.9899195998581505,19.179110087400506,-0.09999721423158904,2.3406325306594953,-2.052669902038095
1.9700633112078407,18.71557134668394,-0.09856567227150873,2.294754876506151,-1.971220126528678
1.9505002665208246,18.26106778943275,-0.09706477459865263,2.2502806960057344,-1.8944358118524693
1.9312428826090293,17.81532569161577,-0.09550906451930036,2.207140282164098,-1.8219254564132894
1.9123008782428532,17.37808481572862,-0.09391097914245969,2.1652684767073747,-1.7533392406150257
1.8936816648543022,16.949097538049802,-0.09228115474305078,2.124604300080831,-1.6883638083727084
1.8753906808429668,16.528128046286152,-0.09062868537030383,2.0850906175556583,-1.6267177884147384
1.8574316780712707,16.114951600799937,-0.08896134234665627,2.0466738373064963,-1.5681479393189752
1.8398069677399194,15.709353853382147,-0.087285760966857,2.0093036368713966,-1.512425822073774
1.8225176316812357,15.311130218207875,-0.08560759961998068,1.9729327148713394,-1.4593449201416373
1.805563704152287,14.920085290194464,-0.08393167566950673,1.9375165652627584,-1.4087181402510136
1.7889443284153685,14.536032306494647,-0.08226208169967575,1.903013271735414,-1.3603756380221217
1.7726578917314852,14.158792647305223,-0.08060228513915886,1.8693833201588355,-1.314162921498539
1.756702141839461,13.788195372566229,-0.0789552137810818,1.8365894272311005,-1.269939193068482
1.7410742875301546,13.424076791473095,-0.07732332931198298,1.804596383700256,-1.2275758964066268
1.7257710855363984,13.066280062031428,-0.07570869062557892,1.7733709107164124,-1.1869554401804279
1.710788915632084,12.714654818156209,-0.07411300841756649,1.7428815280357752,-1.1479700745305508
1.696123845557842,12.36905682205861,-0.07253769232485262,1.7130984329402077,-1.1105208999038327
1.6817716871575301,12.029347639878555,-0.07098389167826562,1.6839933888603436,-1.074516990811233
1.6677280449121819,11.695394338712589,-0.06945253077521608,1.6555396227993282,-1.0398746196018236
1.653988357890416,11.367069203357651,-0.06794433944244355,1.6277117307500624,-1.0065165674680439
1.64054793599173,11.044249471244328,-0.06645987954441435,1.600485590383181,-0.9743715116935042
1.6274019912376443,10.726817084170268,-0.06499956799644639,1.573838280357427,-0.9433734796769989
1.614545664761979,10.414658455567537,-0.0635636967602056,1.5477480056698945,-0.9134613615598899
1.6019740500629227,10.107664252148357,-0.062152450230357315,1.5221940285219164,-0.8845784743856231
1.589682213003606,9.805729188873354,-0.06076592036281041,1.4971566042281232,-0.8566721716604453
1.5776789414627035,9.508754085086654,-0.059266795046212684,1.4725944336388777,-0.8258464963698597
1.5659716483353483,9.216643288571035,-0.05780613622733968,1.448513531517307,-0.7964292511339554
1.5545527180258114,8.929302267015267,-0.05638316686802995,1.4248966840403754,-0.7683393967359915
1.5434146936946953,8.646639851986166,-0.05499707644313054,1.4017274662506198,-0.7415014426090055
1.5325502830947817,8.368568085701252,-0.05364702955600564,1.3789901965985238,-0.7158450065083918
1.5219523628079874,8.095002076581093,-0.0523321733119363,1.356669894603085,-0.691304413792628
1.5116139811153226,7.82585986298259,-0.05105164361471256,1.3347522413819564,-0.6678183323383938
1.5015283597008944,7.561062284561885,-0.049804570529568666,1.3132235428251051,-0.6453294395553454
1.4916888943642845,7.300532860758754,-0.048590082836530914,1.2920706952062044,-0.6237841183519571
1.4820891548924522,7.044197675933713,-0.047407311881792875,1.2712811530441959,-0.6031321792440092
1.4727228842222204,6.791985270724904,-0.046255394820526305,1.250842899043885,-0.5833266060973956
1.4635839970069418,6.543826539224593,-0.04513347733225816,1.2307444159592298,-0.5643233232620658
1.4546665776857837,6.2996546316050335,-0.04404071587932233,1.2109746602363611,-0.5460809820884854
1.4459648781408818,6.059404861850851,-0.04297627956969631,1.1915230373054528,-0.5285607650258323
1.4374733150161563,5.823014620280155,-0.04193935167756003,1.1723793784015082,-0.511726205685514
1.4291864667616005,5.590423290559599,-0.04092913086799737,1.1535339188040434,-0.4955430234173826
1.4210990704581752,5.361572170939731,-0.03994483216625479,1.1349772773946478,-0.47997897109170157
1.4132060184708746,5.136404399456307,-0.03898568770675257,1.1167004374395724,-0.4650036949096654
1.4055023549709489,4.914864882861156,-0.038050947292505535,1.0986947285119344,-0.4505886051809672
1.3979832723625323,4.696900229062475,-0.03713987879165991,1.0809518094748871,-0.43670675711019236
1.3906441076439249,4.482458682869659,-0.036251768394413394,1.0634636524532726,-0.42333274072614246
1.383480338729425,4.2714900648516405,-0.03538592075058764,1.0462225277268986,-0.4104425791708049
1.3764875807538153,4.063945713130579,-0.03454165900550894,1.0292209894837157,-0.3980136346386992
1.3696615823783072,3.8597784279446223,-0.03371832474957243,1.012451862375864,-0.3860245213237103
1.3629982221138623,3.658942418824452,-0.032915277894875104,0.9959082288258531,-0.37445502479011994
1.356500573636143,3.4615669080487805,-0.03206120688231691,0.9778468789308531,-0.39808514124677796
1.3501690693762585,3.2677923925932575,-0.03125383571652906,0.9598982756243679,-0.42344492387568405
1.3439944813296243,3.07759662886415,-0.030492044749813683,0.9420593616666975,-0.4504224892366361
1.3379678098910146,2.890957972688291,-0.029774669636282513,0.9243272000918892,-0.47890861191580386
1.3320802922531902,2.707855355710798,-0.02910050674196041,0.9066989696830433,-0.508796477305852
1.3263234097733991,2.5282682626568516,-0.02846831805595018,0.8891719608564215,-0.5399814405703183
1.3206888944039783,2.352176709377055,-0.027876835638258546,0.8717435719415362,-0.5723607907820866
1.315168734276496,2.1795612215981954,-0.02732476563656452,0.8544113058470619,-0.6058335192399017
1.3097551785227322,2.0104028143029815,-0.026810791901072634,0.8371727671050744,-0.6403000909736428
1.304440741410264,1.844682971663591,-0.026333579223609047,0.8200256592888323,-0.6756622184484086
1.2992182058654766,1.6823836274544988,-0.025891776224263884,0.8029677828020967,-0.7118226364692064
1.294080626452437,1.5234871458702024,-0.025484017906133888,0.7859970330408687,-0.7486848772719277
1.2890213318722183,1.367976302672968,-0.02510892789605136,0.7691113989314643,-0.7861530447619913
1.2840339270439558,1.2158342665946158,-0.024765120386574135,0.7523089618520689,-0.8241315868291322
1.2791122948261051,1.0670445809145725,-0.02445120179193184,0.7355878949483785,-0.8625250646247709
1.274250597434107,0.9215911451339664,-0.024165772128050614,0.718946462857694,-0.9012379176366305
1.2694432776088835,0.7794581966622012,-0.023907426124184537,0.702383021859942,-0.9401742233330465
1.264685059589361,0.6406302924283445,-0.02367475407103918,0.6858960204786322,-0.9792374500759375
1.2599709499415022,0.5050922903245016,-0.02346634240755073,0.6694840005597961,-1.0183302019157803
1.255296238296182,0.37282933038226673,-0.02328077404565016,0.65314559886258,-1.0573539537831425
1.250656498048681,0.24382681557585784,-0.023116628429360863,0.6368795492014914,-1.0962087754783112
1.2460475870736039,0.11807039213696413,-0.02297248132141106,0.6206846851874411,-1.1347930427321677
1.241465648510748,-0.0044540707440603455,-0.022846904307146497,0.6045599436228175,-1.1730031334665312
1.2369071116798478,-0.12376050196784405,-0.02273846400185681,0.588504368615038,-1.21073310721959
1.2323686931852993,-0.23986265047769706,-0.02264572094362794,0.5725171164835239,-1.247874365520717
1.227847398275992,-0.35277410828075517,-0.022567228149443317,0.5565974615470408,-1.2843152907981195
1.2233405225303067,-0.46250833472466724,-0.022501529307411665,0.5407448028920775,-1.3199408611819936
1.2188456539423032,-0.5690786822377376,-0.022447156572623233,0.5249586722386618,-1.3546322383253895
1.2143606754922265,-0.6724984237654041,-0.02240262792814263,0.5092387430380263,-1.3882663251061431
1.2098837682928185,-0.7727807821649222,-0.022366444065936044,0.49358484095715566,-1.4207152897988327
1.205413415412726,-0.8699389618535207,-0.022337084734988764,0.47799695592882285,-1.4518460530209827
1.2009484064896911,-0.9639861830436658,-0.022313004495360958,0.46247525597259675,-1.481519733471297
1.1964878432594255,-1.0549357189432058,-0.02229262780729648,0.4470201030228214,-1.5095910482031947
1.192031146141341,-1.1428009363488911,-0.022274343373548413,0.43163207103402124,-1.5359076629352797
1.1875780620399283,-1.2275953401195707,-0.022256497640579135,0.4163119666727513,-1.560309487723006
1.1831286735408773,-1.3093326220816053,-0.02223738734993174,0.4010608529475637,-1.5826279132492223
1.1786834097044376,-1.3880267149938703,-0.022215251014463908,0.3858800761751075,-1.6026849831038459
1.1742430586855153,-1.4636918522843274,-0.02218825917476077,0.3707712967294313,-1.6202924978142512
1.1698087824412216,-1.5363426343644093,-0.022154503268175522,0.3557365240713594,-1.6352510472029864
1.165382133822849,-1.6059941024317297,-0.022111982915549885,0.34077815660186694,-1.647348969098268
1.1609650763915718,-1.6726618207841,-0.022058591397221685,0.32589902692181405,-1.6563612348098724
1.1565600073470348,-1.7363619687863405,-0.02199209904814693,0.31110245310061285,-1.6620482655498385
1.1521697840173866,-1.7971114437507154,-0.021910134248335628,0.29639229654311183,-1.6641546897636408
1.1477977544311695,-1.8549279761023456,-0.021810161613834197,0.28177302697317846,-1.662408060071853
1.143447792580138,-1.909830258288352,-0.02168945689647937,0.26724979488686695,-1.656517561553774
1.1391243390941255,-1.9618380889280687,-0.02154507796364709,0.2528285115102944,-1.6461727623939404
1.1348324481947962,-2.0109725336530744,-0.02137383102964444,0.23851593573978785,-1.6310424863095485
1.1305778419906898,-2.0572561038882284,-0.021172231011420996,0.22431976661173675,-1.6107739278159496
1.1263669734472987,-2.1007129543841643,-0.020936454422489238,0.2102487383476185,-1.5849921922422552
1.1222070997549767,-2.1413690994839882,-0.020662282500731148,0.1963127126506101,-1.5533005310417087
1.118106368392566,-2.179252646675529,-0.020345031123375507,0.18252275926479208,-1.5152816714460513
1.11407391905793,-2.214394043626072,-0.019979462222983822,0.16889121024061624,-1.4705008245378908
1.1101200059925989,-2.246826331157081,-0.01955966843032827,0.15543166506943945,-1.4185112192285345
1.1062561473705674,-2.276585388850961,-0.019078917789984936,0.14215891186934868,-1.3588633776216845
1.10249531185072,-2.303710151355631,-0.01852943740848931,0.12908871317732323,-1.2911198448818206
1.0988521579247503,-2.328242761013037,-0.0179021018512067,0.11623738339677249,-1.2148777211323096
1.0953433506463848,-2.3502286054306936,-0.017185970932448464,0.10362106077976496,-1.129802060591366
1.0919879947991973,-2.3697161673686367,-0.016367587539426333,0.09125455859963168,-1.0356737937290341
1.0888082468276858,-2.386756592325966,-0.015429892175687913,0.0791496909736955,-0.9324557307022414
1.0858302050607458,-2.40140286747706,-0.014350525493712627,0.06731306053725421,-0.8203781790680087
1.083085237608211,-2.413708530381278,-0.013099149031636058,0.05574356850493531,-0.7000394673556045
1.080612008435914,-2.4237259399202458,-0.011633142691333307,0.04443052688473542,-0.572503044240277
1.078459660184069,-2.4315044371006636,-0.009890339827117038,0.033354444919454954,-0.43935012827679165
1.0766931213119693,-2.437089360031038,-0.0077750488938805075,0.022494784384287682,-0.30262127152683793
1.0754033313651667,-2.440524352104717,-0.005122850574143856,0.011855136352511758,-0.16457176963465575
1.074735396805187,-2.4418655933066944,-0.0015564950256551973,0.0015572756672490255,-0.02721800480468542
