x,y,v_x,v_y,omega
2.375,32.48,0.0,2.051282051282051,-5.551020408163265
2.3742242446016544,32.07354847090298,-0.007757553983457713,2.0132332396881645,-5.298778227353216
2.3719820263065907,31.674598174825135,-0.014664628967178663,1.976269721090238,-5.062892851186537
2.368434815915128,31.282937637507665,-0.020807474947445014,1.9403356520844817,-4.841934169132267
2.363727796247268,30.898366130113203,-0.02626272173115796,1.9053794218601026,-4.63462436428972
2.357991664520396,30.52069286758164,-0.0310985955375609,1.8713532034555513,-4.439818953678763
2.351344208974261,30.14973629060284,-0.03537595992378798,1.8382125663324524,-4.256490540995016
2.3438916919792883,29.78532341994605,-0.03914921002594097,1.8059161402354533,-4.083714840687042
2.3357300666097345,29.42728927370529,-0.042467043669598754,1.7744253221721098,-3.9206586129909597
2.32694604938164,29.075476339505062,-0.045373128611345265,1.7437040198301783,-3.766569213858738
2.3176180683445757,28.72973409492851,-0.04790668175929424,1.7137184259353568,-3.620765515240485
2.3078171028199943,28.389918570434443,-0.050102973486520555,1.6844368190053254,-3.482629992724493
2.2976074286766606,28.055891949861355,-0.051993767946818106,1.6558293867255487,-3.351601811231634
2.287047281030631,27.727522204309103,-0.05360770851347627,1.6278680687969702,-3.227170766937432
2.276189444579109,27.404682755767887,-0.054970656001743216,1.6005264166151614,-3.1088719661192026
2.265081780365211,27.087252167350588,-0.05610598613723885,1.5737794675578358,-2.9962811401803595
2.2537676965771145,26.7751138573947,-0.05703485174372724,1.5476036320010658,-2.8890105114595652
2.2422865699723746,26.468155835047757,-0.0577764143036706,1.521976591468344,-2.7867051371959204
2.2306741236558216,26.16627045524571,-0.058348048861859965,1.4968772065521576,-2.6890396696741736
2.218975572445614,25.86936097306784,-0.05863746324021489,1.4722176152264765,-2.5917616277067723
2.207230656005095,25.57733428426399,-0.058811701164973966,1.4480492728120524,-2.4989817957248786
2.195461291718417,25.290093951789206,-0.05888194170180945,1.4243540519357918,-2.410437966672367
2.183687263275519,25.007547076157543,-0.05885834272716619,1.401114704380826,-2.3258861612993673
2.171926415161712,24.72960412514456,-0.05875013841090453,1.3783148057490082,-2.245099153518048
2.160194828652773,24.45617877412613,-0.058565726678488306,1.355938704435297,-2.1678651318646334
2.1485069812076154,24.187187756231822,-0.0583127477730873,1.3339714745077846,-2.0939864829230492
2.136875890940204,23.922550721567823,-0.05799815490102629,1.3123988721321933,-2.0232786842046564
2.1253132476675587,23.662190104832707,-0.05762827782542767,1.291207295218997,-1.9555692954074286
2.1138295318680194,23.406031000710236,-0.05720888016996244,1.2703837460057352,-1.8906970382262118
2.102434122740515,23.154001046477937,-0.05674521110507874,1.2499157963172585,-1.828510955978522
2.091135396428906,22.90603031131889,-0.0562420520110132,1.2297915552731864,-1.7688696452689334
2.079940815363435,22.66205119186805,-0.055703758643698656,1.2099996392352352,-1.711640552757586
2.0688570095720653,22.42199831356375,-0.055134299270000374,1.1905291438077292,-1.6566993308401214
2.0578898507264265,22.18580843741069,-0.05453728918638374,1.171369617722893,-1.6039292467006614
2.047044519608873,21.953420371792525,-0.053916021989154767,1.1525110384587451,-1.553220639777539
2.0363255676175593,21.724774889001466,-0.05327349792397825,1.1339437894518312,-1.5044704231931405
2.025736972864487,21.499814646178297,-0.05261244960674663,1.115658638779881,-1.4575816251527496
2.0152821913661696,21.278484110380212,-0.051935365376426824,1.0976467192009434,-1.412462966719936
2.004964203777255,21.060729487515538,-0.05124451051272048,1.0798995094458004,-1.3690284727340445
1.9947855580733052,20.846498654903996,-0.05054194652677595,1.0624088166696524,-1.3271971129541211
1.9847484085494884,20.635741097239297,-0.04982954871139192,1.0451667599773082,-1.2868924707978586
1.9748545514665685,20.428407845747216,-0.04910902211780891,1.0281657549435241,-1.2480424372979422
1.9651054576438876,20.224451420347183,-0.04838191610899876,1.011398499056814,-1.21057892812509
1.9555023022705804,20.023825774639395,-0.04764963762407415,0.994857958021068,-1.1744376217302126
1.9460515198873745,19.826681261882566,-0.04685818620798534,0.9765871695472139,-1.1777750274564172
1.936756508158504,19.633178465441773,-0.04609193108071909,0.9584407948606991,-1.1833342241854563
1.9276122139094765,19.44329285377532,-0.04535101140955573,0.9404153218038874,-1.1909823722165713
1.918613568395053,19.25700058289159,-0.04463544373467948,0.9225073870333933,-1.2005900939190681
1.909755510830082,19.07427846717426,-0.043945131915029245,0.9047137701399021,-1.2120311816579095
1.9010330100085255,18.89510395133216,-0.04327987630053688,0.887031388281099,-1.2251823144726834
1.892441084160052,18.71945508337315,-0.04263938218419784,0.8694572913090156,-1.2399227823433903
1.8839748191833379,18.547310488504614,-0.04202326758294266,0.8519886573763111,-1.2561342169064864
1.8756293853858348,18.378649343866066,-0.04143107039208869,0.8346227890091708,-1.273700327506762
1.8674000528512043,18.213451354001386,-0.040862254954215915,0.8173571096376728,-1.2925066414850033
1.859282205547823,18.05169672697985,-0.04031621807959755,0.800189160577668,-1.3124402476080637
1.851271354284684,17.893366151075938,-0.039792294551794165,0.7831165984614805,-1.333389541546915
1.843363148614638,17.73844077191798,-0.039289762148662234,0.7661371931181113,-1.3552439722993883
1.8355533877791914,17.586902170015453,-0.03880784620580546,0.7492488259071439,-1.3778937884374995
1.8278380307839723,17.43873233857331,-0.038345723746383856,0.7324494885142697,-1.4012297830342946
1.8202132056895175,17.293913661499854,-0.03790252719816454,0.7157372822203092,-1.4251430360917843
1.8126752181981287,17.15242889151184,-0.037477347715723155,0.6991104176598635,-1.449524653249504
1.8052205596142805,17.014261128236818,-0.037069238122758516,0.6825672150903509,-1.474265499502202
1.797845914253351,16.879393796208056,-0.036677215486538434,0.6661061051972281,-1.4992559265948173
1.7905481663713447,16.74781062264166,-0.036300263333522605,0.6497256304667419,-1.52438549269298
1.7833244066867746,16.619495614878616,-0.035937333512179134,0.6334244471636908,-1.5495426728474797
1.7761719385649675,16.4944330373664,-0.035587347705892544,0.6172013279584846,-1.5746145586814153
1.7690882839348163,16.37260738804501,-0.035249198595618626,0.6010551652553778,-1.5994865456290963
1.7620711890084007,16.25400337399125,-0.03492175066853794,0.5849849752822364,-1.6240420059465783
1.7551186298750117,16.13860588616186,-0.03460384066535357,0.5689899030116893,-1.648161945595761
1.7482288180429737,16.026399973061274,-0.03429427765502465,0.5530692279941636,-1.6717246429786823
1.7414002060053138,15.917370813142334,-0.03399184272157325,0.5372223711952231,-1.6946052673683158
1.7346314929088478,15.811503685728514,-0.03369528824308922,0.5214489029429858,-1.7166754747504473
1.727921630410727,15.708783940223583,-0.03340333673811819,0.5057485521063076,-1.7378029786634706
1.721269828811998,15.60919696334885,-0.033114679249169984,0.4901212166410075,-1.7578510935071685
1.7146755635643778,15.512728144118771,-0.03282797322703275,0.4745669756597669,-1.776678247699186
1.7081385822543944,15.419362836232647,-0.032541839872801626,0.4590861032014648,-1.7941374640053713
1.7016589121784262,15.329086317522748,-0.03225486088688061,0.443679083897536,-1.8100758043806497
1.6952368686331882,15.241883746057376,-0.0319655745654983,0.42834663075619706,-1.8243337767633072
1.6888730640591147,15.157740112450803,-0.03167247117523691,0.4130897053095449,-1.8367447015133684
1.6825684181891547,15.076640187880582,-0.03137398752436234,0.3979095403926704,-1.8471340356393628
1.6763241693731306,14.998568467256664,-0.031068500635880736,0.38280766584649295,-1.8553186537069322
1.6701418872684872,14.92350910692656,-0.03075432041055327,0.36778593745456234,-1.8611060854927883
1.6640234871126722,14.851445856237625,-0.030429681147594877,0.35284656943477827,-1.8642937122135956
1.6579712458214102,14.782361982213743,-0.030092731765027587,0.3379921708040509,-1.8646679257660883
1.6519878201920553,14.716240186542471,-0.029741524528521118,0.32322578590865264,-1.8620032592042821
1.6460762675338203,14.653062514016366,-0.029374002053828674,0.308550939352409,-1.8560615021306632
1.6402400690995618,14.592810251537149,-0.028987982288756767,0.2939716854397747,-1.8465908224608099
1.6344831567608291,14.535463816787864,-0.028581141098569594,0.27949266205307555,-1.8333249270728749
1.6288099434547325,14.481002635726384,-0.028150991962397294,0.2651191485617159,-1.8159823094863023
1.623225358046501,14.429405008184567,-0.027694862119915488,0.2508571268564635,-1.7942656547578346
1.6177348854085283,14.380647961116058,-0.02720986425981377,0.23671334382862197,-1.7678615027785842
1.6123446127353953,14.334707089488123,-0.02669286247151467,0.22269537245073298,-1.7364403146052874
1.6070612834260194,14.291556385553736,-0.02614043062224596,0.20881166689313888,-1.6996571471229602
1.601892360316984,14.251168058404538,-0.025548800468108007,0.1950716045988413,-1.6571532255476231
1.5968461007205246,14.21351234748101,-0.02491379549648501,0.1814855046364195,-1.6085588191485687
1.5919316467235545,14.178557336358281,-0.024230744473215816,0.1680646065908652,-1.5534979828057014
1.5871591357224628,14.146268776964156,-0.02349436553769916,0.15482098735037061,-1.491595935682365
1.58253983848354,14.116609939814538,-0.022698606851530308,0.1417673841458068,-1.4224901151292106
1.57808633556242,14.089541513267307,-0.021836422359669025,0.12891688132651913,-1.3458462634414787
1.573812748341844,14.06502158442353,-0.02089944984609157,0.11628240711126218,-1.2613812401454472
1.569735049230228,14.043005745782725,-0.01987754127006961,0.10387597929677979,-1.1688944956902103
1.5658714881355547,14.023447383274654,-0.018758069676662804,0.0917076457839491,-1.0683100463353736
1.5622431912970345,14.006298207948738,-0.017524898708538614,0.07978410747519442,-0.9597298597641579
1.5588750172269468,13.99150908469927,-0.016156841992339056,0.06810712501948954,-0.8434969399588882
1.5557967991537889,13.979031166612906,-0.014625338739241364,0.05667205584417205,-0.7202609008189671
1.553045179768258,13.968817228788765,-0.012890855116066894,0.04546732239722161,-0.5910295007135035
1.5506664023653458,13.96082285802768,-0.01089691891305466,0.034476385213620196,-0.4571774934175607
1.5487208452389174,13.955006694477504,-0.008558652351228081,0.023685250288143424,-0.32037476569206647
1.5472915621355687,13.951327855716926,-0.005734178682258144,0.01310313731764148,-0.18239907795339208
1.5465066388133453,13.949734177968768,-0.002115054539976813,0.0028336401639463583,-0.04483666557735469
