x,y,v_x,v_y,omega
2.375,32.48,0.0,3.0769230769230766,-6.530612244897959
2.373509572761364,31.871908390602396,-0.014904272386359434,3.003993017052935,-6.112203843301494
2.369258059864546,31.278097573282835,-0.027610856581820192,2.934115156142678,-5.733936214406668
2.36265386177125,30.69797832272943,-0.0384311243511436,2.8670773493913644,-5.39079657758564
2.354047925068694,30.131001704016203,-0.04762824267441126,2.8026888377409014,-5.078517280607545
2.343742551826603,29.576655093102094,-0.05542548974650091,2.7407772714001823,-4.7934485176490895
2.331998706284335,29.03445873908319,-0.062012965676178394,2.6811862687888803,-4.532455616664995
2.3190421052176404,28.503962772718364,-0.06755304499076989,2.6237733948593815,-4.292835589867806
2.305068317305491,27.984744586089786,-0.07218483413071988,2.5684084714263964,-4.072248913420615
2.2902470503170917,27.476406523646045,-0.07602783575327506,2.514972153011016,-3.86866343868217
2.274725769123478,26.978573836637715,-0.07918497618286278,2.463354717072286,-3.68030803443985
2.258632759683174,26.490892862037914,-0.08174511822017398,2.41345502892571,-3.50563408422725
2.2420797322980937,26.01302939412252,-0.08378515563063099,2.3651796502282605,-3.3432833616094024
2.2251640401560375,25.544667222458376,-0.08537176578993345,2.3184420664131538,-3.1920611121729214
2.207970575415324,25.085506814473835,-0.0865628816172005,2.273162013432248,-3.0509134074845106
2.1905733940578624,24.63526412433039,-0.0874089319574135,2.229264888002184,-2.9189080205901137
2.173037111845111,24.193669512676472,-0.08795389017010428,2.1866812285370387,-2.7952182172572773
2.155418106504071,23.76046676419345,-0.08823616324029332,2.1453462562931795,-2.6791089713959053
2.1377655553997004,23.335412191753683,-0.08828934780341402,2.105199468104496,-2.569925203861228
2.1201223331461607,22.91827381758703,-0.08814287473198128,2.0661842735620457,-2.467081716372398
2.1025257896616885,22.50883062316316,-0.08782256011274135,2.0282476706766146,-2.37005455053971
2.0850084259150603,22.1068718605935,-0.08735107735353907,1.9913399550199853,-2.278373549020501
2.067598481914864,21.71219641927953,-0.08674836264842554,1.9554144581197168,-2.191615933959192
2.0503204492519687,21.324612242315535,-0.08603196398052744,1.920427311520243,-2.1094007489262974
2.0331955186375783,20.943935787818617,-0.08521734216337656,1.8863372334489388,-2.0313840359714623
2.0162419713171635,20.569991530927545,-0.08431813104076857,1.853105335461757,-1.9572546402586317
1.9994755219305023,20.202611502700716,-0.08334636282584534,1.820694946806553,-1.8867305519346216
1.9829096192862465,19.841634862565364,-0.08231266361671344,1.7890714545469555,-1.8195557090913383
1.9665557105903388,19.486907501336024,-0.08122642334236269,1.75820215774646,-1.7554971974709206
1.9504234738821107,19.13828167213839,-0.08009594373991853,1.7280561342298801,-1.6943427923757026
1.934521022766222,18.79561564685297,-0.07892856741896812,1.6986041186243233,-1.6358987964375793
1.9188550869631325,18.45877339593654,-0.07773079061192723,1.669818390539954,-1.5799881337617259
1.9034311717193597,18.127624289693898,-0.07650836182580109,1.641672671886489,-1.5264486667206432
1.8882536987080076,17.802042819261423,-0.07526636828771979,1.61414203243825,-1.475131706525566
1.8733261306988294,17.481908335731433,-0.07400931180406245,1.5872028028616767,-1.4259006927978686
1.8586510819761803,17.16710480599457,-0.07274117542242826,1.5608324945069214,-1.3786300208296844
1.8442304162249115,16.857520584009727,-0.07146548209026006,1.5350097253415234,-1.3332039981643495
1.8300653333820978,16.553048196328486,-0.07018534633787732,1.5097141514708792,-1.289515914628985
1.8161564467610782,16.25358414080653,-0.06890351987231658,1.484926403748674,-1.2474672120841983
1.8025185578524947,15.959032433583612,-0.06747536921351957,1.460590668480507,-1.2027333544390686
1.78916433144381,15.66930046540136,-0.06606689487332859,1.4367290133420092,-1.1600381737159053
1.7760897332245387,15.384295114401763,-0.06467908731938486,1.4133244966539589,-1.1192646271415514
1.7632905500222873,15.103926569326038,-0.06331274470312738,1.390360954103298,-1.0803036670058774
1.7507624259137837,14.82810817854472,-0.061968496381907226,1.3678229537098885,-1.043053607618074
1.7385008939052407,14.556756307782305,-0.06064682370352425,1.345695753914273,-1.0074195490875055
1.7265014036969366,14.289790205937539,-0.059348078379515855,1.3239652645333793,-0.9733128522376921
1.7147593459857065,14.027131878448735,-0.05807249873278517,1.3026180103546527,-0.9406506595901538
1.70327007370545,13.768705967697251,-0.05682022406977949,1.281641097160169,-0.9093554579073558
1.6920289205588048,13.514439639982118,-0.05559130739667274,1.2610221799911498,-0.8793546782707241
1.6810312171519146,13.26426247863498,-0.05438572667223078,1.2407494334802507,-0.8505803300991114
1.6702723050080213,13.018106382877534,-0.05320339476670068,1.2208115240942221,-0.8229686658925103
1.6597475487037814,12.775905472053786,-0.05204416827570022,1.2011975841432516,-0.7964598738215221
1.6494523463441821,12.537595994896893,-0.05090785532029102,1.1818971874256627,-0.7709977955805503
1.6393821385672673,12.303116243515547,-0.04979422244885691,1.1629003263878064,-0.7465296671866186
1.6295324162481033,12.07240647180786,-0.04870300074278258,1.144197390689072,-0.7230058806401983
1.619898727052227,11.845408818031846,-0.04763389121598342,1.1257791470710805,-0.7003797645730317
1.6104766809718427,11.622067231280898,-0.04658656958785722,1.1076367204384054,-0.6786073821937482
1.6012619549630547,11.40232740163049,-0.04556069050002301,1.0897615760656758,-0.6576473450077783
1.5922502967891403,11.186136693738646,-0.0445558912391191,1.072145502852751,-0.6374606409360452
1.5834375281631474,10.973444083697785,-0.04357179502081015,1.0547805975558633,-0.6180104755891891
1.5748195472726785,10.76420009894937,-0.042608013883879435,1.0376592499282835,-0.5992621255724827
1.5663923307605154,10.55835676108562,-0.04166415123775146,1.0207741287092182,-0.5811828028026784
1.5581519352265496,10.355867531374262,-0.040739804101909555,1.0041181684043587,-0.5637415289131993
1.5500944983092224,10.156687258853246,-0.03983456507136279,0.9876845568057975,-0.5469090189095424
1.5422241614297825,9.96095557559564,-0.03886880372303709,0.9696322757702421,-0.5673717547112626
1.5345422607140562,9.768822989522754,-0.03795020343422342,0.9516935849586111,-0.5896150452805556
1.5270394768889255,9.580267091655926,-0.037077634817084044,0.9338653937096763,-0.6135234183338178
1.5197067212414201,9.39526607872465,-0.0362499216579703,0.9161447356030915,-0.6389841495518314
1.512535144430276,9.213798728782546,-0.03546584645347149,0.8985287638179416,-0.6658870055961315
1.505516144241084,9.035844377708763,-0.034724155438448485,0.8810147469198926,-0.6941239936412691
1.4986413723830305,8.861382896510396,-0.03402356314208547,0.8636000650637816,-0.723589116364579
1.4919027404183574,8.690394669343888,-0.033362756504647116,0.8462822066012978,-0.7541781313512865
1.4852924249094461,8.522860572175134,-0.03274039858446292,0.8290587650862381,-0.7857883138813482
1.4788028718628348,8.358761951999242,-0.03215513188165063,0.8119274366726863,-0.8183182220652547
1.4724268005444485,8.19808060654153,-0.031605581302211506,0.7948860179044135,-0.851667463289007
1.466157206735892,8.040798764361405,-0.031090356783357406,0.7779324038968561,-0.88573646091337
1.459987365497732,7.886899065280094,-0.03060805559823975,0.7610645869162478,-0.9204262201490314
1.4539108335023463,7.73636454105208,-0.030157264355618395,0.7442806553638979,-0.955638091997043
1.4479214509960434,7.589178596197961,-0.029736560707410264,0.7275787931772817,-0.9912735341024378
1.4420133434478557,7.445324988913875,-0.02934451477446756,0.710957279663585,-1.027233867317646
1.4361809229405762,7.304787811968946,-0.028979690298327126,0.6944144897856936,-1.063420026710625
1.4304188893583416,7.167551473497834,-0.02864064552401826,0.6779488949254147,-1.0997323056797685
1.424722231424311,7.033600677589892,-0.028325933816286387,0.6615590641540292,-1.136070091752863
1.4190862276418073,6.9029204045698656,-0.02803410400875251,0.6452436660462144,-1.1723315925497757
1.413506447192677,6.77549589085724,-0.027763700482549065,0.6290014710800277,-1.208413550277284
1.407978750847641,6.651312608281923,-0.027513262967813805,0.6128313546731495,-1.2442109429986168
1.402499291945055,6.530356242723201,-0.027281326058043374,0.5967323009140653,-1.27961667077901
1.3970645174968845,6.412612671926144,-0.027066418423661396,0.580703407056489,-1.314521224651185
1.3916711694837993,6.2980679423348676,-0.02686706170719103,0.5647438888562728,-1.348812336170644
1.386316286405272,6.18670824476499,-0.026681769078081837,0.5488530868424992,-1.3823746051399863
1.3809972051554178,6.078519888717874,-0.026509043420460624,0.5330304736286514,-1.4150891028746355
1.3757115633011936,5.9734892751164175,-0.026347375121782243,0.5172756623859346,-1.4468329481610014
1.3704573018465689,5.871602867215898,-0.02619523942446475,0.5015884166192548,-1.477478852825165
1.3652326685745217,5.772847159413242,-0.02605109329600628,0.48596866140732,-1.506894633590851
1.3600362220683526,5.677208643643301,-0.02591337176568408,0.4704164962921043,-1.5349426866679847
1.354866836525025,5.584673773011115,-0.025780483667593203,0.4549322100297619,-1.5614794212902816
1.3497237074862327,5.4952289222636175,-0.02565080672032843,0.4395162974452101,-1.586354648231285
1.3446063586279156,5.408860344652485,-0.025522681862843552,0.4241694786661228,-1.609410919201417
1.3395146497662636,5.325554124680984,-0.025394406753677313,0.408892721048895,-1.6304828130055113
1.3344487862582484,5.245296126161211,-0.025264228326475457,0.3936872641488443,-1.6493961644812145
1.3294093299977903,5.168071934933469,-0.025130334278105963,0.3785546481285646,-1.6659672326306623
1.324397212235377,5.093866795516597,-0.02499084334602573,0.36349674604015914,-1.6800018051262837
1.3194137484799737,5.022665540866985,-0.024843794208007725,0.3485158004559702,-1.6912942376965585
1.3144606557783174,4.954452514326061,-0.024687132808556132,0.3336144649532894,-1.699626429037639
1.309540072709427,4.889211482733412,-0.02451869788034812,0.3187958509731911,-1.7047667352233162
1.3046545824831086,4.82692553958017,-0.024336204382835513,0.30406358055921007,-1.706468832632423
1.2998072395929186,4.767576996982438,-0.024137224519065876,0.2894218454181223,-1.7044705459468026
1.295001600550157,4.711147265180433,-0.02391916590855062,0.27487547260194645,-1.6984926688988895
1.2902417593215938,4.657616718236156,-0.02367924637708094,0.2604299968408293,-1.6882378217562555
1.285532388218351,4.6069645446430485,-0.023414464655347703,0.24609173909025375,-1.6733894133108036
1.2808787851500727,4.559168581725288,-0.02312156602743526,0.23186789008736225,-1.6536108096833853
1.2762869283883471,4.514205133068238,-0.022797001589819822,0.21776659648314084,-1.6285448622711054
1.2717635403100074,4.472048768899995,-0.022436879193577695,0.20379704519929548,-1.5978140193469041
1.2673161620686222,4.432672110508218,-0.022036903220274896,0.18996953871846625,-1.5610213495492578
1.2629532418587386,4.396045601677621,-0.02159229887856185,0.1762955495875241,-1.517752953615186
1.2586842405342205,4.362137273131776,-0.02109771436661935,0.16278773587092263,-1.4675824500703718
1.254519760049762,4.330912510558225,-0.020547090477965043,0.14945988986459302,-1.410078511626132
1.250471702886589,4.302333843643137,-0.01993348115376302,0.1363267792862819,-1.3448168223883734
1.246553474900671,4.276360783412606,-0.01924879870541623,0.12340382301901684,-1.27139833192873
1.242780250852784,4.2529497487686605,-0.01848344177345255,0.11070652342042628,-1.189476273772323
1.2391693327490643,4.2320541404943945,-0.01762573926374559,0.09824955932223461,-1.0987949677339373
1.2357406483585913,4.213624640328309,-0.016661104640983783,0.08604544233861233,-0.999243590543956
1.2325174644298986,4.1976098274276445,-0.01557073464594308,0.0741026866680276,-0.8909270889694623
1.2295274318549987,4.18395719831263,-0.014329591103055456,0.062423604482107084,-0.7742527022526082
1.2268041489945485,4.172614615170605,-0.012903237501446783,0.051002226938125214,-0.6500218017926938
1.224389552091304,4.163532030088543,-0.01124273153099928,0.0398236238824886,-0.519500748257536
1.2223377125011108,4.156662939390454,-0.009275664370932286,0.028867283098395344,-0.38442281487515123
1.2207214275584013,4.15196420209482,-0.006887185056161536,0.018120089857955886,-0.24685719691288918
1.219646366685465,4.149390585888472,-0.003863423673199343,0.007616072205523086,-0.1088916583044428
