x,y,v_x,v_y,omega
2.375,32.48,0.0,3.6923076923076925,-3.224489795918368
2.3740803432666686,31.75150892690914,-0.009196567333312233,3.5926030386008874,-2.9808394193194063
2.3714812443944684,31.04247702618477,-0.016794421388692575,3.4977159686427997,-2.765035662445909
2.3674956584962756,30.351976853702524,-0.023061437593233404,3.407285756179644,-2.572999721529506
2.3623678105805714,29.679149488246672,-0.028217041563810195,3.320987898378896,-2.4013534191109693
2.356301928500826,29.023197751908484,-0.032441779233640465,3.2385294650029626,-2.247283328668708
2.3494692676323794,28.383380286286542,-0.035884829450828444,3.1596451912164714,-2.108434043424917
2.3420137908970924,27.759006350257586,-0.03866993790203995,3.0840941690730856,-1.9828237650056728
2.3340567839905257,27.149431230722044,-0.0409001311636274,3.0116570262823252,-1.8687771165298273
2.325700622681094,26.554052177546815,-0.04266148193068988,2.9421335054699624,-1.7648713427857685
2.3170318613157854,25.972304789452036,-0.04402613172239812,2.8753403754778284,-1.6698929845564914
2.3081237752266506,25.403659789894377,-0.045054729168948114,2.8111096200987595,-1.5828027994556924
2.2990384617263957,24.847620141860006,-0.04579840583360241,2.7492868602449687,-1.5027072138897246
2.289828582722407,24.303718458459073,-0.04630038420627942,2.6897299737643285,-1.4288349766068238
2.280538815129356,23.77151467272686,-0.04659729172423287,2.6323078835578495,-1.360517977018085
2.271207062080263,23.25059393539609,-0.046720238766698154,2.576899489749813,-1.297175415047871
2.2618654675716585,22.740564713847412,-0.04669570631934822,2.5233927257369917,-1.2383006811153567
2.252541268987997,22.241057069150834,-0.04654627951726463,2.471683721228782,-1.1834504377263098
2.243257515447327,21.751721091221963,-0.04629125588943626,2.421676058059931,-1.1322354974863171
2.234033674723467,21.27222547474168,-0.04594715134916454,2.373280106742911,-1.0843131731382445
2.2248861473453645,20.80225622071461,-0.045528122431860996,2.3264124335277723,-1.0393808387207826
2.2158287031327784,20.341515450438816,-0.0450463196940005,2.2809952692301696,-0.9971704910910033
2.206872852729254,19.889720320282514,-0.04451218434123959,2.236956032332866,-0.9574441408448227
2.198028164506427,19.446602027058326,-0.04393469788703523,2.1942268999090184,-0.9199898933862805
2.1893025354346807,19.011904894988046,-0.043321592830424,2.152744420793766,-0.8846186062876273
2.1807024230629963,18.585385536291327,-0.042679530886422457,2.1124491661734153,-0.8511610294938949
2.1722330445613585,18.166812078334754,-0.04201425412995631,2.0732854133923304,-0.8194653514003204
2.1638985478017583,17.75596345106398,-0.041330713466046165,2.0352008593154047,-0.789395087179536
2.155702158648194,17.35262872912803,-0.040633178069597216,1.9981463600441172,-0.7608272565913925
2.147646307960057,16.956606523705698,-0.03992532881177029,1.9620756941791835,-0.7336508073689368
2.1397327412610467,16.56770441957148,-0.03921033817833505,1.9269453471629996,-0.7077652475313247
2.131962613566584,16.185738453402287,-0.03849093876629191,1.89271431452893,-0.6830794559385018
2.1243365714798887,15.81053262973549,-0.03776948210065762,1.8593439221390435,-0.65951064531974
2.116854824346873,15.441918471350288,-0.03704798922949979,1.8267976617129955,-0.6369834560751266
2.1095172059918466,15.07973460116466,-0.03632819432076518,1.795041040143286,-0.6154291625231717
2.1023232283307602,14.723826353024311,-0.035611582290097595,1.7640414412601877,-0.5947849760752075
2.095272127969013,14.374045409012624,-0.03489942132737252,1.733767998856685,-0.5749934321600708
2.0883629067307576,14.030249461135686,-0.03419279105518357,1.7041914799127031,-0.5560018496830624
2.081594366931218,13.692301895437293,-0.03349260694021706,1.6752841770712237,-0.5377618534482282
2.0749651420887503,13.360071496778303,-0.032799641484458644,1.6470198095186541,-0.5202289513569953
2.0684737236758717,13.033432172675454,-0.032114542644323965,1.6193734315098451,-0.5033621593635585
2.062118484425489,12.712262694738872,-0.03143784985950483,1.5923213478559708,-0.4871236681545123
2.055897698637793,12.396446456377035,-0.030770008017454976,1.5658410357623862,-0.47147854635692577
2.049809559872821,12.085871245554326,-0.030111379632262545,1.5399110724647118,-0.4563944757899672
2.043852196361921,11.780429031491284,-0.02946225547673657,1.5145110681657106,-0.4418415148806025
2.038023684426979,11.480015764292325,-0.028822863872687822,1.4896216038238772,-0.42779188688063385
2.032328396722759,11.18453172212438,-0.028130013169513756,1.4652188178555696,-0.41244866269777747
2.026770015115578,10.893880764064896,-0.027453802902292938,1.4412907627392726,-0.3978037501615398
2.021345235769827,10.607969630198681,-0.02679399055521732,1.4178205759228644,-0.3838171325591189
2.016050806005424,10.326708356613558,-0.026150307088812996,1.3947921599283637,-0.3704515207167594
2.0108835290950378,10.050010126740062,-0.025522462015050016,1.3721901388065976,-0.3576721375912338
2.005840268115352,9.777791131106135,-0.024910147781805787,1.3499998175326728,-0.34544652213848565
2.0009179489815168,9.509970434941643,-0.024313043556547596,1.328207144112231,-0.33374435053584395
1.9961135627771438,9.246469853111535,-0.023730818487179717,1.306798674188856,-0.32253727304553
1.9914241674776534,8.987213831896511,-0.023163134507725638,1.2857615379613818,-0.311798764993196
1.986846889152116,8.73212933717673,-0.02260964874764823,1.2650834092364178,-0.3015039904992302
1.9823789227177564,8.48114574860745,-0.022070015595948525,1.2447524764563882,-0.2916296777453529
1.978017532311706,8.234194759406119,-0.021543888464555384,1.2247574155569156,-0.28215400468704194
1.9737600513362725,7.9912102813984625,-0.021030921289778452,1.205087364519639,-0.27305649423567013
1.9696038822267328,7.7521283549967315,-0.020530769805620352,1.1857318994976627,-0.2643179180347212
1.965546495984328,7.516887063806873,-0.020043092618425767,1.1666810124009206,-0.25592020804365906
1.9615854315116261,7.285426453582993,-0.01956755210859364,1.1479250898378857,-0.24784637522232097
1.957718294782585,7.057688455267364,-0.019103815181817013,1.1294548933183917,-0.24008043467928297
1.9539427578754558,6.833616811872535,-0.018651553889476407,1.1112615406299027,-0.23260733671054007
1.950256557892974,6.613157008978895,-0.01821044593534002,1.0933364883064784,-0.22541290321095966
1.9466574957910834,6.39625620863665,-0.017780175083568592,1.0756715151159755,-0.21848376899109395
1.9431434351346122,6.182863186475377,-0.017360431481142198,1.058258706496775,-0.21180732757676987
1.9397123007958794,5.972928271837642,-0.016950911906184266,1.041090439880582,-0.2053716811090137
1.9363620776100388,5.766403290765318,-0.016551319952223545,1.0241593708426435,-0.19916559399784756
1.9330908089990984,5.563241511678541,-0.016161366157180387,1.0074584200251298,-0.19317845001578182
1.9298965955749037,5.363397593597682,-0.015780768084766354,0.9909807607834576,-0.18740021254582973
1.9267807886675292,5.166999487854024,-0.015377300988978921,0.9730002966531212,-0.21593978612757353
1.9237421989876673,4.974186528708017,-0.015008595809639036,0.9551292948069532,-0.24605309578088297
1.920773939664004,4.7849371161800995,-0.014673997426993893,0.937364830472209,-0.2776358461979459
1.9178692609341008,4.5992302241174094,-0.014372789872038763,0.9197040901546952,-0.31058601497119426
1.9150215617087762,4.417045378337651,-0.014104202381206245,0.9021443676428804,-0.3448036291528896
1.91222439997799,4.238362635535623,-0.013867414926657544,0.8846830603774134,-0.380190546275252
1.9094715021595046,4.063162562880233,-0.013661563258195432,0.8673176661764815,-0.41665023893720016
1.9067567714847404,3.8914262182316044,-0.013485743489446922,0.8500457803098204,-0.45408758206548516
1.9040742955100192,3.723135130908961,-0.013339016257764442,0.832865092916603,-0.49240864195307293
1.9014183528358186,3.558271282940808,-0.013220410484240996,0.8157733867649255,-0.5315204661658247
1.8987834191116644,3.396817090728998,-0.013128926757301635,0.798768535353189,-0.5713308733895376
1.8961641723998848,3.2387553870580383,-0.013063540360494815,0.781848501356403,-0.6117482422628387
1.8935554979676015,3.0840694033800666,-0.013023203962337127,0.7650113354233244,-0.6526812982068
1.890952492573034,2.9327427523043887,-0.013006849983337196,0.748255175333466,-0.6940388972188781
1.8883504683094392,2.7847594102184026,-0.013013392652612154,0.7315782455263823,-0.7357298055462049
1.8857449560677995,2.6401036999638308,-0.013041729763784923,0.7149788570193485,-0.7776624740905721
1.8831317086777128,2.498760273488532,-0.013090744137082529,0.698455407733634,-0.8197448063237674
1.880506703784833,2.360714094389756,-0.013159304791713275,0.6820063832541274,-0.8618839184061982
1.877866146522697,2.225950420259128,-0.013246267829649237,0.665630358052164,-0.9039858901028301
1.8752064720368478,2.0944547847331982,-0.013350477028843047,0.6493259972071476,-0.9459555049770982
1.8725243479199012,1.9662129791455776,-0.013470764140623061,0.6330920586690586,-0.9876959782141888
1.8698166766175894,1.8412110336675376,-0.013605948882493678,0.6169273961113239,-1.029108670278445
1.8670805978679632,1.7194351978132083,-0.013754838613767077,0.6008309624319558,-1.0700927844439758
1.8643134912388555,1.6008719201729598,-0.013916227677312815,0.5848018139705135,-1.1105450460511848
1.8615129788325073,1.4855078272239588,-0.014088896386169064,0.5688391155195107,-1.1503593611332412
1.858676928231016,1.373329701049844,-0.014271609628742288,0.5529421462216277,-1.1894264518239055
1.8558034557620668,1.2643244557818072,-0.014463115060749987,0.5371103064587469,-1.2276334657003631
1.8528909301714078,1.15847911255036,-0.014662140845841564,0.5213431258557428,-1.2648635559310328
1.8499379767968374,1.0557807727106407,-0.014867392899860464,0.5056402725414617,-1.3009954287887808
1.8469434823482649,0.9562165890733105,-0.015077551585865745,0.49000156383182564,-1.3359028547560814
1.843906600409861,0.8597737348375354,-0.015291267798174355,0.47442697852592514,-1.36945413909398
1.8408267577936779,0.7664393698813647,-0.015507158363654837,0.4589166710357935,-1.4015115473780575
1.8377036618896017,0.676200604017307,-0.01572380067710943,0.4434709876047674,-1.431930681133537
1.8345373091744306,0.5890444567659898,-0.015939726474599236,0.4280904849084076,-1.4605597983469227
1.8313279950635986,0.5049578131375227,-0.01615341463372381,0.41277595137627204,-1.487239073322175
1.8280763253129435,0.423927374837632,-0.01636328287282595,0.3975284316226483,-1.5117997901297588
1.8247832292055182,0.34593960623240605,-0.01656767820142816,0.3823492544295838,-1.5340634638334978
1.821449974790239,0.27098067431089135,-0.016764865951362406,0.36724006478558496,-1.5538408838720688
1.818078186475975,0.1990363817776668,-0.016953017191276308,0.352202860546649,-1.5709310745655845
1.8146698653273041,0.13009209228802376,-0.01713019429543375,0.3372400343497982,-1.585120168928683
1.8112274124578156,0.06413264670629104,-0.01729433439945073,0.3223544214675358,-1.5961801941168918
1.8077536559750165,0.0011422691260065676,-0.017443230428541068,0.30754935433533687,-1.6038677703784576
1.8042518819997129,-0.05889553875734066,-0.017574509324495734,0.29282872449810005,-1.607922731013605
1.8007258703652136,-0.11599811647521818,-0.01768560702049767,0.27819705268069606,-1.608066679563655
1.7971799357022435,-0.1701837784985969,-0.017773739609203,0.263659567553063,-1.6040015137451304
1.7936189747408182,-0.22147196460089447,-0.01783587000504886,0.2492222934699155,-1.595407965692313
1.790048520821008,-0.2698834086401618,-0.017868669193053903,0.2348921469227281,-1.581944238094819
1.7864748068172438,-0.31544032738226235,-0.017868470844586686,0.2206770404982968,-1.5632448605573783
1.782904837972719,-0.3581666305886628,-0.017831217600661805,0.2065859915657162,-1.5389199569350211
1.7793464765560705,-0.39808815278189513,-0.017752396565824984,0.19262923036658153,-1.508555212681689
1.7758085408659379,-0.435232905633292,-0.0176269603355003,0.17881829814737046,-1.4717129760704826
1.7723009220441,-0.46963134741831425,-0.017449227882878948,0.1651661197028647,-1.4279351392152666
1.7688347236232727,-0.5013166619048235,-0.017212756325393874,0.15168702516220597,-1.3767487522406014
1.7654224310833193,-0.5303250325939359,-0.01691016907413998,0.1383966817289118,-1.317675761955235
1.7620781225131914,-0.5566958883665976,-0.016532916627137923,0.12531187599771781,-1.2502488719491796
1.7588177377720928,-0.5804720820406359,-0.016070930783850603,0.1124500607426602,-1.1740363134201517
1.7556594339700498,-0.6016999430054284,-0.015512107236578747,0.099828548905256,-1.088679243759144
1.7526240723652526,-0.6204291191141706,-0.01484150881139224,0.08746321218219638,-0.9939463043729235
1.7497359103030732,-0.6367120954926904,-0.014040111810400682,0.07536655160302302,-0.8898098579033161
1.7470236187502886,-0.650603262872977,-0.013082803717446308,0.06354512219985703,-0.7765459383347436
1.7445218238844018,-0.662157440366947,-0.011935144941422195,0.05199665273986645,-0.6548518351098617
1.742273508084673,-0.6714279095269049,-0.010548013055864587,0.04070803885970368,-0.5259570694293505
1.7403338893229523,-0.6784644178222479,-0.00884817456134332,0.029657044093741813,-0.39167318187975797
1.7387771889150465,-0.6833125064709407,-0.006718829517712306,0.018823842393191778,-0.25429504058776886
1.737710899605747,-0.6860178590771113,-0.003944063575284602,0.008229683668488051,-0.11626116005142365
