x,y,v_x,v_y,omega
2.375,32.48,0.0,2.4615384615384617,-5.551020408163265
2.374125317888204,32.01693103884996,-0.009207180124168487,2.412871655830357,-5.270961837853666
2.3716057479329544,31.562961045602265,-0.017314608878457864,2.3657598520401177,-5.011463168686218
2.3676385158713966,31.11780272389631,-0.02444572861162728,2.3201172185488614,-4.770518366441657
2.3623988343755467,30.681184432227177,-0.030708813449950162,2.2758647990209644,-4.546357167850721
2.3560425864268244,30.252848950277652,-0.03619905969449466,2.2329297478161294,-4.337412981273283
2.3487086423701506,29.832552380038205,-0.041000351428384055,2.191244675757009,-4.142295762280498
2.340520866944634,29.420063162578366,-0.04518675831389826,2.150747086978157,-3.9597689953418307
2.331589862831791,29.015161194628902,-0.048823811294975816,2.1113788914372535,-3.7887300824248538
2.322014489409662,28.617637031778493,-0.0519695931484874,2.07308598067229,-3.6281935722122074
2.3118831890364895,28.227291167224063,-0.05467567393753694,2.0358178567427747,-3.47727676855417
2.3012751479957556,27.843933376749163,-0.05698791596492735,1.999527306150921,-3.3351873401784142
2.290261314974074,27.467382122023505,-0.05894716847382511,1.9641701120138901,-3.201212620413605
2.2789052964284853,27.097464005483232,-0.0605898688481624,1.9297047989363798,-3.0747103394068027
2.2672641452850355,26.73401327101624,-0.06194856424078191,1.8960924059792885,-2.9551005748092245
2.2553890569823936,26.37687134547916,-0.06305236526071377,1.863296283884747,-2.841858742305722
2.2433259848426643,26.025886416742928,-0.06392734147327742,1.8312819133387361,-2.734509476320232
2.231116185044959,25.680913044527596,-0.06459686692361874,1.8000167415594726,-2.632621275026195
2.2187967000383026,25.34181180076245,-0.06508192262013307,1.7694700349157706,-2.5358018034330994
2.2064007880129335,25.008448936611295,-0.0654013618574383,1.7396127456226755,-2.443693764600266
2.193958305015526,24.68069607364677,-0.06557214337842798,1.7104173908459874,-2.355971262574977
2.1814960454138626,24.358429916951923,-0.06560953663908158,1.6818579427840186,-2.272336591964678
2.1690380456650358,24.041531988180616,-0.06552730282225536,1.6539097284929227,-2.192517398533449
2.1566058556978747,23.7298883768269,-0.0653378547268102,1.6265493383882812,-2.1162641631842503
2.144218781667991,23.423389508142897,-0.06505239821933138,1.5997545424959803,-2.0433479684118203
2.1318941033686034,23.121929926309562,-0.06468105756369773,1.5735042136443402,-1.9735585119989223
2.1196472691704193,22.825408091608743,-0.06423298662771326,1.5477782568906235,-1.9067023375540177
2.1074920710095917,22.533726190470794,-0.06371646769678946,1.5225575445614603,-1.8426012555933202
2.0954408016358963,22.24678995738318,-0.06313899939473962,1.4978238563608142,-1.7810909323711936
2.083512687344167,21.964513065568045,-0.06242009841293331,1.4735118469563735,-1.7188316515730941
2.071724142170359,21.686812177975778,-0.06166985078504793,1.4496553908569685,-1.6593305074466345
2.0600806926238993,21.413602254510543,-0.06089277601979393,1.4262385403560236,-1.6024332555442011
2.0485870496289666,21.14480121694571,-0.06009293971633539,1.4032460655895829,-1.547995913844028
2.037247190536702,20.880329816448597,-0.0592739980969795,1.3806634133273894,-1.4958839704248081
2.026064433110011,20.620111508663108,-0.05843923797345479,1.3584766686251089,-1.4459716605927395
2.015041502301245,20.364072335829036,-0.057591612645127355,1.3366725191020004,-1.3981413066520318
2.0041805905538754,20.112140815459405,-0.056733774169292234,1.3152382216309537,-1.3522827142479346
1.9934834122804812,19.86424783513591,-0.05586810239275371,1.2941615712479295,-1.3082926198617124
1.9829512530996865,19.620326553017307,-0.0549967310892958,1.2734308721057812,-1.2660741846110184
1.9725850143528953,19.38031230368748,-0.0541215715085041,1.2530349103134661,-1.2255365300165595
1.9623852533669213,19.14414250899868,-0.053244333607013763,1.232962928516002,-1.1865943118452016
1.952352219879969,18.91175659359174,-0.052366545203008964,1.2132046020833878,-1.1491673285379933
1.9424858890052086,18.683095904798932,-0.051489569268153616,1.1937500167882644,-1.1131801610852583
1.9327859910677088,18.458103636657107,-0.05061461954763385,1.1745896478624862,-1.078561841525374
1.9232520386162504,18.236724757778617,-0.04974277467824273,1.155714340332146,-1.045245547523827
1.9138833508809885,18.018905942845855,-0.048874990956094044,1.1371152905390487,-1.0131683207387379
1.9046790759206744,17.80459550751204,-0.04801211388931715,1.1187840287642765,-0.9822708069018429
1.8956382106788028,17.593743346506173,-0.047154888656700755,1.1007124028764033,-0.9524970157430515
1.886759619146269,17.386300874754262,-0.04630396958049532,1.0828925629331931,-0.9237940990648815
1.8780420488086478,17.182220971341835,-0.04545992871025608,1.0653169466713068,-0.8961121454327101
1.8694841455387419,16.981457926154807,-0.0446232636045408,1.0479782658237187,-0.8694039900899565
1.8610844670794202,16.783967389046673,-0.04379440438831946,1.0308694932092515,-0.843625038835884
1.852841495247712,16.589706321390217,-0.04297372015597684,1.0139838505429315,-0.8187331047192781
1.8447536469785397,16.39863294988126,-0.042161524782679434,0.9973147969197791,-0.7946882565052649
1.8368255427559903,16.21091683891289,-0.041292203875735914,0.9786442659051648,-0.8152622625025291
1.8290587211411298,16.026737265551752,-0.04046381312279736,0.9600880852647242,-0.837550023434857
1.8214454954350294,15.846072791978035,-0.03967540483615226,0.9416432155112459,-0.8614330750630489
1.8139783643338223,15.668902546014408,-0.038925975176555556,0.9233067420006288,-0.886795407721068
1.8066500220515649,15.495206197799238,-0.03821446989983705,0.9050758707906464,-0.9135232064745522
1.7994533673999769,15.324963937205379,-0.037539789590563345,0.8869479249342013,-0.941504596193728
1.7923815119192752,15.158156451922768,-0.036900794416822535,0.8689203411985523,-0.9706293904653778
1.785427787148171,14.99476490612443,-0.03629630843690519,0.8509906672050026,-1.000788843271828
1.7785857511155414,14.834770919636227,-0.03572512348551194,0.8331565589866113,-1.0318754023603296
1.771849194131328,14.678156547530854,-0.0351860026641024,0.8154157789646855,-1.0637824632135187
1.7652121439498152,14.524904260066137,-0.03467768345708658,0.7977661943481429,-1.096404122510608
1.7586688703745832,14.374996922886542,-0.03419888049272365,0.7802057759633751,-1.1296349299392614
1.7522138893711174,14.228417777405049,-0.0337482879648084,0.7627325975260238,-1.163369637179305
1.7458419667502563,14.085150421279913,-0.03332458172846743,0.7453448353701634,-1.1975029428310897
1.7395481214833923,13.945178788897536,-0.032926421080628376,0.7280407686548388,-1.2319292320028499
1.7333276287086035,13.808487131768413,-0.03255245023293864,0.7108187800727879,-1.2665423092022219
1.727176022485678,13.675059998737797,-0.032201299482065654,0.6936773570915763,-1.3012351230965098
1.721089098357341,13.544882215906576,-0.031871586079378046,0.6766150937633786,-1.3358994816136311
1.7150629157738995,13.417938866150152,-0.03156191479895202,0.6596306931463439,-1.3704257557502315
1.709093800439034,13.294215268114389,-0.03127087819963402,0.6427229703880177,-1.404702570334567
1.703178346635588,13.173696954557197,-0.030997056573479256,0.6258908565297685,-1.4386164798588568
1.6973134195920307,13.056369649892297,-0.030739017569231995,0.609133403100752,-1.4720516273485291
1.6914961579527745,12.942219246777551,-0.03049531547556951,0.592449787580784,-1.5048893840740585
1.6857239764188638,12.831231781574118,-0.03026449014454207,0.5758393198237858,-1.5370079677353827
1.6799945686296927,12.723393408483854,-0.0300450655309457,0.5593014495474008,-1.568282036560378
1.6743059103615245,12.618690372150883,-0.02983554781819209,0.5428357750101857,-1.5985822565598924
1.6686562631247228,12.517108978488427,-0.02963442309551152,0.5264420530156765,-1.6277748389763456
1.6630441782488794,12.418635563463667,-0.029440154544945835,0.5101202104028563,-1.6557210447572108
1.6574685015536117,12.32325645954089,-0.029251179089449967,0.4938703572053288,-1.6822766526884692
1.6519283787128018,12.230957959446116,-0.029065903445389372,0.477692801687014,-1.7072913876508409
1.6464232614316945,12.141726276874248,-0.028882699513635365,0.46158806749054443,-1.730608305334488
1.6409529145697532,12.055547503711903,-0.028699899033116972,0.44555691316573237,-1.7520631296968037
1.6355174243577686,11.972407563295128,-0.028515787408824617,0.4296003543792521,-1.771483539517281
1.63011720787574,11.892292159160569,-0.02832859661253091,0.4137196891424282,-1.7886884006569228
1.624753023978899,11.815186718681137,-0.028136497038424583,0.397916526430557,-1.8034869411580148
1.619425985883454,11.741076330903002,-0.027937588176785166,0.38219281860243515,-1.8156778672526532
1.6141375756518075,11.669945677820138,-0.027729887945811754,0.3665508980592861,-1.8250484198691443
1.608889660850085,11.601778958237261,-0.027511320493373067,0.35099351860255823,-1.8313733735959097
1.6036845136899682,11.536559803284629,-0.027279702244697994,0.3355239019514788,-1.8344139836550506
1.598524833013777,11.474271182563442,-0.027032725925736766,0.32014578985048986,-1.8339168917822373
1.5934137695389565,11.414895299826863,-0.026767942230267218,0.3048635021134736,-1.8296130097612038
1.5883549548492226,11.358413477051478,-0.02648273871430014,0.2896820007853367,-1.821216410796576
1.5833525347100557,11.304806025747794,-0.026174315382193516,0.2746069603060714,-1.8084232754633727
1.578411207404376,11.254052104427132,-0.025839656256540465,0.2596448430693141,-1.7909109628329194
1.5735362679429672,11.206129561332887,-0.02547549596881492,0.24480297897538103,-1.768337311652475
1.568733659223768,11.16101476192798,-0.025078280022757374,0.23008964633941947,-1.7403403255471783
1.5640100315263763,11.11868240131238,-0.0246441167918906,0.2155141496142691,-1.7065384662817324
1.5593728121836457,11.079105302879537,-0.024168718394747685,0.20108688652093482,-1.6665318786712435
1.5548302879518205,11.04225420633177,-0.023647326150778518,0.18681939292926378,-1.6199050111936069
1.5503917036334591,11.008097550976604,-0.0230746140425006,0.17272434765140987,-1.5662312923718982
1.5460673821000135,10.97660126444718,-0.022444559993769455,0.15881551055306328,-1.5050807916768112
1.5418688733430976,10.947728573177862,-0.021750269026397873,0.1451075554397378,-1.436032151108631
1.537809144077766,10.92143985974408,-0.020983723240251103,0.1316157438632379,-1.358690524688846
1.5339028255471905,10.897692604063423,-0.02013541918685879,0.11835536856472136,-1.272713777297013
1.5301665468015742,10.8764414603969,-0.019193830766997447,0.10534088055657673,-1.1778496527684021
1.526619395765886,10.85763853835972,-0.01814460118761551,0.09258461457167025,-1.0739867127785332
1.5232835737675054,10.841233968132183,-0.016969314584811362,0.08009507203398068,-0.961220891910379
1.520185345427084,10.827176824233227,-0.015643615314361335,0.06787486374451883,-0.8399362329348791
1.517356443413326,10.815416431098718,-0.014134300619932694,0.05591874819766549,-0.7108908247738822
1.5148361878613885,10.805903928782161,-0.012394705189937849,0.04421285513451037,-0.5752853613732962
1.512674793618901,10.798593660485057,-0.010356813152034308,0.03273733746659463,-0.4347732250158918
1.5109389398629556,10.793443302118764,-0.007915331647391706,0.0214769611259609,-0.29135633005107975
1.5097229850271157,10.790410037293078,-0.004884192940397314,0.010452142302320154,-0.14711685570586663
1.5091836324811463,10.789431505525496,-0.0007932022803323231,-0.0001518079067283993,-0.00382825694542957
