x,y,v_x,v_y,omega
2.375,32.48,0.0,2.358974358974359,-2.7346938775510203
2.374582176027003,32.0360846795001,-0.004398147084178517,2.3138184883930046,-2.6017642423135143
2.3733775396513326,31.600622070169084,-0.008282235817617853,2.2699984519334393,-2.4781563813359626
2.371478451169062,31.17336460648417,-0.011708169258913395,2.2274485342235546,-2.3630023726205986
2.368967274529885,30.75407679225372,-0.014725269048209168,2.1861074050443614,-2.2555310022081896
2.365917546634259,30.342534403885868,-0.0173771298531228,2.145917735669879,-2.155055430173788
2.3623949958867487,29.938523762486668,-0.019702351699613298,2.106825858005893,-2.0609626185635017
2.3584584313892005,29.54184106721865,-0.02173516932721127,2.068781460604807,-1.9727042430109494
2.3541605208324277,29.152291783382836,-0.023505994428293545,2.0317373166142922,-1.8897888579463817
2.3495484723851052,28.769690079550923,-0.02504188396457385,1.995649039511109,-1.811775124396822
2.34466463357877,28.39385830880116,-0.026366945575795837,1.960474863117974,-1.7382659412322212
2.3395470182647613,28.024626529726493,-0.027502689308505208,1.9261754429311488,-1.6689033467893548
2.3342297711055044,27.661832063406834,-0.02846833342051683,1.8927136762231827,-1.6033640792374668
2.3287435777046355,27.30531908298464,-0.029281070799157292,1.8600545387472953,-1.5413557017323398
2.323116027334234,26.954938232867335,-0.029956301520854246,1.8281649361716796,-1.4826132130476426
2.317371934247132,26.610546274911663,-0.030507836238115635,1.797013568624857,-1.4268960765387628
2.311533622738706,26.272005759232417,-0.03094807437689222,1.7665708069461594,-1.3739856104367412
2.3056211804217748,25.93918471752805,-0.031288160538178386,1.7368085794155756,-1.3236826909515864
2.2996526835804003,25.611956377033987,-0.031538122002601074,1.707700267890356,-1.275805726778343
2.2936443979572982,25.290198893405783,-0.031706989819526944,1.6792206124065245,-1.2301888695834269
2.2876109578915207,24.973795101002686,-0.03180290560971208,1.6513456234155568,-1.186680430096229
2.2815655263469634,24.662632279190525,-0.031833215911945434,1.6240525009229763,-1.1451414736996837
2.2755199380485176,24.35660193341434,-0.031804555650639575,1.597319559879011,-1.1054445730327207
2.269484827663575,24.055599589907672,-0.03172292208560064,1.571126161243757,-1.0674726981936014
2.263469744725426,23.759524603009353,-0.03159374042122897,1.5454526482122195,-1.031118227753751
2.257483256786369,23.46827997415094,-0.03142192209515828,1.5202802871395427,-0.9962820660293787
2.25153304210732,23.18177218166097,-0.031211916631672793,1.4955912127548427,-0.962872853973084
2.245629545287557,22.899912242835477,-0.03093015515530728,1.4713555117240518,-0.9292657462738388
2.2397816906079773,22.62261428071816,-0.0306262098929014,1.447570405300334,-0.8971445815693528
2.2339934287981946,22.349794162705056,-0.030302861789020488,1.4242203106270839,-0.8664264720461834
2.228268208055812,22.081370651681404,-0.029962619709745973,1.4012903317271683,-0.8370340257342469
2.22260902321995,21.817265279146373,-0.029607746983541332,1.3787662212731382,-0.808894924122514
2.217018460160813,21.557402225360242,-0.029240285217897764,1.3566343448966731,-0.7819415365726972
2.2114987358745646,21.301708206050243,-0.02886207568997881,1.3348816478401537,-0.7561105679532866
2.2060517347194324,21.0501123652472,-0.02847477857456965,1.3134956237708004,-0.7313427362997048
2.20067904118185,20.802546173857586,-0.028079890242090046,1.2924642855935842,-0.7075824776449166
2.195381969519748,20.558943333605427,-0.027678758832667943,1.271776138113326,-0.6847776754642119
2.190161590593209,20.319239686005787,-0.02727259828879371,1.251420152409206,-0.662879412443008
2.1850187561599705,20.083373126056244,-0.026862501008453204,1.2313857417964837,-0.641841742511617
2.1799541208842297,19.851283520355814,-0.02644944926250189,1.211662739260687,-0.6216214812996997
2.174968162281405,19.622912629381446,-0.026034325504072572,1.1922413762590114,-0.6021780133487542
2.170061198798564,19.398204033671572,-0.02561792168373085,1.1731122627922668,-0.5834731145862526
2.165233406209801,19.17710306368375,-0.025200947671666855,1.1542663686585035,-0.5654707887123686
2.1604848324876555,18.95955673310957,-0.024784038877232305,1.135695005806553,-0.5481371162817195
2.1558154112954084,18.745513675445103,-0.02436776314642022,1.1173898117141636,-0.5314401153800523
2.1512249742306166,18.53492408362873,-0.0239526270092842,1.0993427337212986,-0.5153496129009194
2.146713261937276,18.32773965257103,-0.023539081341670633,1.0815460142545241,-0.4998371255215446
2.1422799341924246,18.123913524412934,-0.023127526498872154,1.0639921768833114,-0.4848757495615076
2.1379245790626156,17.923400236359434,-0.022718316972801512,1.0466740131535566,-0.4704400589836623
2.1336467212163996,17.72615567094581,-0.022311765618942186,1.0295845701477107,-0.4565060108648101
2.1294458294706153,17.532137008602938,-0.02190814749457696,1.0127171387246674,-0.4430508577249182
2.1253213236408026,17.341302682396474,-0.021507703345559636,0.9960652423959889,-0.43005306615884814
2.1212750928159263,17.15381461577779,-0.02108420007418839,0.9774933535901826,-0.45959285917043036
2.1173061257081254,16.96984482874539,-0.020694401060558976,0.9590307204350523,-0.4906157482765687
2.1134080879885784,16.789372833527672,-0.020337574934673253,0.9406744923830416,-0.5230144745438967
2.1095747897163086,16.612378673387063,-0.02001293319448436,0.9224219301496833,-0.5566837569767815
2.1058001956665606,16.438842901811235,-0.019719635750228833,0.9042704022274481,-0.5915200624016914
2.1020784346523707,16.268746562330954,-0.019456795978090406,0.8862173817755091,-0.6274213783407132
2.0984038079295604,16.102071168893644,-0.01922348531464746,0.868260443880364,-0.664286987922961
2.0947707967697347,15.938798686722443,-0.019018737420357937,0.8503972631849169,-0.70201724587203
2.0911740692807603,15.778911513590668,-0.01884155193726632,0.8326256118863917,-0.7405133545896253
2.087608486549721,15.622392461441358,-0.018690897863150598,0.8149433581063595,-0.7796771393296771
2.084069108179385,15.469224738280523,-0.018565716561436917,0.7973484646392516,-0.8194108214231701
2.0805511972858284,15.319391930271333,-0.018464924423369253,0.7798389880890498,-0.8596167884710506
2.0770502250219787,15.172877983954166,-0.018387415196103492,0.7624130784074432,-0.9001973603702654
2.0735618746895295,15.029667188514644,-0.01833206198757183,0.7450689788506699,-0.9410545499755122
2.07008204549988,14.889744158018054,-0.018297718956104433,0.727805026376604,-0.9820898171257947
2.0666068560435127,14.753093813523972,-0.01828322268986925,0.7106196525084577,-1.023203814679431
2.0631326475265497,14.619701364989467,-0.01828739327816415,0.6935113846968465,-1.0642961251027083
2.059655986833148,14.489552292862555,-0.018309035073431134,0.676478848218012,-1.1052649860447654
2.0561736694729174,14.362632329259828,-0.01834693713952054,0.659520768652814,-1.146007003203267
2.0526827224737367,14.238927438612922,-0.01839987337816965,0.6426359749988378,-1.1864168486407185
2.0491804072822375,14.11842379765774,-0.01846660232182612,0.6258234034767595,-1.226386942548511
2.045664222736869,14.001107774627744,-0.018545866576788243,0.6090821021021436,-1.2658071162736897
2.0421319081819456,13.886965907498034,-0.018636391896089823,0.5924112361053269,-1.304564254220823
2.038581446795444,13.775984881109988,-0.018736885856559648,0.5758100942951779,-1.342541912017289
2.03501106920872,13.668151502986575,-0.018846036108956535,0.5592780964776051,-1.3796199080843383
2.0314192575027956,13.56345267762579,-0.018962508163933047,0.5428148020569787,-1.4156738854887254
2.027804749673599,13.46187537903337,-0.019084942669714246,0.5264199199684899,-1.4505748406620196
2.024166544667657,13.3634066212257,-0.019211952129676885,0.5100933201122294,-1.4841886152701738
2.0205039081003995,13.268033426398883,-0.019342116999346196,0.49383504648583404,-1.5163753472005475
2.016816378781671,13.175742790419712,-0.019473981092535623,0.47764533224229067,-1.546988876317263
2.013103776187431,13.08652164524803,-0.019606046215254483,0.46152461693330504,-1.5758761003342743
2.0093662090333106,13.000356817846868,-0.019736765933376345,0.44547356623683754,-1.6028762758929853
2.005604085124906,12.9172349850759,-0.019864538365621912,0.429493094510175,-1.627820259744017
2.001818122681874,12.837142623994502,-0.019987697876816955,0.41358439055718565,-1.6505296848747153
1.9980093633584939,12.76006595692185,-0.020104505527186883,0.3977489470497042,-1.670816066574587
1.9941791872128625,12.685990890512901,-0.02021313811103866,0.38198859409711794,-1.6884798339061087
1.9903293299111007,12.614902948009956,-0.020311675591718165,0.36630553751283174,-1.7033092830173884
1.986461902492626,12.546787193720402,-0.020398086708014948,0.3507024023772082,-1.7150794504419566
1.982579414068962,12.48162814865357,-0.020470212488446847,0.33518228253680193,-1.7235509073368915
1.9786847978832247,12.419409696126284,-0.020525747361420696,0.31974879669779793,-1.7284684800329873
1.9747814412226243,12.360114976023812,-0.020562217487004392,0.3044061517492653,-1.7295599090650775
1.970873219755279,12.30372626629089,-0.020576955853473685,0.2891592138604513,-1.7265344691165114
1.9669645369601847,12.250224850143486,-0.02056707356857086,0.27401358769119494,-1.7190815876512622
1.9630603694427602,12.19959086746448,-0.020529426614843693,0.25897570366675404,-1.7068695227559012
1.9591663190895332,12.15180314891985,-0.020460577103336323,0.24405291259249925,-1.689544194275411
1.9552886732326797,12.10683903157636,-0.020356747705645818,0.22925358576003202,-1.6667283116517346
1.9514344742979095,12.064674155325182,-0.02021376739720011,0.21458721688394214,-1.6380210141273446
1.9476116008458721,12.025282240382822,-0.020027005782139624,0.20006451935143574,-1.602998344435032
1.9438288625671594,11.988634847798814,-0.019791291888521374,0.1856975078486483,-1.5612150302581531
1.940096112784985,11.954701127614527,-0.019500811081736315,0.1714995467227975,-1.5122082684732194
1.9364243835748245,11.923447563614278,-0.019148970077848396,0.15748533749035637,-1.455504521245089
1.9328260510866124,11.894837730212341,-0.018728214008593855,0.14367080358265713,-1.3906307703457252
1.9293150426480443,11.86883208684922,-0.018229769555279995,0.13007281076597377,-1.317132262433746
1.925907103715597,11.845387849325412,-0.017643271838902568,0.1167086368530491,-1.2345995110489791
1.9226201533126035,11.824458996406328,-0.01695620608734564,0.10359507808469716,-1.1427081102646501
1.9194747737944255,11.805996492843107,-0.016153051998738396,0.09074706468604163,-1.0412754494649947
1.9164949086319636,11.78994883140389,-0.015213949711386097,0.0781756873057066,-0.9303379091348969
1.9137088868873944,11.776263001461512,-0.014112594968289859,0.06588568050881997,-0.8102488865890869
1.9111509668822475,11.764885945604352,-0.012812878770097865,0.05387280219812819,-0.6817891265703623
1.9088637220134164,11.755766401732089,-0.011263383007071984,0.04212239645727188,-0.5462627990281635
1.9069018696749709,11.748856631344044,-0.009387694239722976,0.030612028680055872,-0.40552533959899056
1.9053389437895203,11.74411267849067,-0.007064157186072781,0.01932431714492075,-0.26186355059121835
1.9042814986320542,11.74148950935627,-0.0040668444714658195,0.008287989532974544,-0.11765179193896427
