x,y,v_x,v_y,omega
2.375,32.48,0.0,3.6923076923076925,-4.448979591836735
2.373866728795086,31.7875652163699,-0.01192917057803899,3.596479503798604,-4.128373636441385
2.370654636297332,31.112916694928906,-0.02188232939831997,3.5050838797908037,-3.842625649596099
2.365709226491833,30.455242894760563,-0.03017461592272381,3.41779822724438,-3.586861999618304
2.359321291342478,29.813790516461705,-0.037066806702066774,3.334332070638343,-3.3570106231083825
2.3517362633521572,29.187858798584845,-0.04277559319604687,3.2544228543812204,-3.1496516340078897
2.3431618172901176,28.576794545172962,-0.04748173377278971,3.177832444691235,-2.961898868703231
2.333774079457765,27.979987765124534,-0.051336559199344156,3.1043441873975004,-2.791305334038274
2.3237227229537774,27.39686782809639,-0.05446719347420859,3.0337604128987126,-2.6357872665044253
2.313135166840788,26.82690005992049,-0.056980765609894936,2.965900304742357,-2.493562785423311
2.3021200508308253,26.269582714620064,-0.05896782396865674,2.9005980668410656,-2.3631020655019004
2.2907701214581646,25.724444271143756,-0.06050511679618965,2.8377013381727174,-2.2430866577946564
2.2791646380590875,25.191041011663394,-0.06165786635199029,2.77706981425212,-2.1323761179569347
2.2673713852952058,24.66895484525857,-0.06248163642571311,2.718574042640811,-2.0299805028262905
2.255448362009242,24.157791346444476,-0.06302387184758837,2.6620943659285694,-1.9350376038469927
2.243445202820527,23.65717798258961,-0.06332517224415318,2.6075199904384694,-1.8467940225543473
2.231404378247002,23.166762508040502,-0.06342034958242111,2.554748162709996,-1.7645893767153245
2.219362210670618,22.686211505892842,-0.06333930911636006,2.503683438844326,-1.6878430686428816
2.207349736677272,22.21520906095069,-0.06310778555044089,2.454237034230937,-1.6160431592175526
2.1953934408425115,21.753455549599693,-0.06274796007861388,2.406326243148005,-1.5487369794113832
2.1835158816229585,21.300666534163305,-0.06227897907457682,2.359873919340323,-1.4855231810044207
2.171736226435491,20.856571750875634,-0.06171739131982155,2.3148080100035706,-1.4260449837998197
2.160070710093369,20.42091418193874,-0.061077517544615156,2.2710611367005433,-1.3699844210994256
2.1485330283886066,19.993449203275595,-0.06037176355814691,2.228570217648402,-1.3170574208917372
2.137134676658798,19.5739438005738,-0.05961088622931361,2.1872761265809695,-1.2670095889763486
2.125885241571834,19.16217584706537,-0.058804219949254305,2.1471233840341335,-1.21961258353695
2.114792653037789,18.757933437224636,-0.057959869882797256,2.10805987744723,-1.1746609895964042
2.1038634020613873,18.361014271208205,-0.05708487723722524,2.0700366069362732,-1.1319696172178104
2.093102729438832,17.97122508542021,-0.056185360894932666,2.0330074539899887,-1.0913711599436369
2.0825147894456375,17.588381125076744,-0.05526663903343417,1.9969289706780848,-1.0527141603352765
2.072102792030125,17.21230565507336,-0.05433333376143063,1.9617601872522508,-1.0158612380196355
2.061869126498431,16.84282950583861,-0.05338946130903405,1.9274624362714776,-0.9806875427116346
2.051815469233153,16.479790651190754,-0.0524385099044195,1.8939991916006635,-0.9470794005368972
2.041942877614641,16.123033815510773,-0.05148350713254841,1.86133592082018,-0.9149331268481725
2.0322518719993417,15.77241010780676,-0.05052707829165435,1.829439949748389,-0.8841539827900454
2.022742507343807,15.427776680478022,-0.04957149702976557,1.7982803379225512,-0.8546552562628845
2.0134144358378774,15.088996410794511,-0.04861872934844054,1.7678277640091267,-0.8263574507853119
2.0042669617195195,14.755937603292303,-0.04767047189743284,1.7380544202246349,-0.7991875681495023
1.9952990892813238,14.428473711451176,-0.04672818534673025,1.7089339149451146,-0.7730784727826745
1.9865095649402313,14.106483077168466,-0.0457931235068744,1.68044118276762,-0.7479683274344896
1.9778969141238325,13.789848686676095,-0.044866358771008356,1.6525524013625896,-0.7238000912556752
1.9694594736254638,13.478457941666996,-0.043948804369715114,1.6252449145226677,-0.7005210725607897
1.9611954199936479,13.172202444504432,-0.043041233859926246,1.5984971608727236,-0.6780825296129078
1.9531027944470098,12.870977796484478,-0.04214429820994915,1.5722886077583789,-0.6564393136593587
1.945179524741797,12.574683408209104,-0.04125854079229103,1.546599689877121,-0.6355495492096771
1.9374234443639904,12.283222321206289,-0.040384410553040255,1.5214117522577748,-0.6153743471998241
1.9298323093704082,11.996501040004823,-0.03952227358993147,1.49670699723132,-0.5958775472472574
1.9224104227093965,11.7144303299335,-0.03860284915755747,1.4724583719404996,-0.5751174632636786
1.9151612495521004,11.43692405363661,-0.03770423670871894,1.4486603259214834,-0.5552698032584252
1.9080808599236205,11.163898078402884,-0.03682618043317464,1.425297308117733,-0.5362839544067929
1.9011653758510285,10.895271161372175,-0.035968388752004296,1.402354450100252,-0.5181126425656941
1.894410977566508,10.630964823418644,-0.03513054055873939,1.3798175283579779,-0.5007116769434404
1.887813908601499,10.370903229963801,-0.03431229065188021,1.3576729290614193,-0.48403971690401815
1.8813704799158948,10.115013078267388,-0.033513274459742955,1.3359076151113418,-0.4680580587654345
1.8750770731883777,9.863223490778257,-0.032733112145699295,1.3145090953005532,-0.4527304406796619
1.8689301433783196,9.615465914158708,-0.03197141217070194,1.2934653954315345,-0.438022863883202
1.862926220655975,9.371674023624347,-0.031227774380294757,1.2727650312459478,-0.4239034287856349
1.8570619117857332,9.131783632267744,-0.0305017926748811,1.2523969830340764,-0.41034218452159754
1.8513339010367234,8.895732605058207,-0.029793057314695014,1.232350671803165,-0.3973109907319345
1.8457389506858963,8.663460777232022,-0.029101156904537396,1.2126159368935163,-0.3847833904644457
1.8402739011706766,8.434909876807819,-0.028425680097775734,1.1931830149402005,-0.37273449319560276
1.8349356709412339,8.210023450980291,-0.027766217054251616,1.1740425200864029,-0.3611408670734511
1.8297212560562426,7.9887467961627046,-0.027122360682500336,1.1551854253618867,-0.3499804395700892
1.824627729560572,7.771026891464377,-0.02649370769298093,1.136603045146833,-0.3392324058108631
1.8196522406785904,7.556812335403915,-0.02587985948577236,1.1182870186475045,-0.3288771439178289
1.8147920138525735,7.346053285672397,-0.02528042289335238,1.1002292943158432,-0.3188961367680633
1.8100443476520294,7.138701401773115,-0.024695010796587414,1.0824221151502667,-0.309271899623893
1.805406613576515,6.9347097903759725,-0.024123242629879783,1.0648580048196647,-0.2999879131427897
1.8008762547716735,6.734032953235197,-0.023564744789503336,1.047529754556921,-0.2910285613201939
1.7964507846757103,6.536626737528923,-0.023019150957476767,1.030430410772254,-0.282379073959456
1.7921277856113247,6.342448288488232,-0.022486102351845515,1.013553263340308,-0.2740254732999125
1.78790490733617,6.151456004191665,-0.02196524791294338,0.9968918345182717,-0.2659545244672996
1.783784320043002,5.963807317722825,-0.021409355173034446,0.9783574967326788,-0.29956763419823995
1.7797653201345223,5.779669979910146,-0.02089590702148808,0.9599302697165644,-0.3345802588372926
1.775839955217703,5.599023903343284,-0.020423723681869864,0.9416073783556714,-0.3708883293360041
1.772000500134466,5.421849517746271,-0.019991592983782648,0.9233861542444621,-0.40838966945714844
1.7682394627187459,5.248127750018423,-0.019598274550115008,0.9052640323644513,-0.44698376954224694
1.7645495887970386,5.07784000487187,-0.019242503573119036,0.8872385481255807,-0.4865715631723465
1.7609238665080216,4.910968145997181,-0.018922994206007248,0.8693073347658821,-0.527055205769976
1.7573555300120345,4.74749447768923,-0.01863844259385733,0.8514681211072977,-0.5683378541793838
1.7538380626569603,4.587401726865554,-0.01838752956481871,0.8337187296682522,-0.6103234462437194
1.750365199663312,4.43067302540911,-0.01816892299990135,0.8160570751364353,-0.6529164793713846
1.746930930388109,4.27729189276636,-0.017981279896970036,0.7984811632083066,-0.6960217870488482
1.7435295002244127,4.1272422187300855,-0.017823248141940858,0.780989089805109,-0.7395443122132371
1.7401554121911607,3.9805082463341215,-0.01769346799755424,0.7635790406787364,-0.7833888763442938
1.736803428266235,3.8370745547842944,-0.01759057331745279,0.7462492914247,-0.8274599430710318
1.7334685705144706,3.696926042346192,-0.017513192490593105,0.7289982079237364,-0.8716613750127338
1.7301461220616319,3.5600479091057906,-0.017459949118236825,0.7118242472383912,-0.915896182485771
1.7268316279652274,3.4264256395134964,-0.017429462422863626,0.6947259589962662,-0.9600662626059414
1.7235208960334527,3.2960449846155733,-0.017420347385290223,0.6777019872976487,-1.004072127199331
1.7202099976445628,3.168891943869049,-0.017431214603024034,0.6607510731920655,-1.0478126178017075
1.7168952686206342,3.0449527464270787,-0.017460669859382518,0.6438720577760506,-1.0911846058756554
1.7135733102120265,2.9242138317708957,-0.017507313389119174,0.6270638859732556,-1.1340826762044551
1.7102409902519553,2.806661829551963,-0.01756973882215838,0.6103256110681325,-1.176398791230526
1.7068954445445137,2.692283538493271,-0.0176465317824903,0.5936564000760076,-1.2180219338924756
1.703534078554324,2.581065904181713,-0.01773626811424271,0.5770555400456685,-1.2588377262770716
1.700154569471843,2.4729959955638137,-0.01783751170134798,0.560522445405902,-1.2987280211396839
1.6967548687353229,2.3680609799341745,-0.017948811840968273,0.5440566664850458,-1.337570463058484
1.6933332050986674,2.2662480961795666,-0.018068700123825835,0.5276578993529252,-1.3752380156744672
1.6898880883440688,2.1675446260110363,-0.018195686766687022,0.5113259971579298,-1.4115984511332584
1.6864183137495672,2.07193786288094,-0.018328256333329327,0.495060983158881,-1.4465137974901194
1.6829229674347301,1.9794150782410362,-0.018464862770217926,0.47886306568220943,-1.4798397394746312
1.6794014327227536,1.8899634847505489,-0.01860392367164097,0.4627326552702803,-1.5114249676494333
1.6758533976747305,1.803570195988815,-0.018743813675972693,0.4466703843269003,-1.5411104706592202
1.6722788639719346,1.7202221821646688,-0.0188828568797724,0.4306771296114752,-1.5687287649842814
1.6686781573451284,1.6399062212430877,-0.019019318139239717,0.4147540379841034,-1.594103056436104
1.6650519397765753,1.5626088448279063,-0.019151393108688672,0.39890255585989554,-1.6170463276338483
1.661401223731204,1.488316278046554,-0.01927719684259054,0.3831244628911705,-1.6373603459877024
1.6577273887089037,1.4170143725782829,-0.019394750760568232,0.367421910459056,-1.6548345874469677
1.654032200451124,1.3486885318509714,-0.019501967742373925,0.35179746561790126,-1.6692450726800345
1.6503178331829322,1.28332362730416,-0.019596635080697856,0.3362541611906419,-1.6803531147812742
1.6465868953280056,1.2209039044797478,-0.01967639497116283,0.32079555275052124,-1.6879039815456311
1.6428424592008073,1.1614128775618298,-0.019738722157240006,0.3054257832275586,-1.6916254815468217
1.6390880952604974,1.1048332108523162,-0.01978089826707582,0.29014965581995433,-1.6912264927719296
1.635327911609499,1.0511465855551876,-0.01979998226974864,0.2749727157287689,-1.6863954669777785
1.6315665995430253,1.0003335501752346,-0.019792776324712106,0.25990134090232303,-1.6767989645548975
1.6278094861150891,0.9523733528591762,-0.019755786074614236,0.24494284137195824,-1.6620803069103438
1.6240625948988714,0.9072437541849752,-0.019685174096099944,0.2301055657249097,-1.641858481197036
1.620332716412739,0.8649208193436486,-0.01957670470529183,0.21539901155220098,-1.6157275029175189
1.616627490103561,0.8253786895192938,-0.019425677496582104,0.200833933967335,-1.583256546106117
1.6129555004020752,0.7885893338043068,-0.01922684567695229,0.18642244197988325,-1.5439913036243824
1.6093263903174009,0.7545222855596521,-0.018974313109092936,0.1721780658586018,-1.4974572628260459
1.6057509975310134,0.7231443712878409,-0.018661400431830236,0.15811576858151777,-1.4431659028842676
1.6022415203397276,0.6944194465974292,-0.01828046473959809,0.14425185973862176,-1.3806252742986869
1.598811724677228,0.6683081637176684,-0.017822647497240718,0.13060374952201917,-1.3093570432464365
1.595477209805122,0.6447678094508902,-0.017277509051243877,0.1171894532861682,-1.2289228862790598
1.5922557607405081,0.623752272381374,-0.01663248110258663,0.10402672639293471,-1.1389640375765804
1.5891678327295042,0.6052122231838872,-0.015872024276399208,0.09113168621218229,-1.0392585411819522
1.5862372413295498,0.5890956174654143,-0.014976306249436442,0.0785167950349126,-0.929800574650155
1.5834921777720998,0.5753486422563086,-0.013919099618460386,0.0661882071661876,-0.810903356924413
1.580966745321881,0.5639171900736564,-0.01266439985752665,0.05414286844067488,-0.6833184234308137
1.5787033457837065,0.554748787682616,-0.011160858439045863,0.04236663041236497,-0.548345155616518
1.5767565239315524,0.5477945056866247,-0.009332003162578019,0.03083633796647417,-0.4078738958831915
1.575199663889725,0.5430094921707429,-0.007055997277709255,0.019532225358592163,-0.264274673908462
1.5741391389767267,0.5403484566997712,-0.004107422859115212,0.008478674335859842,-0.12004163016532318
