x,y,v_x,v_y,omega
2.375,32.48,0.0,2.0,-6.775510204081632
2.373764116296892,32.02463076714911,-0.010746814809632087,1.9597324595728982,-6.4353227332379985
2.3702036654583885,31.578369581248264,-0.02021362726431611,1.9207995917388407,-6.11994130406262
2.3645964886275905,31.140918813189877,-0.02854443213392467,1.883120130508007,-5.826931366463807
2.357189387613038,30.711998661285932,-0.035865141905661604,1.8466203208306309,-5.554150686973085
2.3482019828034693,30.291345534934955,-0.04228620426450112,1.8112329517865686,-5.2997079398879965
2.3378300196408657,29.878710642639902,-0.04790477975814076,1.7768965464312656,-5.061928105294999
2.3262482149900765,29.47385875176099,-0.05280656503133029,1.743554678602765,-4.8393233923182635
2.313612717275472,29.07656709349191,-0.05706732813914203,1.711155393302284,-4.6305686785657265
2.3000632405928543,28.686624391370483,-0.06075420823144918,1.6796507121014201,-4.4344806648324
2.285724922221658,28.303829995470117,-0.06392682108330153,1.6489962087713443,-4.250000104424111
2.270709944378952,27.927993107488476,-0.0666382036358792,1.6191506432429001,-4.076176591028867
2.255118954169679,27.55893208442221,-0.06893562427084364,1.5900756442898651,-3.9121554866438095
2.2390423101205523,27.196473810519123,-0.0708612805041711,1.5617354331282933,-3.7571666480917214
2.2225611791538054,26.840453128830738,-0.07245290181536614,1.534096581553309,-3.6105146718975827
2.205748504144984,26.490712325024056,-0.07374427217438735,1.5071277993743408,-3.471570426306539
2.188669859149793,26.14710065721126,-0.07476568430553222,1.4807997468238983,-3.3397636786984015
2.171427545780869,25.80948713083919,-0.07516747542424118,1.454970047715838,-3.20680909221764
2.1541126036551126,25.47774628781321,-0.07539723871276999,1.429732935118776,-3.080695766817159
2.1367624848411673,25.151744659646564,-0.0754733596693633,1.4050638315477124,-2.960981316920237
2.1194106249688773,24.83135427302822,-0.07541237835055062,1.3809395303509095,-2.847257546363379
2.1020868453556822,24.51645234604692,-0.0752291835033184,1.3573380955734597,-2.7391473679398426
2.0848177130251577,24.206921006394857,-0.07493718458819901,1.3342387709662211,-2.636302040618582
2.0676268633851325,23.902647029563894,-0.07454846445550106,1.3116218971291163,-2.5383986874001105
2.050535289741369,23.603521595264553,-0.07407391505548525,1.289468835908648,-2.445138061608435
2.0335616033123545,23.30944006048773,-0.07352335824029296,1.2677619012810826,-2.3562425335534325
2.016722266969012,23.02030174779486,-0.07290565344094578,1.246484296048251,-2.2714542730434086
2.0000318055399045,22.7360097475675,-0.07222879376868586,1.2256200537548863,-2.1905336062758365
1.983502995189186,22.456470733075385,-0.07149999188973567,1.2051539853069948,-2.113257528262328
1.967147034084023,22.181594787334433,-0.07072575685081395,1.1850716298317059,-2.039418354215464
1.9509736963144044,21.91129524082603,-0.06991196288499835,1.1653592093718264,-1.9688224952935096
1.9349914708061196,21.645488519237038,-0.06906391110008633,1.146003587054171,-1.9012893458087334
1.9192076867728476,21.38409400045858,-0.06818638484140838,1.1269922284106584,-1.8366502704934469
1.9036286270821492,21.127033880151263,-0.06728369942553579,1.10831316556602,-1.7747476817164374
1.8882596307595017,20.874233045246974,-0.06635974685835654,1.0899549640364785,-1.7154341976777956
1.8731051857217322,20.62561895481307,-0.06541803607876796,1.071906691910531,-1.6585718736047226
1.8581690127139567,20.38112152775461,-0.06446172920623777,1.054157891206523,-1.6040314988439082
1.8434541413204646,20.140673036875278,-0.06349367421543066,1.0366985512224691,-1.5516919535137714
1.8289629788282067,19.90420800885782,-0.06251643441289927,1.0195190837119215,-1.5014396190561634
1.814697372640138,19.671663129761317,-0.06153231504856856,1.0026102997359478,-1.4531678376239752
1.8006586668634272,19.442977155665275,-0.06054338735761183,0.9859633880557006,-1.406776415768668
1.7868588010348208,19.21823398935595,-0.05945544593461714,0.9683250146340717,-1.3866119691176064
1.7733066996340767,18.9975308815357,-0.05838891407185384,0.9508324446724951,-1.3696286622670746
1.7599973064279482,18.78083483519762,-0.05734493989448082,0.9334810017455885,-1.3556580425635827
1.7469253254391996,18.56811390436273,-0.056324460007680044,0.9162662229056403,-1.3445377361932147
1.7340852676237029,18.35933714622952,-0.05532821664881529,0.8991838478178871,-1.336111023119925
1.721471493755235,18.15447457572704,-0.05435677351177613,0.8822298087254359,-1.3302264328187698
1.709078253811854,17.95349712228645,-0.05341053034370817,0.8654002211927215,-1.32673735888428
1.696899723135632,17.756376588657382,-0.05248973640604998,0.8486913755817775,-1.3255016907118695
1.6849300356172514,17.563085611605107,-0.05159450288421712,0.8320997292206321,-1.3263814605536584
1.6731633141383848,17.373597624333527,-0.050724814323316256,0.815621899227869,-1.3292425043403826
1.6615936984877036,17.18788682048671,-0.049880539160868896,0.7992546559618673,-1.33395413473908
1.6502153709507184,17.00592811958833,-0.04906143942161273,0.7829949170675108,-1.3403888249826834
1.6390225797593256,16.82769713378438,-0.04826717963397545,0.7668397420972672,-1.348421902063176
1.6280096605738046,16.653170135759126,-0.04749733502273009,0.750786327687545,-1.3579312479250332
1.6171710561580166,16.482324027698414,-0.04675139902759913,0.7348320032751673,-1.3687970073307159
1.6065013343976324,16.31513631117736,-0.04602879019313415,0.7189742273427145,-1.380901301095268
1.5959952048012545,16.151585057851623,-0.04532885847102185,0.7032105841854226,-1.3941279434028246
1.5856475336153046,15.991648880832724,-0.04465089097201899,0.6875387811963222,-1.408362161924193
1.5754533576754115,15.835306906628048,-0.043994117200965195,0.6719566466704321,-1.4234903194516653
1.5654078971097563,15.68253874752564,-0.043357713804731315,0.6564621281331057,-1.4393996357548864
1.5555065670033699,15.533324474302084,-0.042740808859500296,0.641053291202153,-1.455977908339861
1.5457449881266792,15.387644589129046,-0.04214248572041724,0.6257283189981658,-1.4731132307619799
1.5361189968266955,15.245479998550156,-0.0415617864533547,0.6104855121226314,-1.49069370710319
1.5266246541750517,15.106811986394717,-0.040997714865287194,0.59532328922901,-1.5086071611730738
1.5172582544636932,14.971622186488307,-0.040449239146524346,0.5802401882180377,-1.5267408389336392
1.5080163331363432,14.839892555012284,-0.03991529413478156,0.5652348680951956,-1.544981102578206
1.4988956742419535,14.711605342354737,-0.03939478320773687,0.5503061115356566,-1.563213114616232
1.489893317495225,14.586743064283969,-0.038886579807294944,0.5354528282101662,-1.5813205102289074
1.4810065650289364,14.465288472262348,-0.03838952859521421,0.5206740589343661,-1.5991850560659866
1.4722329879233458,14.34722452270277,-0.037902446236007026,0.5059689807141233,-1.6166862935543849
1.4635704325993149,14.232534344952025,-0.03742412179904484,0.49133691277061137,-1.6337011646862922
1.4550170271641583,14.121201207764653,-0.0369533167675351,0.4767773236413178,-1.6501036181530087
1.4465711878025886,14.013208484007205,-0.03648876463741683,0.46228983946691826,-1.665764193596315
1.4382316253096064,13.908539613305756,-0.03602917008417027,0.44787425358915084,-1.680549581670507
1.4299973518678817,13.807178062318833,-0.03557320766995558,0.4335305376014727,-1.6943221575573613
1.421867688179251,13.709107282283245,-0.03511952005726903,0.41925885401234425,-1.7069394855704243
1.4138422710685128,13.614310663441291,-0.034666715688279136,0.4050595707003045,-1.718253792548137
1.4059210616880478,13.52277148591433,-0.03421336588098161,0.39093327736022226,-1.7281114079010866
1.3981043544640723,13.434472866539437,-0.03375800128402416,0.3768808041605987,-1.73635216849394
1.390392786939979,13.349397701133046,-0.03329910762113428,0.3629032428514934,-1.7428087870726485
1.382787350689601,13.267528601588442,-0.03283512064302405,0.3490019705798397,-1.7473061837830584
1.3752894034939507,13.188847827153449,-0.032364420188717095,0.3351786766809663,-1.7496607815943421
1.3679006829998335,13.113337209172567,-0.03188532323838901,0.3214353927180074,-1.7496797683152752
1.3606233221087527,13.040978068516715,-0.031396075814488014,0.307774526028519,-1.7471603306176955
1.3534598663812833,12.97175112486832,-0.030894843554810644,0.29419889700100504,-1.7418888693998882
1.3464132937877353,12.905636396986761,-0.030379700736911146,0.2807117802299369,-1.733640211407401
1.3394870371936498,12.842613093060141,-0.02984861747252817,0.26731694956677204,-1.722176839940967
1.332685010043151,12.782659490270124,-0.029299444705720903,0.2540187268681587,-1.707248178641586
1.326011635801384,12.72575280278178,-0.02872989652703591,0.24082203390005089,-1.6885899780320375
1.3194718818497089,12.671869037555425,-0.028137529139704874,0.2277324463291425,-1.665923876487273
1.3130712987099384,12.620982837714767,-0.0275197155539507,0.21475624793743528,-1.6389572380491064
1.306816065731006,12.573067313770249,-0.026873614697636956,0.20190048201488864,-1.607383412329394
1.3007130447403614,12.528093863895354,-0.026196133047097562,0.1891729951581256,-1.5708826211355669
1.2947698437005448,12.486031985837368,-0.025483875994786836,0.17658246621567622,-1.5291237582417474
1.288994893207259,12.446849085118497,-0.024733084816394482,0.1641384096005838,-1.4817675001791035
1.2833975398552002,12.41051028722191,-0.023939553027595283,0.1518511373262505,-1.4284712752748654
1.2779881622910958,12.376978265803007,-0.023098512747225283,0.1397316576207275,-1.3688968329999962
1.2727783184888948,12.346213105006147,-0.02220447683713144,0.12779147974328622,-1.3027213985342234
1.267780936901012,12.318172222041845,-0.021251015231413383,0.11604228516367875,-1.2296536759454888
1.2630105703766354,12.292810386350961,-0.02023043280664415,0.10449541649616507,-1.149456229668276
1.2584837411352194,12.270079883219243,-0.019133299727409025,0.09316113247529698,-1.0619759056117306
1.2542194191373066,12.249930880059654,-0.017947761124006225,0.08204759065155764,-0.967183686466128
1.2502396970874727,12.232312056545766,-0.01665851757020064,0.07115957033876602,-0.8652242124016636
1.2465707565564317,12.217171542607712,-0.015245313134504584,0.060497072600844824,-0.756472333571127
1.2432442685618776,12.204458148011156,-0.01368066942683567,0.050054184760497354,-0.6415885059174307
1.2402994582790932,12.194122727041307,-0.011926376510419974,0.03981904106426338,-0.5215561283889609
1.2377862531137562,12.186119245011032,-0.009927581449031353,0.029776454851169032,-0.39767378084974425
1.2357704708715254,12.180404577198335,-0.0076009597877596,0.019916308737511636,-0.2714695488829454
1.2343439932299078,12.17693472091592,-0.00480319361761062,0.010256354587841873,-0.14451170663609847
1.233654207770987,12.17564832134595,-0.0011949408077862483,0.0009297286292944268,-0.018144215717931234
