x,y,v_x,v_y,omega
2.375,32.48,0.0,3.435897435897436,-3.224489795918368
2.374150434496352,31.801588335767683,-0.008495655036479952,3.3482192064257004,-2.9965118615583455
2.3717404804323574,31.140317333979333,-0.015603885603467108,3.264490811457789,-2.792815971967407
2.3680258369361358,30.49542483211766,-0.021542549358749802,3.1844342071589535,-2.6100732615790885
2.3632223283298956,29.86620164073293,-0.02649253670365164,3.107797706688363,-2.445491467764808
2.357512611328678,29.251986593485015,-0.03060463330852201,3.0343527657907896,-2.296717058368932
2.3510516486789337,28.65216219092865,-0.03400499318892273,2.963891259772858,-2.1617571457508604
2.343971196600389,28.066150748966933,-0.036799527596522066,2.896223159844299,-2.038916810387587
2.336383499586946,27.493410979252115,-0.03907744253790698,2.8311745373038604,-1.926748507240254
2.3283843449534283,26.93343494159206,-0.040914103797274205,2.7685858392966693,-1.8240110066825173
2.3200555977902746,26.385745318525956,-0.04237336783426072,2.708310391364399,-1.7296359041438527
2.3114673123798837,25.849892970310933,-0.04350948626964956,2.6502130907858286,-1.6427001717382266
2.3026794969231794,25.325454735083717,-0.04436866829739408,2.5941692614863254,-1.5624035587509983
2.2937435933513024,24.812031444275824,-0.04499036742137451,2.540063646592601,-1.4880499030734555
2.284703722103104,24.30924612772744,-0.0454083450606079,2.4877895188912227,-1.4190316122016962
2.275597732316549,23.816742386560062,-0.04565155280494398,2.4372478927825902,-1.3548167246810785
2.2664580903661884,23.334182914881556,-0.045744866698660444,2.388346824002463,-1.2949380815317548
2.257312633663126,22.861248153925686,-0.04570970033196298,2.3410007855562536,-1.2389842301604401
2.248185211798277,22.397635064361396,-0.04556451831652755,2.2951301100866326,-1.1865917564869723
2.239096233206855,21.943056004317185,-0.04532526759769085,2.250660490355489,-1.1374387989704098
2.230063132369673,21.49723770220858,-0.045005740774134245,2.207522530730566,-1.0912395443077991
2.2211007699949405,21.059920314778083,-0.04461788297318796,2.1656513435743783,-1.0477395413945207
2.2122217765250722,20.630856561892983,-0.044172051725496604,2.124986185276624,-1.006711699670619
2.203436847593738,20.20981093062717,-0.04367723758784536,2.085470127381503,-0.9679528617703466
2.1947549986456756,19.796558942002818,-0.04314125189277623,2.0470497588620034,-0.9312808596349651
2.1861837847671888,19.390886474506267,-0.042570886892092395,2.0096749161035192,-0.8965319788711814
2.177729490812322,18.992589139136474,-0.04197205265657461,1.9732984375944103,-0.8635587688673064
2.16939729611113,18.601471701307652,-0.04134989435534993,1.937875940693813,-0.8322281465886714
2.1611914173822906,18.217347545421543,-0.04070889293304142,1.9033656181672707,-0.8024197505150825
2.1531152329184433,17.84003817835913,-0.04005295170543119,1.8697280524568516,-0.7740245082146222
2.1451713906494554,17.46937276852432,-0.03938547098444664,1.8369260458912429,-0.7469433868552651
2.137361902300562,17.105187717410352,-0.038709412504486396,1.804924465248442,-0.7210863007666298
2.1296882255359812,16.74732626095912,-0.03802735514132508,1.7736900992638662,-0.6963711541616121
2.1221513357036965,16.39563809824935,-0.03734154318151967,1.743191527833848,-0.6727230004588335
2.1147517885649587,16.049979045285777,-0.03665392820586102,1.7133990018018943,-0.6500733024306721
2.1074897751955657,15.710210711872037,-0.0359662054880693,1.684284332335514,-0.6283592797344136
2.1003651700793573,15.376200199737767,-0.035279845674012614,1.6558207890072003,-0.6075233323440634
2.0933775732726896,15.047819820258418,-0.03459612239266429,1.6279830057862872,-0.587512530051415
2.086526347398016,14.724946830256734,-0.03391613635407387,1.6007468942305392,-0.5682781595992721
2.0798106501217335,14.407463184509783,-0.0332408364087499,1.5740895632389573,-0.549775322190075
2.073229462683406,14.095255303706729,-0.03257103797452792,1.5479892447915793,-0.5319625751147928
2.066781614968037,13.78821385671166,-0.03190743917915498,1.5224252251591057,-0.5148016120988581
2.060465807548346,13.486233556084162,-0.031250635017754845,1.4973777811158906,-0.49825697768813015
2.054287619393536,13.189213639415101,-0.030531246530349294,1.472821385574735,-0.4803221127250601
2.048251796672944,12.897056972108544,-0.029826980675569062,1.4487452874908304,-0.46320746323712503
2.04235531693882,12.609669206846426,-0.02913781666566851,1.4251323651303345,-0.4468658137473637
2.0365951669016122,12.326959342630797,-0.028463683706412446,1.401966277025975,-0.4312531814806969
2.0309683516788324,12.048839573191223,-0.027804468521388633,1.379231417369768,-0.41632855993768597
2.025471902634865,11.775225144010946,-0.027160021918284073,1.3569128744329875,-0.4020536855151673
2.0201028839912336,11.506034217390113,-0.02653016451802644,1.33499639177534,-0.38839282486423904
2.0148583983642383,11.241187745009928,-0.02591469175192967,1.3134683320265161,-0.37531258093084924
2.009735591367208,10.980609347503034,-0.025313378218372557,1.292315643042418,-0.3627817158483856
2.0047316553974937,10.724225200573233,-0.024725981478771662,1.2715258262555909,-0.3507709890491694
1.999843832713374,10.471963927242179,-0.024152245362423375,1.251086907054938,-0.33925300913603557
1.9950694178930357,10.223756495832298,-0.023591902840960743,1.2309874070438611,-0.32820209820918683
1.9904057597563887,9.979536123324042,-0.023044678525509617,1.2112163180386823,-0.3175941674797967
1.9858502628205403,9.7392381837521,-0.02251029083297303,1.1917630776807207,-0.3074066031225967
1.9814003883510347,9.502800121329443,-0.021988453862084527,1.1726175465458508,-0.29761816142684555
1.9770536550633429,9.270161368010374,-0.02147887901483197,1.1537699866448472,-0.28820887240028115
1.9728076395224137,9.041263265224245,-0.02098127639446145,1.135211041216438,-0.27915995106535635
1.9686599762822234,8.81604898953032,-0.020495356007439826,1.1169317157228362,-0.2704537157625025
1.9646083578021387,8.594463481961572,-0.020020828793408708,1.0989233599646524,-0.26207351284244684
1.960650534172374,8.376453380841248,-0.01955740750423873,1.0811776512386022,-0.25400364718968693
1.9567843126768765,8.16196695787065,-0.019104807450734847,1.063686578467365,-0.2462293180729297
1.9530075572184726,7.950954057300276,-0.018662747133303667,1.0464424272363686,-0.2387365598663689
1.9493181876280492,7.743366038008915,-0.018230948770931135,1.0294377656772375,-0.23151218722873915
1.9457141788768464,7.539155718326974,-0.01780913874109766,1.012665431142181,-0.2245437443657149
1.9421935602085618,7.338277323450981,-0.017397047941747058,0.9961185176177475,-0.21781945803590944
1.938757809896198,7.140855867984694,-0.016960455181892133,0.9780960370451355,-0.24497769475987757
1.9354058900224231,6.947027825983074,-0.0165587435558556,0.9601843829710499,-0.27376242501423426
1.9321308865107376,6.7567713298496805,-0.016191291561000885,0.9423805783628921,-0.3040676302007214
1.92892601601914,6.570065096015604,-0.015857413354974034,0.9246817599778557,-0.3357896699439217
1.9257846381758525,6.38688840259795,-0.015556365077901495,0.9070851741986925,-0.3688270547168433
1.9227002666048958,6.207221067853752,-0.015287350631665395,0.8895881732432949,-0.4030802233266016
1.9196665788463483,6.031043429355666,-0.015049526953810219,0.8721882117375679,-0.43845132435463074
1.9166774252689496,5.858336323817561,-0.014842008820175605,0.8548828436434719,-0.4748440006503524
1.9137268370662246,5.689081067499558,-0.014663873207074091,0.8376697195365451,-0.5121631759750848
1.910809033421446,5.523259437122931,-0.014514163240713413,0.8205465842297098,-0.550314842883998
1.9079184279215171,5.3608536512256855,-0.014391891758574263,0.8035112747427419,-0.5892058509178356
1.9050496342952026,5.201846351889461,-0.014296044504570577,0.786561718619488,-0.6287436941525718
1.9021974715470442,5.046220586767735,-0.014225582977014534,0.7696959325977754,-0.6688362971237151
1.899356968554777,4.893959791343953,-0.014179446945656723,0.7529120216400272,-0.7093917981020686
1.8965233681950768,4.745047771346357,-0.014156556651346373,0.7362081783359146,-0.7503183286487868
1.8936921310600292,4.599468685243565,-0.014155814699129694,0.7195826826919949,-0.7915237883187799
1.8908589388248314,4.457207026741639,-0.014176107652846943,0.7030339023272798,-0.8329156133120841
1.8880196973258998,4.318247607199101,-0.01421630733646996,0.6865602930980966,-0.874400537791743
1.885170539407802,4.182575537871237,-0.014275271844508412,0.6701604001805523,-0.9158843464929824
1.8823078275972742,4.050176211888736,-0.01435184626076874,0.653832859644464,-0.9572716171407685
1.8794281566630437,3.9210352858684026,-0.014444863081535562,0.637576400558891,-0.9984654510699099
1.8765283561213084,3.7951386610448594,-0.014553142335817582,0.6213898476765244,-1.0393671903022514
1.8736054927485655,3.6724724638019772,-0.014675491391610854,0.6052721247522956,-1.079876119177683
1.8706568731660917,3.553023025470665,-0.014810704433127873,0.5892222585608305,-1.1198891484580769
1.8676800465638228,3.4367768612457823,-0.014957561589561338,0.5732393836879919,-1.1593004796243032
1.864672807635754,3.3237206480585897,-0.015114827691128792,0.5573227481839433,-1.1980012468646724
1.8616331998043607,3.2138412012222766,-0.015281250622802296,0.5414717201791919,-1.2358791340073265
1.8585595188180626,3.1071254496462366,-0.015455559240178858,0.5256857955812145,-1.2728179633784786
1.8554503168135152,3.0035604093893262,-0.015636460805293642,0.5099646069878851,-1.308697253273028
1.8523044069437153,2.903133155293002,-0.01582263789270551,0.4943079339753598,-1.34339174040528
1.8491208686836687,2.8058307904011883,-0.016012744707762875,0.47871571494276693,-1.3767708633685107
1.845899053937949,2.7116404128344698,-0.016205402749435195,0.46318806072442664,-1.4086982027791826
1.8426385940890757,2.6205490797407407,-0.016399195739294648,0.4477252702128514,-1.4390308734253185
1.839339408142552,2.5325437678921645,-0.01659266372594256,0.43232784827290316,-1.467618863396026
1.8360017121439438,2.4476113304379155,-0.01678429626014201,0.4169965262695937,-1.49430431486704
1.8326260300659465,2.365738449253019,-0.01697252451982889,0.40173228557935364,-1.5189207409959715
1.8292132063894004,2.2869115822443717,-0.017155712245632927,0.3865363845071295,-1.5412921733015357
1.8257644206322339,2.211116904884772,-0.017332145326033225,0.3714103890888775,-1.561232234053688
1.8222812041150198,2.1383402451439295,-0.0175000198461076,0.3563562083195573,-1.578543128719649
1.8187654592920044,2.0685670108711847,-0.017657428384046915,0.341376134407893,-1.5930145545901893
1.815219482023219,2.0017821085587855,-0.017802344303807584,0.3264728887161055,-1.6044225236387526
1.8116459872179975,1.9379698522784494,-0.017932603748405534,0.311649674087242,-1.6125281008643502
1.8080481383448301,1.8771138614416252,-0.018045884983268434,0.2969102342809912,-1.6170760644553202
1.8044295813797187,1.819196945892628,-0.018139684667847905,0.2822589212089678,-1.617793501991163
1.8007944838590801,1.7642009767169888,-0.018211290538535766,0.26770077054742425,-1.6143883689045129
1.7971475798198062,1.7121067410568145,-0.018257749854203694,0.2532415860543297,-1.6065480535112988
1.7934942215577112,1.662893779207053,-0.0182758327667489,0.23888803244329587,-1.5939380199619884
1.7898404393311584,1.6165402023790207,-0.01826198949877848,0.22464773583703662,-1.576200640701162
1.786193010403058,1.573022489851713,-0.01821229978222433,0.21052938943603416,-1.552954389651429
1.782559539190825,1.5323152649292808,-0.018122412340104477,0.19654285978827374,-1.523793655411265
1.7789485508449516,1.4943910504026583,-0.01798747111863028,0.18269928547794617,-1.488289563335197
1.7753696014103075,1.4592200064046033,-0.017802023227811135,0.16901115450259724,-1.4459923849327512
1.7718334090207088,1.4267696571389443,-0.017559900668176413,0.15549233815397756,-1.3964363878300894
1.768352012640151,1.3970046186579275,-0.01725406313740042,0.1421580466561995,-1.3391483718286348
1.7649389682035133,1.3698863486110966,-0.016876381228978707,0.12902465381210057,-1.273661681890807
1.7616095974797372,1.3453729518715782,-0.01641732600877963,0.11610931358307361,-1.1995382114414301
1.7583813140002529,1.3234190943019897,-0.015865508786065446,0.10342926211282027,-1.1164017812480018
1.7552740652904284,1.303976100927887,-0.015206978312178382,0.09100067162821332,-1.0239871207525386
1.7523109551676859,1.2869923417197953,-0.01442412291524735,0.07883692045268761,-0.9222089441240708
1.7495191500722578,1.2724140275904396,-0.013493928039033128,0.06694622084085687,-0.8112539920812364
1.7469312395404129,1.260186523785233,-0.01238517727941596,0.05532881721121251,-0.6916927860723207
1.7445873341523557,1.250256178986458,-0.011053876601155123,0.043974630776538376,-0.5645931813855394
1.7425384052139732,1.2425723584263721,-0.009435412782670934,0.03286357482432565,-0.4315914437925653
1.7408519319872613,1.2370886665900542,-0.007429319484447543,0.021973343538841103,-0.29484387969070325
1.7396229495191025,1.2337606817485778,-0.004860505197141155,0.01130650487593934,-0.1567665244299285
1.7390053659827127,1.2325303936074512,-0.0013153301667553885,0.000996376535339124,-0.01952965261235798
