x,y,v_x,v_y,omega
2.375,32.48,0.0,2.9743589743589745,-3.224489795918368
2.374352102325876,31.92111607501221,-0.0068199755170949,2.9086297097229763,-3.033433391171541
2.3724983209086528,31.374488352563468,-0.012693513085256816,2.84534631605328,-2.859179398422429
2.369606603561186,30.83966597312737,-0.017745616888075598,2.784362941168772,-2.69980130947208
2.365822845911327,30.316224667378076,-0.022083411005180048,2.7255455404027686,-2.5536343024536077
2.3612740216632937,29.80376463115205,-0.025798949500428353,2.668770630397517,-2.419234792700469
2.356070824938818,29.30190862132541,-0.028971542336157653,2.613924209882884,-2.2953469518549787
2.350309908039112,28.81030024350589,-0.031669688187066294,2.560900819796302,-2.1808748742119395
2.3440757824353273,28.328602407172323,-0.03395268658961568,2.509602720557012,-2.074859342568668
2.337442438409662,27.856495927709283,-0.035871987364755185,2.4599391685276104,-1.9764583578056634
2.3304747288397754,27.39367825788502,-0.03747232389720685,2.411825776990969,-1.8849307619098616
2.3232295546184196,26.93986233386203,-0.03879266790653841,2.3651839495668088,-1.7996224141618662
2.3157568827232335,26.494775522927895,-0.03986703625331423,2.3199403760556634,-1.7199544829356177
2.308100622685241,26.058158661879215,-0.04072517467292478,2.2760265823515153,-1.6454134971674592
2.3002993829048233,25.62976517645282,-0.04139313880515643,2.2333785273999767,-1.5755428667118432
2.292387124739768,25.20936027342959,-0.041893789248056465,2.1919362412656658,-1.5099356330767633
2.284393729390884,24.79672019807936,-0.04224721442441083,2.1516434992630527,-1.448228254160429
2.276345490217468,24.39163155050459,-0.042471092664174814,2.1124475278397736,-1.3900952607067407
2.2682655411327737,23.99389065520123,-0.04258100296418737,2.074298738511372,-1.3352446499044468
2.2601742300827303,23.603302978810348,-0.04259069229942577,2.037150486655789,-1.283413904157752
2.252089445238722,23.2196825915997,-0.042512306058557096,2.0009588524036777,-1.2343665415631406
2.244026900388117,22.84285166870529,-0.04235658710570724,1.9656824412216891,-1.1878891198341077
2.236000385044854,22.472640027590472,-0.04213304808653584,1.931282202092196,-1.143788627953169
2.2280219839944566,22.108884698553588,-0.0418501208650149,1.8977212614539551,-1.1018902102011285
2.220102270307148,21.751429525442756,-0.04151528636981258,1.864964771291637,-1.0620351758185536
2.212250475277793,21.400124794024407,-0.04113518762339453,1.8329797699541606,-1.0240792547158726
2.2044746382646228,21.054826885706255,-0.040715728304713955,1.8017350544474058,-0.9878910656259654
2.1967817389855946,20.715397954540176,-0.04026215884295439,1.7712010630902792,-0.9533507680963224
2.189177814479905,20.38170562562957,-0.03977915174325392,1.7413497675476708,-0.9203488739169746
2.1816680626426828,20.053622713243115,-0.03927086759592303,1.7121545733623893,-0.8887851971139183
2.174256933985083,19.7310269570944,-0.03874101301039144,1.6835902282030346,-0.8585679246187615
2.166948213053039,19.413800775387962,-0.0381928915374387,1.6556327371279191,-0.8296127922464029
2.159745090750167,19.101831033358174,-0.037629448492795176,1.6282592842382289,-0.8018423527497741
2.1526502286489384,18.795008826140535,-0.03705331046750589,1.6014481601579882,-0.7751853245367042
2.145665816235349,18.493229274916175,-0.03646682020185649,1.5751786948352595,-0.7495760111805595
2.1387936219124954,18.19639133536194,-0.03587206740712697,1.5494311952093225,-0.7249537831763263
2.132035038484977,17.9043976175204,-0.03527091604043401,1.524186887333224,-0.7012626145228679
2.1253911237564536,17.61715421627857,-0.034665028470341315,1.4994278625807662,-0.6784506676798077
2.11886797951625,17.334571505384186,-0.03399964774232725,1.4751269889390488,-0.6547654571445337
2.112470695328979,17.056562977984985,-0.03334018580789508,1.4512785626314995,-0.6321256121474129
2.1061980766307555,16.783044154628584,-0.03268737943656156,1.4278669463832616,-0.6104729220500283
2.1000487993859727,16.513933461610637,-0.03204185471904736,1.404877190647741,-0.5897530298727877
2.0940214299217903,16.249152103923954,-0.031404139640765195,1.3822949955278838,-0.5699151365926887
2.088114442506785,15.988623945204537,-0.03077467525403011,1.3601066752028192,-0.5509117311562237
2.0823262349246314,15.732275394216774,-0.030153825610743083,1.3382991246683702,-0.5326983437131364
2.076655142264835,15.480035297454705,-0.02954188659763699,1.316859788616585,-0.5152333198432004
2.071099449127151,15.231834837468156,-0.028939093799040215,1.2957766322944728,-0.4984776137836093
2.0656574004140116,14.987607436551588,-0.028345629497164106,1.2750381141956992,-0.4823945988728625
2.060327210865629,14.747288665460125,-0.027761628906861232,1.254633160451283,-0.4669498936115834
2.0551070734750914,14.510816156841589,-0.027187185730379402,1.234551140796467,-0.45211120190443754
2.04999516690548,14.278129523095828,-0.026622357107634588,1.214781846001021,-0.43784816619277545
2.0449896620175227,14.049170278393088,-0.026067168028757776,1.1953154666594015,-0.42413223231700703
2.040088727604333,13.82388176460212,-0.025521615267975483,1.1761425732455206,-0.4109365250629492
2.0352905354192186,13.602209080896074,-0.024985670891122684,1.1572540973444512,-0.39823573344914587
2.030593264573164,13.384099016820223,-0.02445928538314049,1.1386413139802998,-0.3860060049039016
2.0259951053702814,13.169499988620345,-0.023942390436675395,1.1202958249657755,-0.37422484756277596
2.02149426264216,12.958361978644149,-0.02343490143828294,1.1022095432047208,-0.36287103999067194
2.0170889586354797,12.750636477640708,-0.02293671968466801,1.084374677884122,-0.35192454769839815
2.0127774355014454,12.54627642979451,-0.02244773435779981,1.0667837204969193,-0.34136644588255466
2.008557957430421,12.345236180341377,-0.021967824284562516,1.0494294316413233,-0.33117884787053825
2.004428812470527,12.147471425623547,-0.0214968595037923,1.0323048285463723,-0.3213448388000537
2.000388314064866,11.95293916545031,-0.02103470266106286,1.0154031732771585,-0.3118484141053387
1.9964348023383742,11.76159765763921,-0.020581210249376324,0.9987179615765313,-0.3026744224208777
1.9925702062383583,11.573604036852878,-0.020098748698159644,0.9801622572269565,-0.3350880735706688
1.9887935963972097,11.389125742227723,-0.019655039103406442,0.9617145283010005,-0.3689324217365335
1.9850977037903617,11.208142525038298,-0.019249093600257193,0.943371968429789,-0.40410258805887433
1.9814754511361523,11.03063465949932,-0.01887988170720924,0.9251318793489149,-0.44049561939591353
1.9779199605411337,10.85658292254815,-0.018546335082459283,0.9069916675054989,-0.47801026189830453
1.9744245602838766,10.685968574237215,-0.018247351836038237,0.8889488410306433,-0.5165467375198887
1.970982790818937,10.518773338667437,-0.017981800426482102,0.8710010070722852,-0.556006522520583
1.967588410077484,10.354979385394394,-0.017748523167758386,0.8531458694860579,-0.5962921270067687
1.9642353981364675,10.194569311239192,-0.01754633936925972,0.8353812268844822,-0.6373068745364424
1.960917961324146,10.03752612243564,-0.01737404812885941,0.8177049710476567,-0.6789546807904293
1.9576305358262587,9.883833217044458,-0.017230430796272022,0.8001150857016402,-0.7211398302766528
1.9543677908540942,9.733474367563776,-0.017114253121250044,0.7826096456739737,-0.7637667499912622
1.9511246314332227,9.586433703663015,-0.017024267098447936,0.76518681643931,-0.8067397789076587
1.9478962008696534,9.442695694964442,-0.016959212518070105,0.7478448540719794,-0.8499629321013732
1.9446778829487141,9.302245133793079,-0.01691781822865934,0.7305821056265746,-0.8933396582444303
1.9414653039210148,9.16506711781118,-0.016898803115545945,0.7133970099723644,-0.9367725891163026
1.9382543343294625,9.031147032448104,-0.016900876795531036,0.69628809911264,-0.980163279678666
1.935041090731485,8.900470533029928,-0.016922740025283167,0.6792540000260409,-1.0234119371466908
1.931821937371407,8.773023526505458,-0.016963084817645323,0.6622934370736372,-1.0664171373591564
1.9285934878593598,8.64879215265626,-0.01702059425653423,0.6454052350231768,-1.1090755266018366
1.925352606915244,8.527762764667749,-0.01709394199731654,0.6285883227506034,-1.151281506871795
1.9220964122391349,8.409921908925998,-0.017181791435410914,0.6118417376888929,-1.1929269023829465
1.9188222765732446,8.295256303890518,-0.017282794521329217,0.595164631105643,-1.2339006049039407
1.9155278300251588,8.18375281787661,-0.017395590195363488,0.5785562743039233,-1.2740881952867913
1.9122109627276902,8.075398445561422,-0.017518802409569007,0.5620160658559251,-1.3133715382877102
1.9088698279174239,7.970180283005465,-0.017651037698496783,0.545543539996243,-1.3516283474999
1.9055028455220138,7.868085500955278,-0.01779088225318866,0.5291383763215305,-1.3887317169122062
1.9021087063556719,7.769101316162946,-0.017936898445146367,0.512800410966179,-1.4245496152796309
1.8986863770332554,7.673214960423408,-0.018087620738185945,0.4965296494500012,-1.4589443391462023
1.8952351057260952,7.580413646990369,-0.01824155091613185,0.4803262814241008,-1.4917719200055093
1.8917544288974772,7.4906845339853945,-0.01839715254300401,0.46419069757563247,-1.522881480732428
1.8882441791727411,7.404014684361524,-0.0185528445594819,0.44812350899142694,-1.552114536091842
1.8847044945186417,7.320391021921484,-0.01870699390472114,0.43212556932479834,-1.5793042318581767
1.8811358289293008,7.239800282820482,-0.018857907035711233,0.41619800015941527,-1.6042745169111117
1.877538964842206,7.162228961903562,-0.019003820196865154,0.4003422200186882,-1.6268392426790041
1.8739150275378678,7.087663253136636,-0.019142888269851284,0.3845599775278944,-1.646801184587401
1.8702655018115637,7.016088983288231,-0.019273172007036245,0.36885338929742484,-1.6639509808898332
1.8665922512459758,6.9474915379051865,-0.019392623420204258,0.3532249831556734,-1.6780659856379256
1.8628975404605603,6.881855778501141,-0.019499069057852605,0.33767774741323203,-1.6889090349182894
1.8591840607686558,6.819165949743645,-0.019590190856931998,0.32221518687621004,-1.6962271293279618
1.8554549597387495,6.759405575289112,-0.019663504194712963,0.3068413863294188,-1.6997500416851938
1.8517138752349183,6.702557340783198,-0.019716332687720772,0.29156108215390053,-1.6991888682128231
1.847964974607661,6.648602962432818,-0.019745779178144827,0.2763797425869456,-1.6942345554036708
1.8442129998268482,6.597523039489868,-0.019748692198832393,0.26130365681253354,-1.6845564557053205
1.8404633195037716,6.549296889006381,-0.019721626991447232,0.24634003248732642,-1.6698009963078935
1.8367219889559037,6.503902361390594,-0.01966079982821539,0.2314971003104215,-1.6495905914640931
1.8329958197527934,6.46131563571376,-0.01956203388873622,0.21678422260361943,-1.6235229968988543
1.8292924605884178,6.421510994543915,-0.01942069415732233,0.20221200023684918,-1.5911714051046273
1.8256204919267218,6.384460579551931,-0.019231607544738814,0.18779236809982305,-1.552085727166977
1.821989537783507,6.350134131601898,-0.018988962383841155,0.17353866295314066,-1.5057957204980352
1.8184103994406042,6.318498723022028,-0.018686178067764427,0.15946563788760254,-1.4518169296293777
1.8148952181744549,6.289518495987643,-0.01831572999696711,0.1455893835269699,-1.389660842468278
1.8114576777843818,6.263154430408008,-0.017868905688010184,0.13192709625868024,-1.3188512609097978
1.8081132637635207,6.239364178533052,-0.017335452426318572,0.1184966076882407,-1.238949656561216
1.804879605911451,6.218102022636682,-0.01670305127967705,0.10531555964196927,-1.149593171301402
1.8017769475481797,6.199319036316265,-0.015956510438966356,0.09240008583609055,-1.050549674782222
1.7988288112636424,6.182963555145889,-0.015076503082481079,0.07976287385206934,-0.9417942033555615
1.7960629747740122,6.168982075477533,-0.01403756522941666,0.06741059634115726,-0.8236085830760259
1.793512942209102,6.1573206689930835,-0.012804882822268401,0.05534105086358618,-0.6966980929465333
1.791220220946927,6.147926859659055,-0.01132902520062637,0.04354115265250414,-0.5623015269086954
1.7892379693533957,6.140751542976364,-0.009536781047072649,0.031988496638986376,-0.4222420608474435
1.7876372785535057,6.135749719510894,-0.007312595793872662,0.02066227668175439,-0.27883511228008373
1.7865200837374955,6.132876776177767,-0.004447349637814143,0.009579232088001691,-0.13456356959302646
1.78606115215644,6.132066056680181,-0.00038350911014027947,-0.0010453426397312622,0.008443211051140348
