x,y,v_x,v_y,omega
2.375,32.48,0.0,2.051282051282051,-5.918367346938775
2.3743509170515433,32.114014774408034,-0.007212032760630764,2.0152204552953434,-5.671085800960263
2.372470291772266,31.754436794995563,-0.01368380367577872,1.980090427065414,-5.438308331068641
2.369485144490552,31.40110238895038,-0.019484499454381216,1.9458474178810383,-5.21887695123564
2.3655106821613443,31.05385561963287,-0.02467619309236939,1.9124500189802167,-5.011747069788518
2.3606515038705327,30.712547749300235,-0.02931467680553707,1.8798596513824022,-4.8159744519088195
2.355002666481386,30.377036754113053,-0.03345018307387283,1.8480402951418382,-4.630703911714741
2.3486506290105207,30.047186884867447,-0.03712801104685173,1.8169582520315608,-4.4551594721615775
2.34167409148875,29.722868267881392,-0.04038907252837579,1.7865819367023579,-4.288635775726997
2.3341447417216727,29.403956541280316,-0.04327036932804171,1.7568816921984862,-4.130490565047093
2.3261279214200243,29.090332522607085,-0.04580541180138396,1.7278296263930026,-3.980138082130098
2.317683221545363,28.781881904250138,-0.048024586805965615,1.699399466461935,-3.837043258880691
2.308865015353177,28.478494973660993,-0.04995548199610185,1.6715664289729943,-3.7007165914930353
2.29972293646586,28.18006635573477,-0.051623172307416275,1.6443071035406225,-3.570709607653903
2.2903023083344367,27.886494775068186,-0.05305047359729173,1.617599348310294,-3.446610849098028
2.2806445306201533,27.59768283609886,-0.05425816767252179,1.5914221957933694,-3.328042303397684
2.270787427320585,27.313536819376427,-0.05526520232268149,1.565755767789193,-3.214656228362084
2.260765560859748,27.03396649242738,-0.056088869464395626,1.5405811983113404,-3.1061323204011457
2.2506105158416667,26.758884933856596,-0.05674496406984056,1.5158805635862578,-3.0021751849389107
2.2403511557184537,26.48820836948503,-0.057247926188084386,1.4916368183200313,-2.9025120726597073
2.2300115428076497,26.221862318688153,-0.05763666170973485,1.467763746089695,-2.8046736576459064
2.2196119175210884,25.959774946782105,-0.05791473036316727,1.44431816397754,-2.7109986452764736
2.209171325424647,25.70187063296438,-0.05809184848618703,1.4212853228860667,-2.6212623817447764
2.1987071365107482,25.448076351555233,-0.058176917223796545,1.3986511372155455,-2.535254667602014
2.188235185470384,25.198321556085347,-0.05817809433580365,1.376402145783177,-2.4527786731544534
2.177769899655225,24.952538070160887,-0.05810285916596304,1.3545254755997125,-2.3736499468822467
2.167324415896727,24.71065998461441,-0.057958071484016375,1.3330088082500653,-2.2976955078754613
2.156910687228401,24.472623560493318,-0.05775002483071463,1.3118403486509511,-2.2247530142574186
2.1465395804503995,24.23836713747636,-0.05748449492486062,1.2910087959819132,-2.154670000422827
2.136220965380536,24.007831047343387,-0.05716678362917718,1.2705033166066573,-2.0873031766740846
2.1259637965513636,23.780957532155004,-0.05680175891718388,1.2503135188198011,-2.022517785506718
2.1157761880376467,23.5576906668269,-0.05639389123522786,1.230429429270247,-1.9601870093855867
2.105665482031442,23.337976285809177,-0.055947286611490954,1.2108414709266762,-1.9001914253769834
2.0956383117220283,23.121761913604068,-0.0554657168264397,1.1915404424633784,-1.8424185024664836
2.0857006589842944,22.90899669887633,-0.05495264692615878,1.1725174989559506,-1.7867621378056124
2.075857907331171,22.69963135192951,-0.05441126033076264,1.153764133786518,-1.733122228498372
2.06611489054263,22.493618085338678,-0.05384448176414227,1.1352721616671704,-1.681404275866843
2.0564759373451134,22.290910557545775,-0.053254998208266034,1.1170337026984105,-1.6315190194281735
2.046944912480541,22.091463819238115,-0.052645278064761845,1.0990411673866916,-1.583382098077403
2.037525254472769,21.895234262343664,-0.05201758868825698,1.0812872425516504,-1.5369137362053304
2.028220010371255,21.702179571488657,-0.05137401243967491,1.063764878059546,-1.4920384526911492
2.0190318677263006,21.512258677774074,-0.05071646139315424,1.0464672743247148,-1.4486847908985894
2.009963184027363,21.32543171473754,-0.050046690817261,1.029387870525663,-1.4067850679742318
2.0010160138152515,21.141659976376424,-0.04936631153953509,1.0125203334867516,-1.366275141899591
1.9921921336603243,20.96090587711638,-0.048676801292990464,0.9958585471803746,-1.3270941948863761
1.9834964769428947,20.78337275388782,-0.04794160667844807,0.9767317109147344,-1.3407920434079046
1.9749307486601482,20.60927201128292,-0.04723315201873695,0.9577209846953095,-1.356215977700545
1.9664901707934352,20.438583019263326,-0.04655104650029641,0.9388233710779132,-1.3732410501712728
1.9581700432534077,20.271285675645903,-0.04589481505556402,0.9200360024490241,-1.3917445402417348
1.949965758430884,20.107360383063572,-0.04526390519469794,0.901356137354679,-1.4116056880660839
1.9418728145683937,19.94678802654598,-0.04465769327741994,0.8827811572852122,-1.4327054317437662
1.9338868280500985,19.789549951638215,-0.04407549025919256,0.8643085639121876,-1.4549261469423718
1.9260035447019348,19.63562794297617,-0.043516546942626695,0.8459359767771363,-1.478151387839523
1.9182188501885329,19.48500420323707,-0.04298005876183711,0.8276611314351016,-1.5022656282790188
1.910528779588772,19.337661332382552,-0.04246517012439722,0.8094818780595563,-1.5271540020149288
1.902929526227645,19.19358230711048,-0.04197097833256633,0.7913961805190418,-1.5527020408878038
1.895417449838485,19.052750460429174,-0.041496537102546346,0.7734021159399294,-1.5787954097394088
1.8879890841264677,18.91514946126491,-0.041040859697646384,0.7554978747740768,-1.6053196368260816
1.8806411438017265,18.780763294009702,-0.04060292168836641,0.7376817613949166,-1.6321598384357128
1.873370531148316,18.649576237911596,-0.04018166334952842,0.7199521952507208,-1.659200436349113
1.8661743421937094,18.521572846204172,-0.039775991701657756,0.7023077126095331,-1.6863248667129733
1.8590498725424864,18.39673792486502,-0.03938478220081887,0.684746968936607,-1.7134152788085433
1.851994622937392,18.275056510885022,-0.03900688007800686,0.667268741952253,-1.7403522221075676
1.8450063046110354,18.15651384992099,-0.038641101325955184,0.6498719354258565,-1.7670143199051167
1.838082844492197,18.041095373193308,-0.03828623332780317,0.6325555837706165,-1.7932779277083117
1.831222390332036,17.92878667347775,-0.03794103511843328,0.615318857513377,-1.8190167744416077
1.8244233158174916,17.819573480026303,-0.03760423726539178,0.5981610697249087,-1.8441015844050654
1.817684225741918,17.713441632235316,-0.03727454135209463,0.5810816835082891,-1.868399677794701
1.8110039613065003,17.61037705186046,-0.03695061904143411,0.5640803206567441,-1.8917745474677838
1.804381605630413,17.510365713556673,-0.036631110692869624,0.547156771607576,-1.9140854095171087
1.797816489553007,17.413393613496776,-0.036314623500526944,0.5303110068357204,-1.9351867251157748
1.791308197817732,17.319446735795147,-0.0359997291136413,0.5135431898490781,-1.9549276910207665
1.784856575735068,17.228511016431604,-0.03568496069373807,0.4968536919680587,-1.9731516960977766
1.7784617364306734,17.140572304336054,-0.035368809355091436,0.48024310909358014,-1.9896957412768383
1.7721240687953723,17.055616319255464,-0.035049719926031155,0.463712280690768,-2.0043898205041035
1.7658442462657817,16.97362860598177,-0.034726085958307534,0.44726231123913957,-2.017056260569345
1.7596232365785698,16.894594484472172,-0.03439624389960289,0.43089459442306627,-2.0275090182307256
1.7534623126579167,16.81849899534196,-0.03405846632987691,0.4146108403570222,-2.03555293392434
1.7473630648151939,16.745326840155805,-0.03371095414482008,0.3984131061558259,-2.040982942669791
1.7413274144628215,16.67506231588679,-0.0333518275482058,0.3823038301665759,-2.0435832447504843
1.7353576295715785,16.607689242856498,-0.032979115687830074,0.36628587016998887,-2.04312644161689
1.7294563421335494,16.543190885416948,-0.03259074473471448,0.3503625458250059,-2.039372646592262
1.7236265679331249,16.481549864592473,-0.032184524158890455,0.33453768555801816,-2.032068585853707
1.717871728978527,16.422748061875257,-0.031758130892196444,0.31881567796663574,-2.020946713513949
1.71219567900992,16.36676651337533,-0.0313090909812169,0.303201527588079,-2.005724376410606
1.7066027325827375,16.313585293584584,-0.030834758209699265,0.2877009145313343,-1.9861030807688569
1.7010976983346815,16.26318338815317,-0.03033228899092405,0.27232025692884304,-1.961767936109511
1.6956859171943899,16.215538555338945,-0.029798612567869615,0.25706677434033337,-1.9323873842061567
1.6903733064981505,16.170627176236916,-0.02923039516812323,0.2419485490155529,-1.8976133660773504
1.6851664112775144,16.128424094614335,-0.02862399617227787,0.22697458012425323,-1.8570821426826247
1.680072464410451,16.08890244829155,-0.02797541346176178,0.2121548234622504,-1.8104160714229949
1.6750994579615381,16.052033495689678,-0.02728021374838146,0.197500205447427,-1.7572267586187649
1.6702562289804894,16.017786443642336,-0.026533441596604913,0.18302259507859628,-1.6971201670956177
1.665552564449417,15.98612828613221,-0.02572949763753475,0.1687347105894541,-1.6297044670712584
1.660999332222934,15.957023668606503,-0.024861971545607875,0.1546499285850707,-1.5546016830293856
1.6566086480799511,15.930434799281123,-0.023923407820869602,0.14078195280802153,-1.471464501599704
1.6523940939854613,15.906321437523243,-0.02290497100679554,0.1271442889462242,-1.379999925932922
1.6483710102078863,15.884640999623244,-0.021795959855147005,0.11374946549819698,-1.280001681439467
1.644556895311059,15.865348832345234,-0.020583094554046055,0.10060794870190977,-1.171393151149946
1.640971965082612,15.848398710181836,-0.019249463539808883,0.08772674200251063,-1.0542816664031882
1.6376399470570955,15.833743603809168,-0.01777295896593091,0.07510777324936882,-0.9290223838106486
1.6345892268904767,15.821336727202855,-0.01612393177427703,0.0627464112652312,-0.7962846289723763
1.631854530016879,15.811132770004015,-0.014261589043475653,0.050630890944111925,-0.6571046139287576
1.6294794589525834,15.803089015183243,-0.012128089448696857,0.03874416262001018,-0.512896786124158
1.627520563128359,15.797165647047766,-0.009637419709352675,0.02707103888527313,-0.36538684353611717
1.6260548174706577,15.793323672211603,-0.006648643153992136,0.015617570405431448,-0.21643197737604403
1.62519810612048,15.791515462752535,-0.002870371847983327,0.004473645806433892,-0.06772466701488308
