x,y,v_x,v_y,omega
2.375,32.48,0.0,3.7435897435897436,-6.530612244897959
2.3733282956016715,31.778089362533297,-0.01759688840345763,3.644943282375532,-6.053561078164248
2.3685920102031064,31.09447493940461,-0.03225874737091336,3.550998013715909,-5.629160394478295
2.361303913868943,30.428297735260408,-0.04445805614659565,3.461393608854611,-5.249930223864816
2.351894853039892,29.778763499783548,-0.054584689422359195,3.3758088698491946,-4.9096446548050645
2.340727931498759,29.145135840920616,-0.06296185311588715,3.2939559602869055,-4.603092322267932
2.3281099862789194,28.526730329866723,-0.06985862288242377,3.2155757350172522,-4.325888091445202
2.31430092800609,27.922909413200497,-0.07549988525262098,3.140433914100924,-4.07432381750806
2.2995213829222454,27.333077989508503,-0.08007427352469317,3.0683179142358727,-3.845249216257161
2.2839589754336327,26.756679538765265,-0.08374054214491283,2.9990341988508145,-3.6359761379638735
2.2677735159364247,26.193192715857414,-0.08663271572043328,2.93240604228447,-3.444201173978248
2.251101302315846,25.642128337157466,-0.08886426975934504,2.8682716282412763,-3.267942727604549
2.2340587002495993,25.10302670249149,-0.09053154146430166,2.8064824208742944,-3.1054895727534624
2.216745133958933,24.57545520527772,-0.0917165247532417,2.7469017603232584,-2.955358592462217
2.1992455929388224,24.05900619180467,-0.09248917019529011,2.6894036446562577,-2.816259895026916
2.1816327397010746,23.553295037116584,-0.09290928493889625,2.6338716678498892,-2.687067891085708
2.1639686873746804,23.057958410183183,-0.09302810797051708,2.580198089343809,-2.566797211270576
2.1463065031487925,22.57265270524362,-0.0928896207230401,2.5282830152831877,-2.45458257329754
2.1286914832767287,22.097052619652597,-0.09253164108815495,2.4780336751485996,-2.3496618859103
2.1111622371221146,21.63084986138417,-0.09198673948673214,2.4293637803085235,-2.251362016991368
2.0937516110894046,21.173751971692134,-0.09128300822600525,2.3821929532918724,-2.159086763395937
2.076487477907579,20.725481250381602,-0.09044470947741821,2.336446218397924,-2.0723066473983827
2.059393412369071,20.285773772788808,-0.08949282250687998,2.292053545736738,-1.990550234177528
2.0424892710638405,19.854378488953948,-0.08844550702186324,2.2489494419986467,-1.913396720395439
2.0257916907322255,19.431056396650987,-0.0873184964688194,2.2070725822430424,-1.8404695886282691
2.0093145174644,19.015579780945217,-0.08612543266618698,2.1663654778177093,-1.7714311584863889
1.9930691769996423,18.607731513813164,-0.08487815117336552,2.126774176203892,-1.705977894498139
1.977064994745979,18.207304408104044,-0.08358692518098369,2.0882479891552888,-1.643836354617201
1.9613094727868114,17.814100620766023,-0.0822606743892039,2.0507392459817497,-1.5847596826367942
1.9458085300150667,17.427931100820246,-0.08090714426074029,2.014203069236967,-1.5285245637118685
1.9305667105962545,17.04861507805314,-0.07953306014780764,1.9785971704168128,-1.4749285752808556
1.9155873651764348,16.67597958882423,-0.07814426006082263,1.9438816635716767,-1.4237878764794754
1.9008728085926514,16.309859035760816,-0.07674580924215925,1.9100188949905768,-1.374935188079577
1.886424457289961,15.950094778439997,-0.0753420992072135,1.8769732873338414,-1.3282180224094071
1.8722429491829056,15.596534752449148,-0.0739369334986321,1.8447111967803616,-1.283497128893902
1.858328248305538,15.24903311447267,-0.07253360205260598,1.8132007819194191,-1.2406451260170397
1.8446797362608405,14.907449911280654,-0.07113494578631618,1.7824118832597018,-1.199545294832914
1.8312962921977105,14.571650770697499,-0.06974341277294657,1.7523159123524772,-1.1600905127841274
1.8181763628034155,14.24150661280872,-0.0683611071670013,1.7228857496346675,-1.1221823096443142
1.8053180235947741,13.916893379825098,-0.06698983187132825,1.6940956501929254,-1.0857300299833166
1.792719032616682,13.597691783167072,-0.06563112579279966,1.6659211567336547,-1.0506500887384091
1.780376877507268,13.283787066461187,-0.0642862964115585,1.6383390191177793,-1.0168653083284453
1.7682888167610558,12.975068783255988,-0.06295644828541241,1.6113271198843047,-0.9843043273238642
1.756451915911728,12.671430588368757,-0.06164250802330117,1.584864405244442,-0.95290107202871
1.744863079261725,12.372770041868005,-0.0603452461872549,1.5589308210792723,-0.9225942834781371
1.7335190777046492,12.07898842478113,-0.0590652965188063,1.5335072535194088,-0.8933270933370008
1.722416573116353,11.78999056569285,-0.05780317283168171,1.5085754737256254,-0.8650466430276125
1.7115521397300426,11.505684677468992,-0.05655928386632067,1.4841180865255241,-0.8377037411389323
1.7009313674895696,11.225984138918108,-0.0552383186649745,1.460098108746936,-0.808655533003817
1.6905586906579475,10.950805296815808,-0.05394775324683589,1.4365212818035722,-0.7808764553350888
1.6804283747002224,10.6800654015201,-0.05268715157132149,1.4133723528881017,-0.7542964759373538
1.6705347720558192,10.413684537958819,-0.051456034159239,1.3906367372306534,-0.7288501588952926
1.6608723296277366,10.151585502207972,-0.0502538861363685,1.368300481199298,-0.7044763147441815
1.6514355948432415,9.893693684850657,-0.0490801642267398,1.3463502278250679,-0.6811176808294745
1.6422192204731867,9.639936960673484,-0.047934302826469176,1.3247731845662243,-0.6587206289486741
1.6332179683737928,9.390245584291144,-0.04681571927241255,1.3035570931426097,-0.6372348976770411
1.6244267122943934,9.144552091320477,-0.04572381840547774,1.2826902012854648,-0.6166133470513528
1.6158404398768613,8.902791204753541,-0.04465799651591178,1.2621612362612384,-0.5968117335273772
1.6074542539568863,8.664899746204942,-0.04361764474698275,1.2419593800398063,-0.5777885033408513
1.599263373263644,8.430816551732274,-0.04260215202398664,1.2220742459882845,-0.5595046025918817
1.591263132602478,8.200482391950157,-0.04161090756723833,1.202495856981387,-0.5419233025417282
1.5834489825947438,7.9738398961782515,-0.0406433030404892,1.1832146248281428,-0.5250100387614253
1.5758164890398056,7.750833480381907,-0.039698734379911504,1.1642213309228435,-0.5087322629058362
1.5683613319561025,7.531409278680872,-0.03877660334328056,1.1455071080354238,-0.49305930600644166
1.561079304351145,7.3155150782170075,-0.03787631881416668,1.1270634231631507,-0.4779622522831312
1.5539663107640849,7.103100257186206,-0.03699729789172897,1.108882061371589,-0.463413822570943
1.547018365619035,6.89411572585286,-0.03613896679300579,1.0909551105583615,-0.44938826654338637
1.5402315914225209,6.688513870377378,-0.035300761591354236,1.0732749470782972,-0.4358612629908077
1.533602216834217,6.486248499298483,-0.034482128811845876,1.0558342221732078,-0.42280982748121115
1.5271265746364084,6.287274792522421,-0.03368252590192711,1.0386258491537719,-0.410212226792904
1.520801099624347,6.091549252680746,-0.032901421593457277,1.0216429912849048,-0.3980478995640607
1.5146223264367893,5.899029658727372,-0.032138296170306835,1.0048790503295557,-0.3862973826544767
1.5085868873434802,5.709675021653695,-0.03139264165399957,0.9883276557091507,-0.3749422427600047
1.5026981575558926,5.523650905816094,-0.030593987689029406,0.96982093205505,-0.4071513265381162
1.4969565036766128,5.341132912030773,-0.029844474198125633,0.951421107790423,-0.44076792773784973
1.4913527318643576,5.162100992065216,-0.029142597509826933,0.9331254181628104,-0.4756855678076907
1.485877935722626,4.986535612668273,-0.028486835561029572,0.9149312070681785,-0.5117997048144566
1.480523499467457,4.814417735242756,-0.02787565133548591,0.8968359237267391,-0.5490074980014287
1.4752811004771385,4.645728796113609,-0.027307495931027395,0.8788371197379748,-0.5872075754962884
1.4701427112921133,4.480450687320026,-0.026780811279761268,0.8609324465102581,-0.6262998041610197
1.4651006011289764,4.318565737860542,-0.026294032542731424,0.8431196530632427,-0.6661850605668878
1.4601473369686193,4.160056695320144,-0.025845590197870364,0.8253965842041131,-0.7067650020605114
1.4552757842752615,4.004906707807979,-0.025433911837477074,0.8077611790818382,-0.7479418368615377
1.4504791074002545,3.8530993061331564,-0.025057423688910917,0.7902114701268197,-0.7896180920980674
1.4457507697221894,3.704618386144361,-0.02471455186966902,0.7727455823868276,-0.8316963786422108
1.4410845335729494,3.5594481911565907,-0.024403723385488692,0.7553617332739023,-0.874079151554333
1.4364744599979598,3.4175732943851678,-0.02412336687756004,0.7380582327410585,-0.9166684648799187
1.4319149083979714,3.2789785813031074,-0.02387191312231819,0.7208334839122064,-0.9593657194666816
1.427400536099316,3.143649231833038,-0.023647795284579123,0.7036859841938035,-1.002071402380606
1.4229262978996955,3.0115707022788953,-0.0234494489219543,0.6866143269024491,-1.044684816396935
1.418487445637238,2.8827287068955023,-0.023275311735491147,0.6696172034490399,-1.087103797924555
1.414079527831828,2.757109198985745,-0.023123823058299242,0.6526934061273534,-1.1292244215885023
1.409698389449593,2.6346983514051487,-0.02299342307049125,0.6358418315631407,-1.1709406895440901
1.405340171844017,2.51548253634218,-0.022882551725045157,0.6190614848891669,-1.2121442034261534
1.4010013129304508,2.3994483042290895,-0.022789647365124593,0.6023514847223179,-1.2527238166467944
1.396678547654917,2.2865823616225143,-0.022713145008916337,0.5857110690311106,-1.2925652645437413
1.3923689088231264,2.1768715478749456,-0.022651474273088675,0.5691396019959457,-1.3315507696481992
1.3880697283616392,2.070302810397184,-0.022603056900463,0.5526365819805059,-1.3695586190856914
1.3837786390902185,1.966863178287678,-0.02256630385133431,0.5362016507511314,-1.4064627108465417
1.3794935770927994,1.866539734076614,-0.022539611910971744,0.5198346041021583,-1.4421320653664629
1.3752127847842412,1.7693195833003124,-0.02252135975805976,0.5035354040694373,-1.4764302985464095
1.3709348147813694,1.6751898215842296,-0.022509903430066525,0.4873041929419708,-1.509215052021825
1.3666585346999123,1.584137498869989,-0.022503571111585963,0.4711413093132034,-1.5403373761766754
1.3623831330140737,1.496149580372549,-0.02250065716039988,0.45504730644933833,-1.5696410611060037
1.3581081261328902,1.4112129037970824,-0.02249941527310975,0.43902297329241513,-1.5969619104907447
1.353833366867592,1.329314132280519,-0.022498050677397883,0.42306935846088023,-1.6221269532029827
1.3495590544872522,1.2504397024490537,-0.02249471122091595,0.4071877976598065,-1.6449535874720005
1.3452857465866037,1.174575766899597,-0.022487477206961957,0.3913799449660459,-1.6652486527042298
1.3410143730205804,1.1017081303194836,-0.02247434980380913,0.3756478085088265,-1.6828074246992772
1.3367462521956703,1.031822178354684,-0.022453237826822483,0.3599937911206439,-1.697412531237141
1.3324831100495236,0.9649027982229761,-0.022421942658933564,0.34442073658155625,-1.7088327871159525
1.3282271020987388,0.9009342899469388,-0.022378141033537205,0.3289319821135631,-1.7168219511127762
1.3239808389921877,0.8399002669564126,-0.022319365351211307,0.31353141778670085,-1.7211174126296633
1.3197474160762035,0.7817835446886647,-0.022242981132832757,0.29822355345274015,-1.7214388238573588
1.315530447562304,0.7265660157099774,-0.022146161118740283,0.2830135936913251,-1.717486705427831
1.3113341059936063,0.6742285098158796,-0.022025855393867325,0.2679075209833946,-1.708941071612163
1.3071631678416828,0.6247506375731078,-0.021878756731642416,0.2529121868352548,-1.6954601478912985
1.3030230662454043,0.5781106158986695,-0.02170126007128985,0.23803540973777618,-1.6766792931745884
1.298919952149863,0.5342850746140897,-0.021489414618618443,0.22328607746833973,-1.6522102968628398
1.294860765453291,0.4932488435954774,-0.0212388663979302,0.20867424904337845,-1.6216413057190582
1.2908533182826067,0.45497472135856754,-0.020944788030325484,0.19421124818728724,-1.5845377590653382
1.286906393291969,0.41943322796552707,-0.020601790818492793,0.17990973489738493,-1.5404448898601124
1.283029861075595,0.3865923484462499,-0.020203811459129768,0.16578373372656752,-1.4888926061944288
1.2792348226745829,0.3564172780988244,-0.019743961183104407,0.15184858571999366,-1.429403930839854
1.2755337861816358,0.3288701888883807,-0.019214317690023228,0.1381207743899759,-1.3615086758345187
1.2719408913384884,0.3039100476913603,-0.018605628027318747,0.12461755399971425,-1.284764683594008
1.2684722039706606,0.28149253327578805,-0.01790687058139415,0.11135628195367764,-1.1987897474493021
1.2651461150287882,0.26157011987228884,-0.0171045919646324,0.09835333281998453,-1.1033080727886764
1.261983899931327,0.2440924187219764,-0.016181882745484343,0.08562246876221837,-0.9982153842787531
1.2590105275754393,0.22900688662046065,-0.015116773632281501,0.07317260599057418,-0.8836654168800926
1.2562558625890434,0.216260000416149,-0.013879699908728022,0.06100514352846774,-0.76017535911184
1.253756494474953,0.2057989123649051,-0.01242943813432902,0.049111572800419626,-0.6287354475733012
1.251558595200912,0.19757335895938866,-0.010706343697681768,0.037473199889195306,-0.49088540802760294
1.249722606173184,0.19153705257674147,-0.008619856594191082,0.02606686729658051,-0.348691263826546
1.2483318757318926,0.18764658536077405,-0.006019411208877228,0.014885419187295142,-0.20453846672164694
1.247513883106591,0.1858517708999443,-0.0025910374785083987,0.004007364610911909,-0.06068566843558554
