x,y,v_x,v_y,omega
2.375,32.48,0.0,2.5128205128205128,-2.979591836734694
2.37426128679362,31.908605131015857,-0.006423593098957089,2.4558305218241663,-2.798819748452018
2.372150025757156,31.35006805738435,-0.011935198522469498,2.401013596710665,-2.63430293248199
2.368861816986414,30.80390430764551,-0.01665792122311259,2.348236401018417,-2.484135130867019
2.364566015995912,30.26965879369751,-0.02069686999864269,2.2973767637467803,-2.3466750031077375
2.359409540241896,29.746903383882156,-0.024142049601497538,2.2483224520389062,-2.220504211389618
2.3535200691180562,29.235234738552133,-0.027070742779717216,2.200970116048244,-2.1043929026607087
2.347008743427611,28.734272371952837,-0.029549480615460675,2.1552243761195653,-1.9972711495496387
2.3399724500896473,28.243656910413407,-0.031635678845091726,2.1109970285711293,-1.8982052175843642
2.332495761804651,27.763048521754413,-0.033379001894003724,2.0682063510722903,-1.8063777611515652
2.3246525886309293,27.292125494772712,-0.034822503964447506,2.0267764922468468,-1.721071232712928
2.3165075881911212,26.830582950873055,-0.03600358681649431,1.9866369329675708,-1.6416539318317926
2.3081173729889035,26.37813167254239,-0.036954806246268505,1.947722009038197,-1.5675682320613213
2.2995315466504738,25.934497035529063,-0.03770455321833679,1.90997048672987,-1.4983206117810628
2.2907935954890113,25.499418033388658,-0.038277630794378806,1.873325184056256,-1.4334731849591833
2.281941657370674,25.07264638456349,-0.038695744147686055,1.8377326318147862,-1.3726364835870446
2.273009186240248,24.653945713429458,-0.03897791785601842,1.8031427693507225,-1.3154632882490556
2.264025527687847,24.243090797816564,-0.039140852164861656,1.7695086707613725,-1.2616433393078421
2.2550164184819983,23.839866876422278,-0.039199227885995655,1.736786297884603,-1.2108987903203678
2.2460044209612575,23.44406901031795,-0.039165967946532806,1.7049342769356437,-1.1629802889661192
2.2370093014879617,23.055501493420017,-0.0390524622560386,1.6739136960898675,-1.117663590065897
2.2280483607612145,22.673977307377275,-0.038868761454807915,1.64368792167309,-1.074746621064006
2.21913672261114,22.29931761682817,-0.03862374419801121,1.614222430927814,-1.0340469333197084
2.21028758691205,21.93135130141932,-0.03832526188103094,1.5854846595839587,-0.9953994832460572
2.2015124514252458,21.56991452135849,-0.037980264091182124,1.5574438626841067,-0.9586546961754919
2.1928213066857785,21.21485031361,-0.03759490755635907,1.5300709873027434,-0.9236767731653891
2.184222807459521,20.866008216134595,-0.03717465093283565,1.5033385559616466,-0.8903422070585697
2.175724423799287,20.523243917835366,-0.036724337417025146,1.4772205596838333,-0.8585384792054263
2.167348066526239,20.186420608411773,-0.0361135519138298,1.451677783130023,-0.8245955241930977
2.159113154582373,19.855406885603212,-0.03549437803282738,1.4267024152052967,-0.7923793733803552
2.1510213189885,19.530074802450343,-0.03486940973998238,1.4022722209065983,-0.7617799731096332
2.1430736321090684,19.210301396553593,-0.034240910950728405,1.3783660912390705,-0.7326956098976735
2.135270679097707,18.89596843930267,-0.03361085436545504,1.3549639718124438,-0.7050321792439322
2.127612620949687,18.58696220090821,-0.032980955617330825,1.3320467968350278,-0.6787025270034154
2.120099250170908,18.283173230048668,-0.03235270332857018,1.3095964280305674,-0.6536258553010592
2.112730039945182,17.9844961470493,-0.031727385590789685,1.2875955980508842,-0.6297271859407518
2.105504187570881,17.690829449603505,-0.031106113316176628,1.2660278579994992,-0.6069368751087206
2.098420652842109,17.402075330130877,-0.030489840847053657,1.2448775287189948,-0.58519017390682
2.09147819196623,17.118139503942437,-0.029879384160594658,1.2241296555283068,-0.5644268298919183
2.084675387537167,16.8389310474522,-0.02927543696169067,1.2037699661259573,-0.5445907253564009
2.0780106750208605,16.564362245736497,-0.028678584919237145,1.1837848314018666,-0.525629548573086
2.0714823661542665,16.294348448799,-0.028089318268535276,1.164161228924206,-0.5074944946552027
2.0650886696113373,16.028807935950468,-0.027508042974325887,1.1448867088891055,-0.4901399930567401
2.058827709247464,15.7676617877591,-0.026935090624574064,1.125949362340178,-0.4735234590674524
2.0526975401971823,15.510833765069542,-0.026370727203961015,1.1073377914820457,-0.45760506694612885
2.0466961630677956,15.25825019462744,-0.025815160877661898,1.089041081927538,-0.44234754259056996
2.0408215364433637,15.00983986088157,-0.02526854890000685,1.0710487767321963,-0.4277159738675029
2.035071587888762,14.765533903567903,-0.02473100374870697,1.0533508520823134,-0.4136776369242444
2.029444223621743,14.525265720709314,-0.02420259857319517,1.0359376945141214,-0.40020183697958944
2.023937337001796,14.288970876691707,-0.023683372035041877,1.0188000795520336,-0.3872597622470195
2.0185488159677134,14.056587015101957,-0.023173332609150766,1.0019291516631716,-0.3748243497813689
2.0132765495409317,13.828053776035798,-0.02267246240634214,0.985316405433865,-0.36287016216269824
2.008122488768338,13.603421485411744,-0.02214545735534172,0.9680078608622475,-0.37036233549814596
2.0030867334385114,13.382755480652701,-0.021643719425762833,0.9508269631294262,-0.38020592203366627
1.9981634161762996,13.166026842189954,-0.021167735028251398,0.9337698930683723,-0.39227209438829064
1.9933465750034847,12.95320751079025,-0.020717840387531345,0.916832988668182,-0.4064361609336121
1.9886301863988174,12.744270252263515,-0.020294234435661297,0.9000127376512652,-0.4225772663191201
1.9840081955110043,12.539188623814084,-0.019896990675757033,0.8833057706046459,-0.44057810402608993
1.9794745437525112,12.337936941911472,-0.019526068093747958,0.8667088546354591,-0.4603246397304712
1.9750231939849596,12.140490251563126,-0.019181321189309423,0.8502188875240646,-0.48170584430740726
1.970648153491204,11.946824296877452,-0.018862509191174062,0.8338328923513695,-0.5046134353539193
1.9663434949148189,11.756915492810343,-0.018569304516522566,0.8175480125800035,-0.5289416261422004
1.9621033753345791,11.570740897992867,-0.01830130052904113,0.8013615075719549,-0.5545868809440708
1.9579220536295108,11.388278188541353,-0.018058018645465666,0.7852707485281748,-0.581447675687577
1.9537939062791454,11.20950563275418,-0.017838914835971945,0.7692732148385334,-0.6094242629194878
1.9497134417336572,11.03440206660191,-0.01764338555957845,0.7533664908333938,-0.6384184400525141
1.9456753134795521,10.862946869919007,-0.01747077317176948,0.7375482629309892,-0.6683333198733071
1.9416743319184533,10.695119943206496,-0.017320370837785943,0.72181631717779,-0.6990731022764521
1.9377054751692426,10.5309016849551,-0.017191426981437462,0.7061685371821658,-0.7305428461704543
1.933763898897357,10.370272969397984,-0.01708314929582959,0.690602902444922,-0.7626482404737033
1.9298449452693467,10.213215124601032,-0.016994708339042423,0.6751174870937848,-0.7952953730810889
1.9259441511258881,10.059709910796492,-0.01692524073450917,0.6597104590326558,-0.8283904966347166
1.9220572554622715,9.909739498862876,-0.016873851992592837,0.6443800795205372,-0.8618397898743164
1.9181802063019628,9.76328644885007,-0.016839618966612128,0.6291247031995012,-0.8955491132736202
1.9143091670461743,9.620333688443587,-0.01682159195328842,0.6139427785960175,-0.9294237575872614
1.9104405223804588,9.480864491255616,-0.016818796444236936,0.5988328491254666,-0.9633681838375683
1.90657088381823,9.344862454823065,-0.016830234531666533,0.5837935546358376,-0.9972857531608209
1.9026970949607867,9.212311478183583,-0.016854885967840662,0.5688236335335763,-1.0310784448068673
1.8988162365539705,9.083195738889842,-0.016891708874039187,0.5539219255424369,-1.0646465604431286
1.894925631423026,8.957499669309616,-0.016939640090694923,0.539087375155166,-1.0978884127526254
1.891022849369656,8.835207932044241,-0.016997595156001754,0.5243190358480915,-1.1306999961344186
1.887105712118729,8.716305394280564,-0.01706446789553845,0.5096160751404109,-1.1629746371126362
1.8831722984067132,8.600777100871174,-0.01713912960025104,0.4949777805934202,-1.1946026218361832
1.8792209493097776,8.488608245913987,-0.017220427764404942,0.48040356686035945,-1.2254707978049977
1.8752502739167634,8.379784142574788,-0.017307184348762456,0.4658929839152967,-1.2554621466908518
1.8712591554610327,8.274290190864395,-0.017398193527155433,0.45144572660985754,-1.284455324833121
1.8672467580357415,8.172111843045311,-0.01749221886668367,0.437061645730016,-1.312324167686638
1.8632125340295467,8.073234566299881,-0.017587989882833957,0.42274076075198447,-1.3389371541867894
1.8591562324344388,7.977643802242813,-0.017684197900714297,0.4084832745268753,-1.3641568266880941
1.8550779081945115,7.8853249228039815,-0.017779491142131072,0.39428959015862747,-1.387839161845055
1.850977932784473,7.796263181942155,-0.01787246894515839,0.38016033037898456,-1.4098328875663648
1.846857006229877,7.710443662575344,-0.017961675007852205,0.3660963597671908,-1.4299787410282094
1.8427161708079718,7.627851218027928,-0.018045589530454015,0.3520988102103456,-1.4481086627428703
1.8385568266992862,7.548470407197726,-0.018122620110290408,0.33816911005228256,-1.464044921938839
1.834380749896315,7.472285422536942,-0.01819109121989436,0.32430901743278523,-1.4775991691559163
1.8301901127179026,7.39928000981941,-0.018249232070647662,0.3105206583718504,-1.4885714131950853
1.8259875073273275,7.329437378533626,-0.018295162630005968,0.29680657020019074,-1.496748921683506
1.821775972710316,7.2627401015992525,-0.018326877517921187,0.2831697509682789,-1.5019050479514455
1.8175590256385399,7.19917000295915,-0.018342227454043472,0.2696137154674054,-1.5037979923018778
1.8133406962278424,7.138708031459313,-0.018338897856370447,0.25614255844420636,-1.502169514009598
1.809125568803346,7.081334119311677,-0.018314384095771165,0.242761025448288,-1.496743622870549
1.8049188289131384,7.027027023366788,-0.018265962775600747,0.2294745914638011,-1.487225297822343
1.8007263174998926,6.975764147449006,-0.018190658209145717,0.21628954695170122,-1.4732993079917622
1.7965545934639282,6.927521344195611,-0.01808520297315244,0.20321309003434113,-1.4546292527711835
1.7924110061613647,6.882272695302259,-0.017945990962182225,0.19025342208175577,-1.4308569984303334
1.7883037798254877,6.839990269978873,-0.017769020654140353,0.17741984159987273,-1.4016027783921075
1.7842421125578656,6.800643863018788,-0.01754982515126783,0.16472282761826715,-1.3664663556058112
1.7802362935404017,6.764200716564105,-0.017283383696243784,0.15217409807463972,-1.3250298365500164
1.7762978436910764,6.7306252339737895,-0.016964006297890803,0.1397866201019988,-1.276863001505798
1.7724396874935189,6.699878700960863,-0.016585178028695288,0.1275745365321403,-1.2215324045522844
1.7686763677893733,6.6719190394086745,-0.016139341137787942,0.11555295522602678,-1.1586160288809513
1.7650243219544608,6.646700634222061,-0.015617579165800232,0.10373752465756998,-1.087725969761684
1.7615022487631475,6.624174294209315,-0.015009144236924845,0.09214369284457063,-1.0085424034715929
1.7581316130948617,6.604287433941572,-0.01430073113947321,0.08078552687493754,-0.9208627517941028
1.7549373647796633,6.586984590249795,-0.0134753411665978,0.06967398348834447,-0.8246698253735055
1.7519489952586713,6.572208399885792,-0.012510480755072823,0.058814628372554606,-0.7202203772180258
1.7492021335095234,6.559901128513843,-0.011375273585345597,0.04820512268787149,-0.6081482256957722
1.7467410181928162,6.550006683853244,-0.010025729168628603,0.037833526534726214,-0.48956026101123334
1.7446224626845446,6.542472640759776,-0.008396492642428486,0.02767989166935176,-0.3660777518145754
1.7429227066775175,6.537250914881156,-0.006383994375198737,0.01772642031865294,-0.23974811325860826
1.741751651069752,6.5342934324574315,-0.003799097866241208,0.00799081814852497,-0.11274868171687116
