x,y,v_x,v_y,omega
2.375,32.48,0.0,3.4871794871794872,-6.653061224489796
2.3726661940575147,31.68968433830181,-0.020293964717263167,3.385130614543876,-6.108200886941043
2.366097705730381,30.922206235118882,-0.036823325083898475,3.2885920218294147,-5.631014999151136
2.3560826661808196,30.176353366865595,-0.05026397534707192,3.1970850934165527,-5.210738184168519
2.343268900799219,29.451016660016375,-0.06116007144945631,3.1101906183158006,-4.8386210786086
2.3281909711714026,28.745177783414302,-0.06995236009677176,3.027538743441345,-4.507500792873566
2.3112914758841923,28.05789870003305,-0.0769997728354925,2.948801112047822,-4.211473724868536
2.2929379557074094,27.388312841463787,-0.08259605478870607,2.8736846146414106,-3.9456437302507172
2.2734364006767938,26.73561758042999,-0.08698268460794956,2.801926350869859,-3.7059264753228316
2.2530421077931475,26.09906775575626,-0.09035899264114874,2.733289515858236,-3.4888961481594563
2.231968457380528,25.47797006108455,-0.09289014138163375,2.66756000302619,-3.2916644267867152
2.2103940431681637,24.87167815018425,-0.09471346046500802,2.6045435700199273,-3.111784235520833
2.188468492125339,24.279588342544145,-0.09594350512477348,2.5440634529374866,-2.9471727077148806
2.166317235551927,23.701135836166216,-0.09667611725272261,2.485958341653205,-2.796049143099308
2.1440454363247174,23.13579135222529,-0.0969917021143173,2.430080649137458,-2.6568847536209392
2.1217412338537525,22.583058149989267,-0.09695788458972689,2.3762950224801287,-2.5283617375689253
2.0994784348603233,22.04246936114896,-0.09663167187487356,2.324477054392112,-2.409339780102952
2.077318752110531,21.513585601225877,-0.09606122160157939,2.2745121623303137,-2.2988284997912816
2.055313672933,20.9959928225459,-0.0952872929856469,2.226294608799925,-2.195964681454578
2.03350602338621,20.48930037877879,-0.09434444220383156,2.179726641348869,-2.09999338137496
2.0119312813240926,19.99313927553882,-0.09326201051023114,2.1347177346508706,-2.010252180545059
1.9906186815865565,19.507160585237777,-0.09206494372921384,2.0911839201408124,-1.9261580088496986
1.9695921485433303,19.031034007443658,-0.09077447403797148,2.0490471911123773,-1.8471960780497152
1.9488710848079844,18.564446558552785,-0.08940868887807933,2.008234973156092,-1.772910551734942
1.928471039777826,18.10710137672744,-0.08798300703634271,1.968679651412134,-1.7028966517026336
1.9084042774841659,17.658716629862134,-0.08651057812591842,1.9303181474166216,-1.6367939567813063
1.8886802598535553,17.219024515878974,-0.0850026186620006,1.893091539393444,-1.5742806952131605
1.8693060587254284,16.787770345964475,-0.08346869549562244,1.8569447207326297,-1.5150688678199267
1.8502867077206124,16.364711702484477,-0.08191696541582254,1.8218260921369092,-1.4589000682212865
1.8316255032099766,15.949617664281782,-0.08035437815492182,1.7876872835386968,-1.4055418898319478
1.8133242621151815,15.542268092897412,-0.0787868487563416,1.7544829024123447,-1.3547848283832153
1.795383543021921,15.142452973981882,-0.07721940422853332,1.7221703055488005,-1.3064396041957866
1.7778028360507268,14.749971808794161,-0.07565630856445939,1.690709391735745,-1.2603348410772919
1.760580726071474,14.36463305123722,-0.0741011695159984,1.6600624131072017,-1.2163150490862553
1.743715033133251,13.986253586361709,-0.07255702994681174,1.6301938032015908,-1.17423886693328
1.7272029333853522,13.6146582466931,-0.0710264461218739,1.6010700200037065,-1.1339775268297287
1.7110410632669046,13.249679363110904,-0.06951155490810457,1.572659402450186,-1.0954135104227067
1.695225609325007,12.891156347337837,-0.06801413154317884,1.5449320390547367,-1.0584393692959664
1.6797523856703993,12.538935303388318,-0.06653563936645404,1.5178596474628114,-1.0229566875488776
1.6646169007842277,12.192868665584005,-0.06507727268721152,1.4914154638790424,-0.9888751673345336
1.6498402154570129,11.85281825310102,-0.06341564320161479,1.4655446446686575,-0.9496143583899741
1.635440951698444,11.518651310544158,-0.06179534600332978,1.4402548558257973,-0.912357962908481
1.6214096404863416,11.190236842891768,-0.06021605584104115,1.4155231237602153,-0.8769777300397174
1.607736902371586,10.867449003795581,-0.058677319069876346,1.3913276509892245,-0.8433551732010391
1.5944134743765082,10.550166833749767,-0.05717857653949446,1.3676477407135175,-0.81138070968505
1.5814302320057614,10.23827401494422,-0.05571918320613205,1.3444637271607998,-0.7809528861131592
1.5687782070704397,9.931658641534536,-0.05429842492709875,1.321756911184295,-0.7519776801920454
1.5564486019283335,9.630213004172994,-0.05291553283034667,1.2995095006551889,-0.7243678703970055
1.5444328006593335,9.33383338774572,-0.051569695595739935,1.277704555234156,-0.6980424662178024
1.5327223776230716,9.042419881351769,-0.05026006993697226,1.2563259351480178,-0.6729261924811881
1.5213091037840907,8.755876199641843,-0.048985789532426056,1.2353582536339522,-0.6489490220286667
1.5101849511367282,8.47410951470814,-0.047745972618553,1.2147868327460727,-0.6260457516943191
1.499342095516182,8.197030297783808,-0.04653972842967448,1.1945976622481063,-0.6041556171092363
1.4887729180428604,7.9245521700709745,-0.04536616264268873,1.1747773613417363,-0.583221942367893
1.4784700054131614,7.656591762071297,-0.04422438196338771,1.155313143003295,-0.5631918210375297
1.4684261492205468,7.393068580842861,-0.04311349797239103,1.1361927807222303,-0.5440158253827243
1.4586343444654681,7.133904884652669,-0.04203263033263961,1.1174045774533707,-0.5256477410210783
1.4490877873908588,6.87902556453518,-0.04098090944657283,1.0989373366117514,-0.5080443245285027
1.4397798727609934,6.62835803230514,-0.03995747863921319,1.0807803349538199,-0.4911650817793073
1.4307041906851747,6.381832114607175,-0.038961495933124965,1.062923297202418,-0.4749720650417625
1.4218545230735435,6.1393799526161,-0.0379921354723626,1.0453563722851908,-0.45942968705797155
1.4132248398000606,5.900935907030579,-0.037048588644880885,1.0280701110671464,-0.44450455052118937
1.404809294637078,5.666436468029026,-0.03613006494627188,1.011055445468111,-0.4301652915271051
1.3966022210167293,5.435820169880731,-0.035235792621977416,0.9943036688649014,-0.41638243572064615
1.3886057674026206,5.209130408485013,-0.03429858663114164,0.9769116476196162,-0.4212366455632463
1.3808203270867265,4.986425800583806,-0.03340089437663107,0.959650160216967,-0.42857550464409855
1.3732368237141008,4.767676778563555,-0.03254261321141962,0.942515248654795,-0.4382634794893774
1.3658462189731218,4.552854666034879,-0.031723514971007415,0.9255031211597894,-0.45016961344835726
1.3586395401083022,4.341931640533296,-0.03094325776655282,0.9086101440713615,-0.4641671986840175
1.3516079048333034,4.134880698016616,-0.03020139679865513,0.8918328343345577,-0.4801334625618914
1.3447425438607234,3.9316756190229434,-0.029497394267257705,0.8751678525669399,-0.4979492670353995
1.338034821248599,3.7322909363609114,-0.02883062844686798,0.8586119966681361,-0.5174988196969188
1.3314762527483024,3.536701904210478,-0.028200401990494613,0.8421621959443335,-0.5386693952249498
1.325058522324557,3.344884468518689,-0.02760594952033465,0.8258155057233805,-0.561351066009462
1.3187734970055185,3.1568152385799664,-0.027046444558260326,0.8095691024394336,-0.5854364407801966
1.3126132402091994,2.972471459694969,-0.02652100584451474,0.7934202791692417,-0.6108204100966904
1.306570023681881,2.791830986805902,-0.026028703088690076,0.7773664416052621,-0.6373998975842384
1.3006363381744872,2.6148722590091005,-0.025568562192995234,0.7614051044538681,-0.6650736158170361
1.2948049029741342,2.4415742748481577,-0.025139569983988228,0.74553388824998,-0.6937418257583464
1.2890686744001638,2.271916568292415,-0.02474067848531994,0.7297505165825688,-0.7233060986676311
1.2834208533668854,2.105879185306623,-0.024370808760578754,0.7140528137286775,-0.7536690793759848
1.2778548921089377,1.943442660917679,-0.02402885435200998,0.6984387026969304,-0.7847342498136513
1.2723645001596233,1.784587996683758,-0.023713684337679553,0.6829062036850002,-0.8164056916464905
1.2669436496677393,1.6292966384696719,-0.023424146026528602,0.6674534329592181,-0.8485878468415445
1.2615865801343038,1.4775504544299807,-0.023159067307693394,0.6520786021685242,-0.8811852749347292
1.2562878026471667,1.329331713098032,-0.022917258667412954,0.6367800181093,-0.9141024057154805
1.2510421036887793,1.1846230614747846,-0.02269751488378176,0.621556082962402,-0.9472432859731188
1.2458445485903977,1.0434075030057741,-0.022498616406493338,0.6064052950289911,-0.9805113188668654
1.2406904847047155,0.9056683753277142,-0.022319330425525998,0.5913262499976295,-1.013808994384878
1.2355755443683984,0.7713893276580919,-0.022158411629405524,0.5763176427817069,-1.0470376092462832
1.2304956477262439,0.6405542976912209,-0.02201460265019889,0.5613782699736799,-1.0800969744728537
1.2254470054897704,0.5131474878525815,-0.021886634188701987,0.5465070329710131,-1.11288510871257
1.2204261217049965,0.389153340749516,-0.021773224809331693,0.531702941838262,-1.1452979152346938
1.2154297966070777,0.26855651364034117,-0.021673080389961814,0.5169651199806211,-1.177228840334227
1.2104551296433939,0.15134185172514947,-0.021584893207290175,0.5022928097166997,-1.2085685106820132
1.2054995227517353,0.037494360039687535,-0.02150734063321893,0.4876853788525208,-1.2392043469350704
1.2005606839865246,-0.07300082629148363,-0.021439083412091445,0.47314232837504194,-1.2690201506805656
1.1956366315936622,-0.18015847371586347,-0.021378763482364678,0.45866330140217537,-1.29789566152794
1.1907256986437709,-0.28399328413509295,-0.021325001299299547,0.4442480935476689,-1.3257060808906538
1.1858265383445004,-0.38451993135469564,-0.021276392607400565,0.42989666488364625,-1.3523215587181827
1.1809381301653636,-0.4817531004931297,-0.021231504602484418,0.41560915371144924,-1.3776066391605735
1.1760597869235563,-0.5757075307939914,-0.021188871413231926,0.4013858923829993,-1.4014196608882592
1.1711911629966578,-0.6663980623448396,-0.02114698882066732,0.38722742545046196,-1.4236121075736115
1.166332263848372,-0.7538396872747342,-0.021104308120948576,0.373134530461658,-1.444027903904868
1.1614834570769554,-0.8380476060804867,-0.02105922902180389,0.35910824176227046,-1.4625026525023987
1.1566454852232197,-0.9190372898201247,-0.021010091445463647,0.3451498777128228,-1.478862807322269
1.1518194806065951,-0.9968245490114853,-0.020955166090402426,0.33126107177729847,-1.4929247796804213
1.1470069824945266,-1.071425610184562,-0.020892643579759333,0.3174438079885604,-1.5044939740840402
1.1422099569534643,-1.142857201157227,-0.020820621994694987,0.30370046133894824,-1.5133637528644035
1.1374308197803293,-1.2111366462338466,-0.02073709255430394,0.29003384367514057,-1.5193143315307733
1.132672462973508,-1.2762819726599801,-0.020639923157185137,0.27644725568253364,-1.5221116113358224
1.1279382852749522,-1.3383120297967608,-0.020526839438953674,0.262944545506873,-1.521505962528821
1.1232322274039184,-1.3972466225917657,-0.020395402917861873,0.24953017444970077,-1.5172309822942975
1.1185588127144632,-1.4531066609969017,-0.02024298568609589,0.23620928994279256,-1.5090022670664474
1.1139231941525622,-1.5059143269824276,-0.020066740939129555,0.22298780558349904,-1.4965162621594423
1.1093312085796858,-1.5556932606626859,-0.019863568390230697,0.2098724872883162,-1.4794492859400277
1.1047894397918254,-1.6024687666953312,-0.019630073243338243,0.19687104343034942,-1.4574568761493327
1.1003052919351204,-1.6462680414055555,-0.01936251681496712,0.1839922149194411,-1.4301736797646745
1.0958870755646517,-1.687120419813823,-0.019056755971716775,0.17124585819591595,-1.3972142154219747
1.0915441094155969,-1.7250576396005215,-0.018708167063541777,0.1586430095144775,-1.3581749935150966
1.0872868422273227,-1.7601141155710565,-0.018311547617102655,0.14619591196841028,-1.3126387033848042
1.0831270009648757,-1.792327212746855,-0.017860985099827673,0.13391797651682066,-1.2601814943658138
1.0790777749875489,-1.8217374979349898,-0.017349675572579173,0.12182363381476576,-1.2003848147916163
1.0751540508917907,-1.8483889374632625,-0.016769664390534206,0.10992801425715629,-1.132853848090721
1.0713727211616166,-1.87232899168594,-0.016111463697935934,0.09824637028788953,-1.057245275679572
1.0677531034096255,-1.8936085345913511,-0.015363473275900989,0.08679313323742058,-0.9733077674268464
1.064317529063603,-1.9122815016401944,-0.014511086254728753,0.07558049327426888,-0.880938849008547
1.0610921958146096,-1.9284041495647202,-0.013535289823475762,0.06461644519988086,-0.7802606651415822
1.0581084350941667,-1.9420338209728314,-0.012410455571680036,0.053902436609760004,-0.6717127433789175
1.0554046401077737,-1.9532271928112337,-0.01110080517956399,0.04343123155023327,-0.5561491699811038
1.053029274518213,-1.9620382399760672,-0.009554547773137793,0.033186569883080885,-0.43490792765574726
1.0510457939895508,-1.9685167144118765,-0.0076931089978381755,0.023147990428288787,-0.30979425860795673
1.049541666168858,-1.9727091939833272,-0.005386263356013534,0.013308353671263621,-0.1829035449887937
1.048650286790405,-1.9746689646469804,-0.002364861674010921,0.003733130360500757,-0.056231968374752944
