x,y,v_x,v_y,omega
2.375,32.48,0.0,2.358974358974359,-7.63265306122449
2.374001391325947,32.059390227171356,-0.011095651933922502,2.3144675613438648,-7.276598842991402
2.3711168450415774,31.646670174339878,-0.020954862336852988,2.2713108034503473,-6.94451710994157
2.3665572890174746,31.241603599154285,-0.029706871264287907,2.229428920834013,-6.6342303982688415
2.3605117407455527,30.843967220312983,-0.03746588731262078,2.1887530662915693,-6.343803284760686
2.353149832146234,30.453549647249133,-0.04433309712425557,2.1492199677511845,-6.071510677042774
2.3446240006670016,30.07015043345229,-0.05039836375610234,2.1107712966581746,-5.815810920053435
2.335071397669991,29.693579235277568,-0.05574166954401637,2.073353127505457,-5.575322881017274
2.324615556113488,29.32365506123568,-0.060434347750462046,2.0369154729599592,-5.348806339945091
2.3133678523484296,28.960205599286795,-0.06454013852796567,2.0014118820276487,-5.135145141321413
2.3014287910683726,28.603066611708993,-0.06811609791710745,1.9667990910590223,-4.933332663855156
2.288889137763221,28.252081388779516,-0.0712133832512448,1.933036719268518,-4.742459245392338
2.275830919200499,27.907100253871242,-0.07387793411233834,1.900087001934514,-4.561701264114608
2.262328309315087,27.56798011368915,-0.07615106461445861,1.8679145556443053,-4.390311628576727
2.248448415291676,27.234584048298892,-0.07806998009010777,1.8364861709140943,-4.227611470700929
2.2342519764669757,26.906780936369948,-0.07966822907322971,1.8057706282963941,-4.072982869632347
2.2197939868773378,26.584445111698102,-0.08097609970052591,1.7757385347241188,-3.9258624619727196
2.205124250765908,26.267456047610402,-0.08202096820424534,1.7463621773614295,-3.7857358165931734
2.190287879089397,25.95569806630855,-0.08282760597921116,1.717615392659156,-3.6521324709514307
2.1753257339861647,25.649060070589336,-0.08341845072337006,1.6894734486654297,-3.524621541366071
2.160274827250947,25.347435295705353,-0.08381384633460488,1.6619129389343819,-3.402807832632153
2.145168678079943,25.050721079405573,-0.08403225556543965,1.6349116866187503,-3.286328383176575
2.130037634681057,24.758818648431728,-0.08409044886663018,1.6084486575350836,-3.1748493910297846
2.1149091637697084,24.47163291994915,-0.08400367237057493,1.5825038811602026,-3.0680634735395076
2.0998081114759515,24.189072316565287,-0.08378579756005317,1.557058378660536,-2.9656872202193867
2.084756938761374,23.91104859373994,-0.08344945482414136,1.5320940971766095,-2.867459003611534
2.069775934074224,23.6374766785222,-0.08300615281085953,1.5075938496871724,-2.7731370177103924
2.0548834056499463,23.368274518662567,-0.08246638523667156,1.4835412598643216,-2.6824975174797365
2.040098496550987,23.103371348056108,-0.08181038252954467,1.4598273024296458,-2.5923902431163532
2.0254369473397102,22.842698765598175,-0.08109571981797409,1.4365347248807403,-2.506094299921728
2.0109087200483344,22.586182220646506,-0.08032902786397914,1.413649107915566,-2.4234052819028924
1.9965226374064617,22.333749700515984,-0.07951633482349309,1.3911566713124859,-2.344131840210956
1.9822864863673728,22.085331618757095,-0.07866312116638371,1.3690442371195906,-2.268094712261291
1.9682071122254399,21.840860709825556,-0.07777436929953864,1.3472991954530786,-2.1951258331262746
1.9542905042286511,21.600271929693424,-0.07685460844255937,1.3259094726817513,-2.1250675213626997
1.9405418734968762,21.363502361990328,-0.07590795524382779,1.3048635017970807,-2.0577717322668847
1.9269657239735878,21.13049112929766,-0.07493815057048787,1.2841501947881269,-1.9930993722841652
1.9135659170650046,20.9011793092495,-0.07394859285821358,1.263758916858144,-1.9309196689483032
1.900345730554947,20.675509855122087,-0.07294236836465004,1.243679462335312,-1.8711095913011855
1.8873079123251242,20.453427520618956,-0.07192227863337937,1.2239020321439162,-1.8135533162532316
1.8744547293582914,20.234878788581682,-0.07089086544254194,1.2044172127146726,-1.758141736798218
1.8617880124549662,20.019811803377205,-0.06985043348329344,1.1852159562239573,-1.7047720083996507
1.8493091970525835,19.808176306731504,-0.06880307098762556,1.166289562061596,-1.6533471302253975
1.8370193604984886,19.599923576796744,-0.06775066850231903,1.1476296594357434,-1.6037755582282296
1.8249192560945777,19.395006370254706,-0.06669493598557769,1.1292281910313522,-1.5559708473567733
1.8130093442012343,19.19337886727375,-0.0656374183849066,1.1110773976459056,-1.5098513204380777
1.8012898206611023,18.994996619149692,-0.0645795098387797,1.0931698037325452,-1.4653397615030412
1.7897606427788797,18.79981649847297,-0.06352246663036074,1.0754982037865601,-1.422363131532324
1.778421553071356,18.6077966516757,-0.06246741900879321,1.0580556495164763,-1.380852304785762
1.767272100982168,18.4188964538221,-0.06141538198218479,1.0408354377457558,-1.3407418240450333
1.7563116627379114,18.233076465515392,-0.06036726517622162,1.023831098995444,-1.3019696732494355
1.745539459506161,18.05029839180262,-0.05932388184322549,1.00703638670203,-1.2644770661399447
1.7349545740014247,17.870525042966886,-0.058285957098289674,0.9904452670283567,-1.2282082496488202
1.7245639200834253,17.693960863935914,-0.057165753101705706,0.9713789444269001,-1.2453938721134354
1.7143710757899542,17.52081839462229,-0.05608807238130769,0.9524262701689494,-1.2642213088373124
1.7043684908777896,17.351077440170116,-0.0550517599760745,0.9335843348551495,-1.2845668853539098
1.6945488272373808,17.184718317991383,-0.054055613806246204,0.9148503560196668,-1.3063091084436744
1.6849049669332028,17.021721835234146,-0.05309838957351048,0.8962216746163107,-1.3293283955017865
1.6754300194028198,16.86206926684202,-0.05217880520852323,0.8776957519628559,-1.3535068075550862
1.6661173278936117,16.705742334122736,-0.05129554489378912,0.8592701671403149,-1.3787277847927522
1.6569604752113394,16.55272318374385,-0.05044726268701111,0.8409426148472876,-1.4048758834707284
1.6479532888504598,16.402994367073422,-0.049632585767208845,0.8227109037130258,-1.4318365130371762
1.6390898455723246,16.25653881978236,-0.04885011732318097,0.8045729550765484,-1.459495672305191
1.6303644754941282,16.113339841623596,-0.04809843910122329,0.7865268022430663,-1.4877396834694927
1.621771765748643,15.973381076300733,-0.04737611362639082,0.7685705902331844,-1.5164549227254829
1.6133065637724593,15.836646491335706,-0.04668168610898255,0.7507025760448939,-1.5455275462017313
1.604963980278573,15.703120357840866,-0.04601368604531091,0.7329211294533234,-1.5748432098602525
1.5967393919677701,15.57278723009599,-0.04537062851916577,0.7152247343786494,-1.604286781952637
1.5886284440323548,15.445631924824642,-0.044751015207671156,0.6976119908585485,-1.6337420465439032
1.5806270525053456,15.321639500057234,-0.044153335092431086,0.6800816176682143,-1.663091396529737
1.5727314065083722,15.200795233459644,-0.04357606487393969,0.6626324556383323,-1.6922155144765345
1.5649379704521436,15.083084599996525,-0.043017669084156135,0.6452634717296378,-1.7209930395076385
1.5572434862445703,14.968493248786988,-0.04247659988887995,0.6279737639318788,-1.7493002183439301
1.5496449755634452,14.85700697899724,-0.041951296568066294,0.6107625670652997,-1.7770105384836876
1.542139742253059,14.748611714599676,-0.041440184658447524,0.5936292595742918,-1.8039943413772246
1.5347253749073135,14.643293477810573,-0.0409416747387245,0.5765733714157499,-1.8301184133193242
1.5273997497058494,14.541038360998837,-0.04045416083309771,0.5595945931590868,-1.8552455516514168
1.520161033574515,14.441832496835737,-0.039976018403952984,0.5426927864308959,-1.8792341037425306
1.5130076877472478,14.345662026430002,-0.03950560189901458,0.5258679958550345,-1.9019374761129844
1.5059384718132454,14.252513065163786,-0.03904124181212454,0.5091204626584622,-1.9232036109914572
1.4989524483412655,14.16237166591242,-0.038581241209871796,0.49245064013449286,-1.9428744275741157
1.49204898818222,14.075223779294294,-0.03812387166841095,0.47585921117802005,-1.9607852253115285
1.485227776562045,13.991055210556446,-0.03766736855575996,0.4593471081313879,-1.9767640467238852
1.4784888200894346,13.909851572656244,-0.03720992558435567,0.44291553520417876,-1.9906309975915972
1.4718324548176778,13.831598235049999,-0.036749688546273224,0.42656599375408855,-2.0021975229620774
1.4652593555169289,13.75628026764577,-0.03628474812871569,0.41030031073731527,-2.0112656383592737
1.458770546333303,13.68388237932069,-0.0358131316893486,0.39412067065247763,-2.0176271170264948
1.4523674130348858,13.614388850344302,-0.03533279384862019,0.37802965130738586,-2.0210626361786015
1.4460517170730212,13.547783457991294,-0.034841605727653456,0.36203026372604025,-2.0213408883701725
1.439825611721457,13.484049394573322,-0.03433734262305984,0.346125996473657,-2.0182176685968405
1.4336916605979582,13.423169177077146,-0.03381766986026004,0.33032086459497306,-2.0114349541887218
1.427652858925645,13.365124547574425,-0.03328012649877514,0.31461946321304834,-2.0007200036965704
1.4217126579586734,13.309896363582201,-0.032722106467575965,0.2990270255894312,-1.985784513885244
1.415874993085085,13.257464477624264,-0.03214083657229719,0.2835494850542934,-1.9663238921285369
1.4101443162379688,13.20780760540461,-0.03153335061788157,0.26819353960853487,-1.9420167270175104
1.4045256334085912,13.160903182302519,-0.03089645859742579,0.2529667170813669,-1.9125245757129175
1.399024548283417,13.116727208402857,-0.03022670946006531,0.23787743735933792,-1.8774922364039615
1.393647313354198,13.0752540830828,-0.02952034530903399,0.22293506619685574,-1.8365487434456624
1.3884008903277794,13.036456431425254,-0.028773243873394895,0.20814995222033053,-1.7893094182358324
1.3832930223693136,13.000304926609239,-0.027980844554002453,0.19353343462427947,-1.7353794393000093
1.3783323217717836,12.966768115191574,-0.027138050974109644,0.17909780334977277,-1.6743595703083487
1.3735283782451477,12.935812256161704,-0.026239099321843654,0.16485618587099116,-1.6058549142439378
1.3688918954495828,12.907401190188523,-0.025277376184432685,0.15082232494211828,-1.5294878496245672
1.3644348670981925,12.881496262917977,-0.024245161053238058,0.1370102002861795,-1.4449166377565232
1.360170809580962,12.858056335618265,-0.023133255804880248,0.12343343637729805,-1.3518615152637543
1.3561150765755834,12.837037927300944,-0.02193044425488221,0.11010443381515318,-1.250140264429056
1.3522852939018204,12.818395542438441,-0.02062269656470784,0.09703317576822135,-1.1397149814832415
1.3487019719732964,12.802082242006176,-0.01919199153000168,0.08422571792363034,-1.0207504594997796
1.3453893818487233,12.788050501268401,-0.01761456540970034,0.07168251249607355,-0.8936813169787502
1.3423768256122794,12.776253344516306,-0.015858281661897032,0.059397006971647126,-0.7592785370097525
1.3397005101928054,12.766645621060682,-0.013878556332257699,0.047355475868610164,-0.6186957874848952
1.337406403377698,12.759185036489203,-0.011611519391158568,0.03553990825894114,-0.4734636561214903
1.3355549250291143,12.75383207088269,-0.008960462259771219,0.02393748736896207,-0.32539250957359367
1.334230055949666,12.750546730949562,-0.005760305289654455,0.0125662896658026,-0.1763523217599801
1.3335650274089195,12.749274385276657,-0.001628900718641445,0.00157088447757559,-0.027955079224231905
