x,y,v_x,v_y,omega
2.375,32.48,0.0,4.0,-4.326530612244898
2.3732177485347945,31.57500884874315,-0.015497838827872321,3.8694882717986743,-3.923708209844053
2.3682471795753335,30.699130475624813,-0.027724499950049476,3.746845407491208,-3.577965971002838
2.360763879386252,29.850638884100114,-0.03734767560717994,3.631342344897487,-3.279049314827452
2.3513067275865347,29.027965259475284,-0.044888426999060906,3.5223413474923317,-3.018850492266692
2.3403075919663023,28.229678663823854,-0.05075623056817636,3.419281223389649,-2.7909034084837927
2.328114008240702,27.45446978496995,-0.05527493226313027,3.321665549252988,-2.590009468023214
2.31500664284427,26.701137134065494,-0.05870215814062622,3.2290531542640535,-2.4119574464540605
2.301212839126116,25.968575232638457,-0.06124396114766829,3.141050336405809,-2.253311669537725
2.286917197737205,25.255764434649258,-0.06306596397329636,3.0573044287176976,-2.111250370298976
2.272269893325733,24.561762105564693,-0.06430190047428669,2.9774984328872005,-1.9834412832939043
2.2573932507233296,23.885694937427168,-0.06506020911183313,2.9013465074390945,-1.8679451335702806
2.2423869737223927,23.226752222075575,-0.06542915611370331,2.828590147792143,-1.7631402049277534
2.227332324085763,22.584179937910182,-0.06548084072655427,2.7589949319069462,-1.6676629676126802
2.2122954777723742,21.95727553152878,-0.06527434460726364,2.6923477322791687,-1.5803610349277715
2.1973302326436426,21.345383296047057,-0.06485822172953216,2.628454315387977,-1.500255653215877
2.182480202287142,20.74789026427317,-0.06427247702264476,2.567137265254511,-1.4265116138835119
2.1677806005977116,20.16422254809337,-0.06355014636370947,2.5082341797872476,-1.358412981096331
2.1532596989011825,19.593842066148426,-0.06271856404089124,2.4515960979948708,-1.2953434044431118
2.1389400198840773,19.036243610667466,-0.061800383933934576,2.397086123578688,-1.2367700674417654
2.124839319080513,18.490952211576367,-0.06081440566228106,2.3445782163439057,-1.1822305353174787
2.1109713941894763,17.957520762018646,-0.05977624556412178,2.2939561276362563,-1.1313219270197825
2.0973467543272792,17.435527874454998,-0.05869888367237428,2.245112459873762,-1.0836919599950026
2.0839731749200157,16.924575940729,-0.057593111173395266,2.197947833395787,-1.0390315113027357
2.0708561589023304,16.424289373047877,-0.056467897676041934,2.1523701464400533,-0.9970684122494405
2.0579993209038094,15.934313005844725,-0.055330693615444314,2.1082939161960503,-0.9575622509823576
2.0454047079387427,15.454310641056487,-0.05418767999383129,2.0656396906581893,-0.9203000022972394
2.0330730675897692,14.983963721545262,-0.053043975214636115,2.0243335224828964,-0.8850923391536227
2.02100407265337,14.522970119270802,-0.05190380684100621,1.9843064972950157,-0.8517705082413283
2.009196509589001,14.071043026439515,-0.05077065458829168,1.9454943099335589,-0.8201836740550884
1.9976484368013046,13.627909939251047,-0.04964736965254634,1.9078368830096215,-0.7901966535719701
1.9863573177220422,13.193311725071666,-0.04853627451495285,1.8712780228980388,-0.7616879777558225
1.975320132794675,12.767001764912404,-0.04743924659258724,1.8357651089216447,-0.7345482274797664
1.9645334737603783,12.348745164002825,-0.04635778848825275,1.8012488120312318,-0.708678600639144
1.9539936230683572,11.938318024047923,-0.04529308709454129,1.7676828397505038,-0.6839896746726117
1.9436966207608974,11.535506771452692,-0.04424606340510842,1.7350237045558734,-0.6604003347693872
1.9336383207949077,11.140107536410067,-0.04321741456002023,1.7032305132060788,-0.6378368429917649
1.9238144384410307,10.75192557828537,-0.04220764938673689,1.6722647748347588,-0.6162320276012785
1.9142205901361449,10.370774753203474,-0.041217118481834486,1.6420902258773897,-0.5955245752164052
1.9048523269450697,9.996477020162825,-0.04024603970142869,1.6126726701282421,-0.5756584111862522
1.8957051626043722,9.628861982369983,-0.03929451978289747,1.5839798324181935,-0.5565821558473534
1.8867745969687377,9.267766460815821,-0.03836257270088045,1.5559812245745084,-0.5382486462269326
1.8780561355530248,8.913034097405408,-0.037450135261841364,1.5286480224725474,-0.5206145143359648
1.8695453057565303,8.564514985212288,-0.03655708035984786,1.5019529531197913,-0.5036398145157369
1.8612376702665663,8.222065323658402,-0.035683228248535925,1.4758701908270495,-0.4872876934081976
1.8531422624817329,7.885548021077572,-0.03471162205436463,1.4503672229193023,-0.46810446033034214
1.8452670171563672,7.554831400514924,-0.033768772079249686,1.4254294776254643,-0.4498903394881251
1.8376054049378037,7.229787999901998,-0.032853942864779793,1.4010348755304114,-0.4325839656948778
1.8301510675634498,6.910295307517146,-0.03196638212960076,1.3771624495552437,-0.41612859623142845
1.8228978209257183,6.596235514196266,-0.031105327763717855,1.353792274974138,-0.40047170788775827
1.8158396566631962,6.287495281038481,-0.03027001364951657,1.3309054046587643,-0.3855646337748475
1.8089707425276595,5.983965521456401,-0.029459674485585733,1.3084838090984674,-0.37136223553423564
1.8022854217390631,5.685541196519381,-0.028673549763077247,1.2865103207886497,-0.35782260710153807
1.795778211508774,5.392121122627479,-0.027910887022047092,1.2649685826191988,-0.34490680663928175
1.7894438008841593,5.1036077906343245,-0.027170944496340835,1.2438429999299614,-0.33257861365383506
1.7832770480445292,4.819907195610238,-0.026452993239571725,1.2231186959316693,-0.3208043086592941
1.7772729771586977,4.540928676502929,-0.025756318811138577,1.202781470218828,-0.30955247305507316
1.7714267748976051,4.266584765013246,-0.025080222589666152,1.1828177601262595,-0.2987938071496896
1.7657337866810816,3.996791043057815,-0.024424022771406918,1.1632146047035834,-0.28850096449600837
1.7601895127255531,3.7314660082401474,-0.023787055102754893,1.1439596111022186,-0.2786484009074307
1.7547896039490165,3.4705309467967993,-0.023168673388867488,1.1250409231877538,-0.2692122367039659
1.7495298577806544,3.2139098135264064,-0.022568249814282577,1.1064471922069796,-0.26017013089505525
1.7444062139147989,2.9615291182469257,-0.021985175106198362,1.0881675493537146,-0.2515011661452141
1.739414750042425,2.713317818360789,-0.02141885856661957,1.0701915800909567,-0.24318574349142277
1.734551677587752,2.469207217138944,-0.020868727995753324,1.0525093000989965,-0.2352054858898027
1.7298133374727773,2.2291308673635974,-0.020334229525766318,1.0351111327300995,-0.22754314976524684
1.7251961959284747,1.9930244799957038,-0.019814827381211614,1.0179878878602924,-0.22018254382288238
1.720696840367932,1.760825837557423,-0.019310003580029874,1.0011307420378,-0.21310845445587345
1.7163119753337273,1.5324747119419513,-0.018819257586968428,0.9845312198358647,-0.206306577151283
1.712042505972175,1.3080167344475342,-0.01830656294826777,0.9672772801155778,-0.21786190214050383
1.7078876549867283,1.0875127904528483,-0.017822576055618437,0.9501483198382028,-0.2316542988104907
1.7038407913954652,0.8709345602632439,-0.017367542129278414,0.9331406383322712,-0.24755994297297312
1.6998952431693037,0.6582545580974895,-0.016941572880820033,0.9162506848481912,-0.2654589249704992
1.6960443265781908,0.44944609841257943,-0.016544658346248905,0.899475051542324,-0.28523496320332814
1.6922813729259527,0.24448326378195162,-0.016176677760170607,0.8828104669848577,-0.3067751288725403
1.688599752886018,0.04334087420987487,-0.015837409543608245,0.8662537901636405,-0.3299695807780419
1.6849928986342202,-0.15400554222926388,-0.015526540472025497,0.849802004959277,-0.354711309057242
1.6814543239602182,-0.3475797775326086,-0.015243674084512127,0.8334522150697911,-0.3808958867893892
1.6779776425256614,-0.5374049707927284,-0.014988338389894688,0.8172016393660506,-0.40842122842209033
1.674556584424943,-0.7235036342009522,-0.01475999292070081,0.8010476076619707,-0.4371873540005596
1.6711850111932025,-0.9058976781239991,-0.01455803518139075,0.7849875568862743,-0.46709615819671085
1.6678569293960432,-1.0846084353451388,-0.014381806533037044,0.7690190276453481,-0.49805118314431324
1.6645665029261898,-1.2596566845588484,-0.014230597552646598,0.7531396611694966,-0.5299573940879613
1.6613080641239577,-1.4310626732066751,-0.014103652901545409,0.7373471966377193,-0.5627209568473972
1.6580761238309099,-1.5988461397411058,-0.014000175733651685,0.7216394688790404,-0.5962490160844747
1.6548653804793731,-1.7630263354041134,-0.013919331671016465,0.7060144064514532,-0.6304494733374133
1.651670728314578,-1.9236220456078428,-0.013860252370680452,0.6904700301027438,-0.6652307637554835
1.6484872648410298,-2.0806516110060613,-0.013822038703650043,0.6750044516208776,-0.7005016304263133
1.6453102975802958,-2.2341329483472734,-0.013803763563602457,0.6596158730853294,-0.7361708951369362
1.6421353502237097,-2.3840835712035826,-0.01380447431975649,0.6443025865347612,-0.772147224347694
1.6389581682605445,-2.5305206106732356,-0.013823194925157321,0.6290629740708916,-0.8083388890842479
1.6357747241599871,-2.673460836160068,-0.013858927688384844,0.6138955084233169,-0.8446535173661689
1.6325812221837857,-2.812920676339388,-0.01391065471336629,0.5987987540055464,-0.880997837689683
1.6293741029057696,-2.94891624042738,-0.013977339008513884,0.5837713684987015,-0.9172774119658149
1.6261500475145718,-3.0814633398804574,-0.014057925262771215,0.568812105006326,-0.9533963561819485
1.62290598197689,-3.210577510661828,-0.014151340282287888,0.5539198148317116,-0.9892570469031444
1.6196390811405381,-3.336274036225369,-0.014256493077295589,0.5390934509382211,-1.0247598115577896
1.6163467728594583,-3.4585679713820667,-0.014372274584267923,0.5243320721634875,-1.0598026002586343
1.61302674222686,-3.577474167231955,-0.014497557003542232,0.5096348482703065,-1.0942806366934077
1.6096769360078262,-3.693007297365078,-0.014631192727185929,0.49500106593077836,-1.1280860453776005
1.6062955673692199,-3.8051818855590653,-0.014772012825914322,0.4804301357560928,-1.1611074522946598
1.6028811210126603,-3.9140123352288185,-0.014918825057210917,0.4659216005026216,-1.1932295556555073
1.599432358825906,-4.019512960916316,-0.015070411349349618,0.45147514460607524,-1.224332663190824
1.5959483261793523,-4.12169802214629,-0.015225524707638771,0.4370906052198069,-1.2542921920486971
1.592428359007803,-4.220581760017126,-0.01538288547974585,0.4227679849613796,-1.28297812701251
1.588872091833415,-4.316178436947112,-0.015541176906238977,0.40850746660372345,-1.310254432389138
1.5852794669041148,-4.408502380054713,-0.0156990398702841,0.3943094299840871,-1.3359784125616372
1.5816507446431838,-4.497568028719165,-0.015855066746507367,0.38017447144595495,-1.360000015879005
1.577986515630534,-4.583389986945747,-0.016007794233054824,0.3661034261764653,-1.3821610763072747
1.5742877143650003,-4.665983081249323,-0.01615569503245677,0.3520973938546545,-1.4022944871501786
1.5705556350903338,-4.745362424872226,-0.016297168225512863,0.33815776808364956,-1.4202233012523087
1.5667919500063037,-4.821543489268116,-0.01643052815735808,0.3242862701414835,-1.435759752554465
1.5629987302313122,-4.894542183913899,-0.016553991625176987,0.31048498764795307,-1.4487041948741832
1.559178469935467,-4.964374945655891,-0.01666566312130246,0.29675641880413495,-1.4588439556213042
1.5553341141247357,-5.031058838952859,-0.01676351784157891,0.28310352290864,-1.4659521052522118
1.5514690906298791,-5.09461166854318,-0.016845382113693963,0.2695297778767759,-1.4697861482413848
1.5475873469415067,-5.155052106227288,-0.016908910828675825,0.2560392454633037,-1.4700866491266644
1.543693392639475,-5.212399833605367,-0.016951561362903052,0.2426366447808644,-1.466575819126726
1.539792348298094,-5.266675702717855,-0.016970563344758202,0.22932743445814774,-1.4589561069497
1.5358900019192212,-5.317901916560757,-0.01696288342804854,0.21611790330622796,-1.446908864691709
1.531992874170989,-5.3661022313208875,-0.016925183947884254,0.20301526852097,-1.430093200573683
1.5281082940191604,-5.411302181789537,-0.016853773894103023,0.19002777903248927,-1.4081451911941536
1.5242444867780411,-5.453529330597426,-0.016744549941716813,0.177164819296978,-1.3806777165408544
1.5204106772567845,-5.492813540406338,-0.016592924156165832,0.16443700512835516,-1.3472813150799947
1.5166172116663126,-5.529187265594814,-0.016393733152286184,0.15185625738010372,-1.307526653574629
1.5128757035038878,-5.562685855691797,-0.01614112043401504,0.13943583041973165,-1.2609694939548302
1.5091992111225203,-5.59334785598687,-0.01582837853439903,0.12719025910265885,-1.2071594521598177
1.5056024587572252,-5.621215280211878,-0.015447728989907551,0.11513516894088782,-1.1456544190462625
1.5021021194924882,-5.646333814522045,-0.014990003746935205,0.10328686853883441,-1.0760432746921278
1.4987171898071334,-5.66875288988178,-0.014444167430062327,0.09166161285020066,-0.9979804354046206
1.4954695038753678,-5.688525531305281,-0.013796579802681695,0.08027439952805573,-0.9112366068096587
1.4923844665218544,-5.7057078613160215,-0.013029831966999774,0.06913716578272457,-0.8157702189799275
1.4894921343927479,-5.720358116226663,-0.012120882199145361,0.058256355179376884,-0.7118218304034749
1.4868288590721723,-5.732535065094972,-0.011038033631944949,0.047630156718939345,-0.6000262574366034
1.4844398534147962,-5.742295881947527,-0.0097359286061083,0.03724651156417566,-0.48151989395863537
1.4823833468704388,-5.749693956431429,-0.00814673699699914,0.027084570904515895,-0.3579911928357996
1.4807378451582198,-5.754778109571582,-0.006161973544035598,0.017125456401147224,-0.23158966395708183
1.4796174783243166,-5.757597251013934,-0.0035803467507755883,0.007388817010594101,-0.10460219274283039
