x,y,v_x,v_y,omega
2.375,32.48,0.0,2.2051282051282053,-7.755102040816326
2.3734104670543785,31.978239916529223,-0.013822025614098643,2.1580029554872335,-7.332476267920852
2.3688445296040643,31.48711869963288,-0.025881778301678676,2.112616321872261,-6.943787003943236
2.361682759701203,31.00624992867713,-0.0363944817232019,2.06885125165602,-6.585390009894093
2.352259616551422,30.53527271958959,-0.045545893492285876,2.0266027404095324,-6.254118824147332
2.3408696873834085,30.073849151482094,-0.053496968838265116,1.9857761126991207,-5.947210829789903
2.3277729544207553,29.62166205345779,-0.06038766561958987,1.9462856092513505,-5.6622466052612515
2.3131992644373183,29.178413088434077,-0.06634007336681695,1.9080532170418036,-5.397099825083736
2.2973521404400055,28.74382108371901,-0.07146100487068807,1.8710076935240139,-5.149895612025738
2.2804120468771494,28.317620568038635,-0.07584415654545056,1.8350837471748798,-4.918975712993355
2.26253919808523,27.899560482461432,-0.07957191990602394,1.8002213448008006,-4.7028692244349966
2.243875982805546,27.489403038740402,-0.08271690861296827,1.7663651223385817,-4.500267861153257
2.22454906433448,27.08692270339006,-0.08534325200499569,1.7334638807078768,-4.310004967763408
2.2046712053494084,26.691905289628973,-0.08750769569127828,1.7014701519972113,-4.131037630748202
2.184342858039296,26.30414714237051,-0.0892605417879578,1.6703398241633332,-3.9624313727713623
2.1636535533902017,25.92345440390208,-0.09064645516068856,1.6400318146925894,-3.803347008112804
2.142683117974925,25.549642349884433,-0.09170515714606946,1.6105077854608683,-3.6530293150274016
2.1215027421025603,25.182534786925153,-0.092472024352752,1.581731892445917,-3.510797242153617
2.1001759194908707,24.82196350431015,-0.09297860705324518,1.55367056507584,-3.376035415295686
2.0787592755723723,24.46776777357252,-0.09325307919456542,1.5262923109035682,-3.2481867506122075
2.0573032990095257,24.119793890485465,-0.0933206300475783,1.4995675420273562,-3.126746012477828
2.0358529888777994,23.777894754821375,-0.09320380588047593,1.4734684202690715,-3.0112541805907833
2.0144939819594363,23.441944353847454,-0.09252668906181163,1.447839414286784,-2.89190792874208
1.9933024163089939,23.111821671407988,-0.09174779485507993,1.4227926069259398,-2.778666121685851
1.9723001852759108,22.78739554150348,-0.09088030108477452,1.3983041748524245,-2.6711366005158537
1.9515063127282293,22.468540128074658,-0.08993598193854345,1.3743515940938347,-2.568957267540857
1.930937258510363,22.155134636724256,-0.08892535908637993,1.3509135480835983,-2.4717934068453187
1.9106071911304823,21.847063046660345,-0.0878578355212789,1.327969843776474,-2.3793352771735625
1.8905282314061802,21.54421386110326,-0.08674181425526006,1.3055013349808036,-2.291295945994238
1.8707106703393053,21.24647987458218,-0.08558480371756522,1.283489852159001,-2.2074093375707213
1.8511631640942245,20.953757955709435,-0.08439351145705096,1.2619181380388176,-2.127428471272573
1.831892908609395,20.665948844162493,-0.08317392754146768,1.2407697884563227,-2.0511238692998326
1.8129057960724428,20.382956960729302,-0.08193139886681247,1.2200291979192435,-1.978282115527808
1.7942065552276634,20.104690229383223,-0.08067069543561606,1.199681509437937,-1.908704549375148
1.7757988772566158,19.83105991045231,-0.07939606953001675,1.1797125682222078,-1.8422060805025917
1.7576855287727473,19.561980444034802,-0.0781113085905764,1.1601088788865388,-1.7786141118060041
1.739868453295914,19.297369302890672,-0.07681978251232317,1.1408575658450464,-1.7177675596106268
1.7223488624189272,19.03714685410818,-0.07552448598321328,1.121946336611394,-1.6595159612338526
1.70512731774311,18.781236228906774,-0.07422807641519674,1.1033634477486736,-1.6037186611866456
1.6882038045407959,18.52956319999302,-0.07293290795275398,1.0850976732404667,-1.5502440682505034
1.6715777979977484,18.282056065936466,-0.0716410619867878,1.067138275077403,-1.4989689765159513
1.6552483227957921,18.03864554207706,-0.07035437455196243,1.0494749758739652,-1.4497779442156036
1.6392140067139864,17.79926465751649,-0.06907446094200044,1.0320979333483866,-1.4025627248432173
1.623473128854143,17.563848657782252,-0.06780273783924609,1.014997716514553,-1.3572217456313886
1.608023663032184,17.33233491278643,-0.06654044322126751,0.9981652834491177,-1.313659628974453
1.5928633168197925,17.104662829731154,-0.0652886542777881,0.9815919605097774,-1.2717867528382587
1.5780028478785355,16.880916034486006,-0.06393281477662212,0.9640323459697766,-1.2559081921453725
1.563450131098784,16.6611915817384,-0.06261254852556396,0.9466150692268032,-1.2430899865391813
1.5491969400851877,16.445457254903488,-0.061328242897012136,0.929335598902876,-1.2331676314323667
1.535234978846416,16.23368185589793,-0.06008011570100585,0.9121896098410868,-1.2259825439819974
1.5215559191032462,16.02583515891394,-0.05886822989177236,0.895172972628406,-1.2213816427887785
1.5081514343491467,15.821887866510025,-0.05769250710039785,0.8782817439273571,-1.219216948174038
1.495013230923081,15.621811567838186,-0.05655274008278117,0.8615121575669042,-1.219345201106096
1.4821330763346185,15.425578698837949,-0.05544860416471853,0.8448606163482132,-1.2216274989660012
1.4695028250633628,15.233162504237423,-0.05437966775924479,0.8283236845259117,-1.2259289464464453
1.457114442038156,15.044537001209978,-0.05334540202516186,0.8118980809301476,-1.2321183199680232
1.444960023986317,14.859676944542606,-0.052345189729959864,0.7955806726991762,-1.2400677440748191
1.4330318188292428,14.678557793178609,-0.05137833337503254,0.7793684695964438,-1.2496523783372824
1.421322243287956,14.501155678002643,-0.05044406263615832,0.7632586188902262,-1.2607501133451608
1.4098238988505212,14.327447370740813,-0.04954154116762166,0.7472484007778692,-1.2732412744173631
1.3985295862426295,14.157410253852188,-0.048669872814046396,0.7313352243406085,-1.2870083316894234
1.3874323185329676,13.991022291290847,-0.047828107269968834,0.7155166240188672,-1.3019356152630268
1.3765253329962348,13.82826200001946,-0.04701524522335929,0.6997902566018853,-1.3179090341160085
1.3658021018487458,13.669108422156341,-0.046230243015674896,0.6841538987295734,-1.3348157974754846
1.3552563419644734,13.513541097637944,-0.04547201684756373,0.6686054449086544,-1.3525441373513218
1.3448820236730625,13.361540037277752,-0.04473944655601012,0.6531429060495215,-1.3709830309119948
1.3346733787357905,13.21308569610055,-0.044031378985485675,0.6377644085348481,-1.3900219213599108
1.3246249075906198,13.068158946827914,-0.04334663097251983,0.6224681938359027,-1.4095504359283915
1.31473138595338,12.926741053386536,-0.042683991959999446,0.6072526186978243,-1.4294580995775625
1.304987870858722,12.788813644305385,-0.04204222625441886,0.5921161559208671,-1.4496340429112882
1.2953897062218007,12.654358685860831,-0.04142007493619933,0.5770573957709185,-1.4699667027719676
1.2859325279996823,12.523358454820329,-0.04081625743004729,0.5620750480595244,-1.4903435138945431
1.2766122690302315,12.395795510625234,-0.040229472739090576,0.5471679449413123,-1.5106505899157294
1.26742516362577,12.271652666841184,-0.03965840034318259,0.5323350444852112,-1.5307723919398621
1.2583677519991046,12.150912961690572,-0.03910170075825719,0.5175754350853258,-1.55059138275992
1.2494368846006658,12.033559627465156,-0.03855801574990549,0.5028883407878783,-1.569987664722961
1.240629726447533,11.919576058597976,-0.03802596819038016,0.48827312762239267,-1.588838599116131
1.2319437615280846,11.808945778151983,-0.037504161543954355,0.4737293110384078,-1.607018404836675
1.2233767973700258,11.701652402457757,-0.03699117896090385,0.4592565645635727,-1.624397734003032
1.214926969864667,11.59767960360421,-0.036485581955260755,0.44485472981510416,-1.6408432220729126
1.2065927484466943,11.497011069453826,-0.035985908635806974,0.43052382801431516,-1.656217009970772
1.1983729417364342,11.39963046081726,-0.03549067145341217,0.41626407317323133,-1.670376235709127
1.190266703760921,11.305521365380887,-0.03499835442061651,0.4020758871430461,-1.6831724930408414
1.1822735408811729,11.214667247934798,-0.034507409751105736,0.3879599167359813,-1.6944512548381183
1.1743933195662237,11.127051396397409,-0.034016253857147204,0.37391705315436596,-1.7040512592078982
1.1666262751699985,11.04265686307669,-0.033523262631766845,0.3599484539823241,-1.7118038568917546
1.1589730218855205,10.961466400547046,-0.03302676592891148,0.34605556801458737,-1.7175323193576593
1.1514345640727925,10.883462391456124,-0.0325250411382881,0.33224016321082783,-1.7210511083058562
1.1440123091828378,10.80862677150903,-0.032016305730884154,0.31850435806825594,-1.722165109269602
1.1367080825319456,10.736940944811419,-0.0314987086247014,0.30485065669357203,-1.7206688348565264
1.1295241442187696,10.668385690692585,-0.030970320185523974,0.2912819878180254,-1.7163456073152648
1.122463208524882,10.602941061082486,-0.030429120630890285,0.2778017479219733,-1.7089667360388605
1.1155284662000877,10.540586267494323,-0.02987298654123419,0.26441384849684574,-1.6982907140505397
1.1087236101122862,10.481299556684363,-0.029299675091823525,0.25112276724193305,-1.6840624694648545
1.1020528648454382,10.42505807414954,-0.028706805489462934,0.23793360262608876,-1.666012724782875
1.0955210209696646,10.371837714819844,-0.02809183690856711,0.2248521306756093,-1.6438575406195968
1.0891334749020154,10.321612960663654,-0.02745204194055658,0.21188486198690967,-1.6172981537806452
1.0828962755516625,10.274356705532401,-0.026784474149469155,0.19903909567614034,-1.5860212662089315
1.0768161793402635,10.230040068544511,-0.026085927688781888,0.18632296508813712,-1.5497000061990343
1.070900715770559,10.18863219881366,-0.02535288596082271,0.17374546735404475,-1.5079958729569902
1.0651582665823185,10.150100076592253,-0.02458145480648699,0.16131646500601277,-1.460562098198171
1.0595981628368207,10.114408319231568,-0.023767273415232486,0.14904664247819932,-1.407049023237028
1.0542308062438626,10.081519005137057,-0.022905392610490176,0.136947393126254,-1.3471123052478857
1.0490678240480606,10.051391535548085,-0.021990104744309867,0.12503060329959864,-1.280425034299066
1.044122271367215,10.02398256286083,-0.021014701176087856,0.11330828963304655,-1.2066951476738492
1.0394089018328265,9.999246025363071,-0.019971120862072086,0.10179203643442752,-1.1256898115451452
1.0349445378996256,9.977133340721945,-0.018849435078806157,0.09049217783622686,-1.0372685542222697
1.0307485879595677,9.95759382123267,-0.017637086139087703,0.07941668728789827,-0.9414265625392192
1.0268437808959858,9.940575375186299,-0.01631775789205906,0.06856980007186189,-0.8383480988508167
1.0232572240480469,9.926025535468195,-0.01486969295958361,0.057950545302946535,-0.7284665190260468
1.0200219466096048,9.913892781441671,-0.013263154331216836,0.04755166362333914,-0.6125207826848245
1.0171791929961589,9.904127950264403,-0.011456442307443585,0.03735991183117637,-0.4915883587846076
1.0147819682204495,9.896685201333138,-0.009388990524811716,0.027359644092875238,-0.3670636309201378
1.0129010536340028,9.891521335963645,-0.00696678848776828,0.017543533033135952,-0.24054655562338226
1.0116375863209184,9.888590410310805,-0.004019883799922118,0.007942776991566603,-0.11361802617237746
