x,y,v_x,v_y,omega
2.375,32.48,0.0,2.1025641025641026,-2.7346938775510203
2.3746394405949123,32.084122996641135,-0.003795362158819728,2.0645622485818453,-2.613450632507739
2.373596879372253,31.695370854379888,-0.007178966500750573,2.0275655646943873,-2.499814451976102
2.371946669213119,31.313556906936704,-0.01019166675329111,1.9915286189181098,-2.393144999449305
2.369755817175713,30.938502854846714,-0.01286993364045461,1.9564087715028098,-2.29286687227625
2.367084767880699,30.570038256506397,-0.015246374728111927,1.9221659478689752,-2.198462036701448
2.3639880945948994,30.208000060111317,-0.017350186175042366,1.8887624352371317,-2.109463253553311
2.3605151100182016,29.852232172275684,-0.0192075462112547,1.856162699874761,-2.0254483506485226
2.356710407060282,29.50258505966311,-0.020841958608948757,1.8243332223628586,-1.9460352209907263
2.352614338445487,29.15891538041442,-0.022274553125734745,1.7932423486760058,-1.8708774448279282
2.3482634427594116,28.821085642546805,-0.023524348832953925,1.7628601551936272,-1.7996604493611084
2.34369082351171,28.48896388683065,-0.02460848535338172,1.733158326029038,-1.7320981329748086
2.338926486905612,28.162423391935594,-0.025542426289751653,1.7041100412873473,-1.6679298917740886
2.33399764325036,27.841342399883406,-0.02634013850237592,1.6756898750514984,-1.6069179953503
2.328928976307515,27.525603860058354,-0.027014250369677854,1.6478737020542868,-1.5488452663740222
2.3237428843087384,27.215095190211002,-0.02757619172270912,1.6206386121283616,-1.493513025080873
2.3184596959069417,26.909708053052988,-0.028036317769886486,1.593962831640211,-1.4407392651809023
2.313097863912856,26.609338147182086,-0.02840401900996531,1.5678256512114197,-1.3903570323530476
2.3076741393151696,26.313885011201187,-0.02868781886041446,1.54220735911381,-1.342212980420477
2.3022037277761918,26.023251840004683,-0.028895460497249215,1.5170891797967518,-1.2961660836537874
2.296700430529505,25.737345312302647,-0.02903398420471786,1.4924532170667804,-1.2520864865103956
2.2911788741343564,25.45607691070925,-0.0290876620600003,1.4682667997058405,-1.2084080921710134
2.285651661406326,25.17936122870399,-0.029093524550848557,1.4445298529810893,-1.1666618151841672
2.2801274345657445,24.907114346365052,-0.029056231665797363,1.4212268032182578,-1.1267398128793507
2.274613990364559,24.63925523725245,-0.028980023083526117,1.3983427663880958,-1.0885413986480472
2.2691183562103183,24.37570564105455,-0.028868757487427645,1.3758635093792266,-1.0519724912790764
2.263646859193623,24.116389943344714,-0.028725947951468028,1.3537754138822449,-1.0169451123637503
2.258205188725378,23.861235061971524,-0.028554793819533648,1.3320654426776652,-0.9833769270823324
2.252798453414615,23.610170339643904,-0.028358209451654463,1.310721108139383,-0.9511908241882255
2.247431232750772,23.363127442306336,-0.02813885016774475,1.289730442782368,-0.9203145314517436
2.2421076240950457,23.120040262930644,-0.02789913568200795,1.2690819716986002,-0.8906802632188772
2.236831285432874,22.880844830379075,-0.027641271288219398,1.2487646867389959,-0.8622243970886957
2.2316054742929152,22.645479223019283,-0.027367267027135288,1.2287680223114232,-0.834887177021606
2.2264330831963695,22.413883486795473,-0.027078955041766883,1.2090818326760422,-0.8086124404645177
2.221316671963544,22.18599955748147,-0.026778005303764615,1.1896963706292518,-0.7833473673222943
2.216258497171628,21.961771186861412,-0.026465939874296265,1.1706022674766048,-0.7590422488213749
2.2112605390282716,21.741143872601825,-0.026144145845247508,1.1517905142032678,-0.7356502745043603
2.206324525899325,21.5240647915955,-0.02581388709103573,1.1332524437580564,-0.713127335766437
2.201451956705658,21.310482736572972,-0.0254763149475617,1.114979714373828,-0.6914318444982285
2.1966441213829913,21.100348055791407,-0.0251324779226126,1.0969642938531612,-0.6705245655371138
2.1919021195798805,20.893612595623743,-0.02478333053118692,1.0791984447538348,-0.6503684617521328
2.1872268777521584,20.690229645882827,-0.024429741339572777,1.0616747104137119,-0.6309285506979115
2.1826191647970226,20.490153887726393,-0.02407250029343448,1.0443859017592716,-0.6121717718720425
2.178079606356382,20.29334134399887,-0.023712325397522035,1.0273250848462745,-0.5940668636992926
2.1736086979068756,20.0997493318754,-0.023349868807806397,1.0104855690849142,-0.5765842494459988
2.1692068167430114,19.909336417682326,-0.022985722390763623,0.9938608961053561,-0.5596959313400227
2.1648758962827293,19.7222690057894,-0.022602914033260146,0.9752697553991175,-0.5862413405195229
2.160614929645597,19.53872339882596,-0.022249366357601344,0.9567892652686631,-0.6143274114815406
2.1564184049087127,19.358678848562917,-0.021924578241185145,0.9384165269739323,-0.6438442815328485
2.1522809120564075,19.182115146637727,-0.02162797809886678,0.9201487564490998,-0.6746841328876438
2.1481971557720616,19.009012603108015,-0.021358930157407877,0.9019832807057601,-0.7067409581332827
2.144161967088484,18.839352025651717,-0.021116740196041223,0.8839175346236958,-0.7399103288107183
2.1401703139950774,18.673114699340687,-0.020900660787187275,0.8659490581239688,-0.7740891661480155
2.136217311093835,18.51028236691534,-0.020709896067996017,0.8480754937217974,-0.8091755129753447
2.1322982283907095,18.350837209488116,-0.020543606070167128,0.8302945844595141,-0.8450683058324948
2.1284084993039656,18.194761827603287,-0.02040091063239587,0.8126041722228734,-0.881667146254853
2.1245437279667945,18.04203922257964,-0.020280892916774526,0.7950021964471301,-0.9188720701905325
2.1206996958976863,17.892652778061006,-0.02018260254752262,0.7774866932226951,-0.9565833144593917
2.1168723681088597,17.746586241697536,-0.020105058387495798,0.7600557948138399,-0.9947010791134665
2.113057898720372,17.60382370687747,-0.020047250965004763,0.7427077296079184,-1.0331252844971501
2.1092526361454462,17.464349594425602,-0.02000814456053208,0.725440822516985,-1.0717553217335072
2.1054531279110016,17.328148634179925,-0.01998667895993487,0.7082534958585667,-1.1104897952795343
2.101656125176433,17.195205846352323,-0.019981770877631408,0.6911442707477995,-1.1492262560970088
2.097858587013303,17.06550652257255,-0.019992315050053774,0.6741117690392505,-1.1878609238757603
2.0940576845089023,16.939036206506778,-0.020017184996267045,0.6571547158636342,-1.2262883966216582
2.0902508047575457,16.81578067393255,-0.020055233439065685,0.6402719428124272,-1.2644013457811965
2.0864355548051132,16.69572591214131,-0.020105292376011552,0.6234623918322364,-1.3020901949171644
2.0826097656147486,16.578858098526666,-0.02016617278572313,0.6067251199008477,-1.3392427797744986
2.0787714961248356,16.46516357820209,-0.020236663950202856,0.5900593045683776,-1.3757439873811743
2.0749190374745083,16.354628840474387,-0.020315532369032944,0.573464250460086,-1.4114753716154613
2.0710509174770486,16.2472404939797,-0.020401520235804823,0.5569393968524248,-1.4463147424381437
2.0671659054277436,16.142985240265865,-0.020493343441089055,0.5404843264510898,-1.4801357257374115
2.0632630173401876,16.04184984557866,-0.020589689059503664,0.5240987755194912,-1.512807290467511
2.0593415217138,15.943821110579101,-0.02068921227088826,0.5077826455285087,-1.5441932394843834
2.0554009459456406,15.848885837684115,-0.020790532657108805,0.4915360165239737,-1.57415166019998
2.0514410835116026,15.757030795682788,-0.020892229806450315,0.4753591624373634,-1.6025343309036935
2.0474620020560512,15.668242681234428,-0.020992838146719386,0.4592525685979872,-1.629186078352791
2.043464052545107,15.582508076802156,-0.021090840915851117,0.4432169517417034,-1.653944082041501
2.039447879657453,15.49981340451576,-0.021184663164717264,0.42725328285195185,-1.6766371204613661
2.0354144336080973,15.420144875389557,-0.021272663670606082,0.4113628132133532,-1.6970847547235823
2.031364983625393,15.343488433244264,-0.021353125621016322,0.39554710410553223,-1.7150964452145163
2.02730113333039,15.269829692595948,-0.02142424590533362,0.3798080606135748,-1.7304705976249295
2.023224838300939,15.199153869680178,-0.02148412282573073,0.36414797007873995,-1.7429935359145114
2.019138426141835,15.131445705676086,-0.02153074200694249,0.34856954575381516,-1.7524384018103285
2.015044619427856,15.06668938108536,-0.021561960245464966,0.33307597625380275,-1.7585639836721705
2.0109465619405573,15.004868420109045,-0.021575486989260036,0.3176709813916491,-1.7611134825406098
2.006847848684487,14.945965583757502,-0.02156886307463837,0.3023588749403691,-1.759813230711662
2.0027525602476524,14.889962750338249,-0.021539436260462386,0.2871446347359789,-1.7543713894083277
1.9986653021698342,14.836840781911523,-0.021484332979729636,0.2720339802821817,-1.7444766687140494
1.9945912501088825,14.786579375316077,-0.021400425556603254,0.25703345756462087,-1.7297971373150365
1.9905362017620924,14.73915689649563,-0.021284293883291425,0.24215053001904926,-1.7099792252671955
1.9865066367272877,14.69455019717482,-0.02113218016728653,0.2273936733578869,-1.684647075006757
1.9825097858086538,14.652734413556107,-0.020939934765701173,0.21277246999697075,-1.653402471396127
1.9785537117379965,14.613682747807381,-0.02070295018858683,0.1982976957791015,-1.615825690986534
1.9746474039783233,14.57736623493853,-0.020416078860604866,0.18398138705092482,-1.5714777681096193
1.9708008913434185,14.54375350059334,-0.02007352782260305,0.16983686921425659,-1.5199048999115656
1.9670253778342341,14.512810519831493,-0.019668719642496984,0.1558787177525536,-1.460646027786812
1.9633334097378863,14.484500393841085,-0.019194102424320795,0.14212260846226296,-1.3932450644360945
1.9597390862750184,14.458783171552998,-0.01864088139534198,0.12858499457023673,-1.3172698009871562
1.9562583329173602,14.435615757153066,-0.017998627632638986,0.11528252542905623,-1.232340207973737
1.9529092675328112,14.414951962783476,-0.017254692204719015,0.1022310995139941,-1.138169516806938
1.9497127072793083,14.396742786695036,-0.016393310463730822,0.08944443825906993,-1.0346217757965104
1.9466928926216618,14.380937014403255,-0.015394212248338994,0.07693211218071948,-0.9217886678849659
1.943878550408813,14.367482237379967,-0.01423044262375576,0.06469711964338065,-0.8000845574930386
1.9413044926998744,14.356326324648553,-0.012864901680858753,0.05273354068729289,-0.6703492577277219
1.939014082427594,14.347419201044495,-0.011244680132618172,0.04102565514489049,-0.5339300695713048
1.9370631943306398,14.340714370386571,-0.00929098404584995,0.02955150967537152,-0.39268947807068677
1.9355271895482087,14.336168734607494,-0.006877487348160842,0.01829728799911225,-0.2488649684369561
1.9345162203480233,14.333736733278805,-0.0037642937064216913,0.007302725987081321,-0.1047180194567564
