x,y,v_x,v_y,omega
2.375,32.48,0.0,3.0769230769230766,-3.7142857142857144
2.374137980394491,31.871851502437888,-0.008620196055089934,3.0045618986980123,-3.47669860524013
2.3716799466774576,31.277881345984454,-0.015960141115243194,2.935139665836308,-3.2618302706382476
2.3678637562037355,30.69752077121522,-0.022201763621978763,2.868466081856036,-3.0668636586272315
2.3628936806712453,30.130237392035735,-0.027498991702923446,2.804367709938835,-2.8893945274593773
2.356945532766213,29.575532020168637,-0.03198248734739878,2.7426860087321283,-2.7273626743422557
2.350170933761248,29.032935853238715,-0.035763502702250774,2.683275660567085,-2.5789959302331997
2.342700879850025,28.502007973351198,-0.03893703640997913,2.6260031383081017,-2.442764311915604
2.33464873334817,27.982333112643158,-0.041584428608572505,2.570745468772312,-2.317342304829058
2.326112740151951,27.47351964981862,-0.04377550335361557,2.517389159473052,-2.20157769121322
2.3171781553821345,26.975197807656933,-0.045570344344551275,2.465829262143837,-2.0944656750977972
2.30791904373061,26.487018026277568,-0.04702077217069423,2.415968551649788,-1.9951273150554567
2.2983998087580524,26.00864949082346,-0.048171577554881745,2.367716802891306,-1.9027914766930925
2.2886764955704733,25.53977879539051,-0.04906155432090977,2.320990151438163,-1.8167796737164816
2.278797903403769,25.080108727635626,-0.049724367346131594,2.275710526110692,-1.7364932895199001
2.2688065382631817,24.62935716065431,-0.05018928405974,2.2318051437025153,-1.6614027684304116
2.2587394305856416,24.187256040521007,-0.050481792715660785,2.189206057630502,-1.5910384428477764
2.248628838673412,23.75355045939915,-0.05062412640663641,2.1478497535880243,-1.5249827240144638
2.238502855196418,23.32799780540718,-0.05063570836330115,2.1076767863316865,-1.4628634334205977
2.2283859312278986,22.91036698151413,-0.050533531321894705,2.068631452598819,-1.404348091501887
2.21829932994475,22.50043768666715,-0.05033248150959086,2.0306614958709597,-1.3491390123374476
2.208261520195755,22.097999753150393,-0.05004561598035753,1.993717839296628,-1.2969690790619997
2.1982885185424097,21.702852534861954,-0.04968440055309764,1.9577543435877784,-1.247598095893597
2.188394187047935,21.314804341790534,-0.049258914391651205,1.9227275871263831,-1.2008096300011946
2.1785904929816735,20.933671916490407,-0.04877802627096471,1.8885966658749018,-1.1564082706507655
2.1688877356791787,20.55927994880409,-0.04824954675397988,1.855323010988288,-1.1142172447718874
2.1592947450211235,20.19146062547678,-0.04768035982657191,1.8228702222847848,-1.074076337753917
2.149819055340789,19.830053211652757,-0.04707653697677289,1.7912039159554478,-1.0358400762914537
2.140467058019278,19.474903661548804,-0.04644343623833897,1.7602915850840701,-0.9993761367568118
2.131244135562408,19.12586425586891,-0.04578578833035988,1.7301024717149005,-0.9645639481273238
2.1221547795593487,18.782793263762496,-0.04510777170023592,1.700607449349218,-0.9312934631349584
2.113202694588751,18.44555462733989,-0.044413078005737176,1.671778914876825,-0.8994640751949797
2.1043908898537897,18.114017666946452,-0.04370496934387606,1.6435906890575647,-0.8689836619392369
2.0957217600851514,17.788056805564356,-0.04298632834251023,1.6160179247633917,-0.8397677389342066
2.087197157044016,17.467551310860493,-0.04225970206884025,1.589037022275224,-0.8117387094908466
2.078818452779906,17.15238505353273,-0.041527340572262976,1.562625551002435,-0.7848251984438216
2.0705865956463536,16.842446280726712,-0.04079123076325909,1.5367621770577469,-0.7589614594502626
2.062502159946855,16.53762740340317,-0.040053126231725494,1.5114265961776383,-0.7340868467812169
2.0545653899712235,16.23782479663249,-0.03931457352459137,1.4865994715291722,-0.7101453437922991
2.0467846131092644,15.942939826322373,-0.0384931950950021,1.4622502315720114,-0.6846781289581596
2.0391669439077846,15.652877383244167,-0.03768349691979367,1.4383741992100394,-0.6603712567971154
2.031709991870996,15.367544507617609,-0.03688602344808978,1.4149545570555337,-0.6371581598134337
2.024411268579743,15.086851526715773,-0.03610120946444238,1.391975251962821,-0.6149768123339172
2.0172682082642153,14.81071190638049,-0.035329393690837034,1.3694209513900124,-0.593769371470808
2.010278185816425,14.539042110969135,-0.034570830787066555,1.3472770027235306,-0.5734818502450767
2.003438532543462,14.2717614711636,-0.03382570194256364,1.3255293953318004,-0.5540638196578088
1.996746549926365,14.008792059116878,-0.03309412422840417,1.304164725135435,-0.5354681368506741
1.9901995216178185,13.750058570453326,-0.03237615885706044,1.2831701615000946,-0.517650696807395
1.9837947238841984,13.495488212675799,-0.03167181847914001,1.2625334162751718,-0.5005702053221969
1.9775294346732442,13.245010599566605,-0.03098107363040376,1.2422427148167665,-0.4841879712031559
1.9714009414673552,12.998557651200205,-0.03030385842848334,1.2222867688472339,-0.46846771589223346
1.9654065480638439,12.756063499213873,-0.029640075606631275,1.2026547510160874,-0.4533753988731132
1.9595435804070513,12.517464397008428,-0.028989600961293382,1.1833362710383535,-0.43887905740578853
1.9538093915828134,12.28269863457492,-0.02835228728108563,1.1643213532967205,-0.4249486592758257
1.9482013660730342,12.051706457664935,-0.02772796781670763,1.145600415803135,-0.4115559673786328
1.9427169233569355,11.824429991042226,-0.02711645934427944,1.127164250423938,-0.39867441507690243
1.937353520935666,11.6008131655718,-0.02651756486841539,1.1090040042803266,-0.3862789913743909
1.9321086568482309,11.380801648919476,-0.025931076005934743,1.0911111622429108,-0.37434613504286973
1.9269798717390019,11.164342779650635,-0.02535677508635579,1.073477530445516,-0.3628536369227498
1.9219647505302522,10.951385504531164,-0.024794437001143043,1.0560952207491883,-0.35178054969270106
1.9170609237471374,10.741880318846977,-0.024243830830003116,1.038956636092673,-0.3411071044705722
1.9122660685372082,10.535779209570663,-0.02370472126928997,1.0220544566704817,-0.3308146336679522
1.9075779094218062,10.333035601215204,-0.02317686988472981,1.0053816268841047,-0.32088549957458506
1.902994218812517,10.133604304225194,-0.022660036208161677,0.9889313430159888,-0.31130302819723377
1.8985170667110003,9.937618018452728,-0.022111484807005637,0.9709315147086875,-0.3371872449049549
1.8941458914155516,9.745220628230097,-0.02160026814748069,0.9530423875176062,-0.3647066754375576
1.8898733006157036,9.556390290689713,-0.021125639851000747,0.9352609878862524,-0.39375367030331265
1.8856920571927431,9.371105746159259,-0.02068679437860431,0.9175844574182822,-0.42422298012782766
1.8815950904497494,9.189346295546677,-0.020282873051333018,0.900010048707527,-0.4560115228073207
1.877575506190178,9.011091778520761,-0.019912969544380245,0.8825351215516395,-0.4890181556327407
1.8736265957466056,8.836322552411705,-0.01957613489134203,0.8651571395389406,-0.523143451446673
1.86974184405432,8.665019471757756,-0.019271382031514767,0.847873667000556,-0.5582894779001144
1.8659149368581716,8.497163868425453,-0.01899768992997206,0.8306823663224697,-0.5943595788744449
1.8621397671354651,8.332737532231732,-0.018754007297090623,0.8135809956147244,-0.6312581571250674
1.8584104408126305,8.17172269199649,-0.018539255931256538,0.7965674067376953,-0.6688904571869813
1.8547212818489405,8.014101996953901,-0.018352333705643,0.7796395436881961,-0.7071623475586306
1.8510668367566578,7.859858498449963,-0.01819211721718371,0.762795441351178,-0.7459801011483043
1.8474418786236249,7.708975631852244,-0.018057464113146206,0.7460332246260032,-0.785250172926627
1.843841410701509,7.561437198595669,-0.017947215108010603,0.7293511079397572,-0.8248789736786487
1.8402606696206427,7.417227348285305,-0.017860195700653368,0.71274739516388,-0.8647726386889855
1.836695128290668,7.276330560773459,-0.017795217599094682,0.6962204799545864,-0.9048367901225688
1.8331404985450326,7.138731628123779,-0.017751079857260158,0.6797688465422088,-0.9449762917808675
1.8295927335867765,7.004415636369579,-0.01772656972530066,0.663391070999798,-0.985094994817927
1.8260480302930493,6.873367946966884,-0.01772046321197172,0.6470858230271653,-1.0250954728910564
1.8225028314364162,6.74557417783485,-0.01773152535435735,0.630851868293153,-1.064878745096244
1.8189538278823019,6.621020183866893,-0.017758510186788968,0.6146880713864058,-1.1043439848970624
1.815397960823912,6.499692036784907,-0.017800160397110694,0.598593399433443,-1.143388213096564
1.8118324241187582,6.381576004196308,-0.017855206654424437,0.5825669264525553,-1.1819059727231083
1.8082546667945105,6.266658527698734,-0.017922366588052147,0.5666078385231875,-1.2197889835019178
1.8046623957964443,6.154926199860093,-0.01800034339261121,0.5507154398632381,-1.256925773363389
1.8010535790543094,6.046365739881633,-0.018087824028736443,0.5348891599213585,-1.2932012841961316
1.7974264489531346,5.940963967728678,-0.01818347698301223,0.5191285616081859,-1.3284964487874038
1.7937795063004331,5.838707776486881,-0.01828594954400244,0.5034333508097927,-1.3626877356071665
1.790111524891656,5.739584102671014,-0.01839386454377108,0.48780338734887224,-1.3956466577871818
1.7864215567866943,5.643579894177659,-0.018505816505842054,0.47223869758466797,-1.4272392423286953
1.7827089384230104,5.550682075532009,-0.01862036713099906,0.4567394888718204,-1.4573254552502817
1.778973297705761,5.4608775100316755,-0.018736040041495438,0.44130616613152984,-1.485758578075842
1.7752145622324202,5.374152958335916,-0.018851314691910957,0.42593935082607526,-1.512384530783924
1.7714329688291501,5.290495032986307,-0.018964619340790856,0.4106399026700186,-1.5370411361274872
1.7676290745989716,5.209890148273466,-0.019074322960995233,0.39540894445837244,-1.559557320138678
1.763803769708078,5.132324464783306,-0.019178725947939266,0.380247890443235,-1.5797522437311766
1.7599582921669807,5.0577838278644975,-0.019276049463034132,0.3651584787448568,-1.597434360713396
1.7560942448982932,4.986253699156144,-0.01936442322384141,0.35014280833867006,-1.6124003983905302
1.7522136154237509,4.917719080201014,-0.019441871521583175,0.3352033812126426,-1.6244342584973541
1.7483187985506905,4.852164427046464,-0.019506297209019342,0.32034315033284544,-1.6333058388098094
1.744412622494312,4.789573554605326,-0.0195554633547665,0.3055655740785469,-1.6387697799317023
1.7404983789388397,4.729929529418062,-0.019586972199955185,0.29087467779410126,-1.6405641481726498
1.7365798576214928,4.673214549336059,-0.01959824097351504,0.27627512302591056,-1.6384090751896054
1.7326613861227962,4.619409808550884,-0.01958647401344923,0.26177228482582116,-1.6320053897133013
1.7287478756727301,4.568495346354215,-0.019548630487212226,0.24737233714086007,-1.6210332984991107
1.7248448739461493,4.520449878073052,-0.019481386778597776,0.23308234567078023,-1.6051512059577426
1.7209586260414576,4.475250606855649,-0.019381092268318714,0.21891036650325232,-1.5839948095936873
1.7170961451436932,4.432873015495744,-0.019243716709323743,0.20486554709580765,-1.5571766784703165
1.7132652948160731,4.3932906384449275,-0.019064786566877833,0.19095822341236296,-1.5242866246062068
1.7094748855235264,4.356474815830964,-0.01883930635858924,0.17720000272727077,-1.4848933269236653
1.7057347890018948,4.322394434052608,-0.018561658857726825,0.1636038150563061,-1.438547884030672
1.7020560756704262,4.291015661907611,-0.018225474456959795,0.15018390639365867,-1.3847902818058802
1.6984511828146478,4.262301697991198,-0.017823454100824282,0.13695573277048043,-1.3231601952408005
1.6949341253593517,4.236212555257325,-0.01734712045213487,0.12393569456824761,-1.2532141289352314
1.6915207677270017,4.21270492324496,-0.01678645587136721,0.11114062555539295,-1.1745516380456191
1.6882291861997072,4.191732168259591,-0.016129359401577996,0.09858692429831076,-1.0868541763198327
1.6850801690477812,4.173244555885894,-0.01536081211768071,0.08628919943864542,-0.9899406858807671
1.6820979306996757,4.157189803200616,-0.014461571363376837,0.07425832741412362,-0.8838435876024412
1.67931116325555,4.143514074127122,-0.01340610307788001,0.0624989633208038,-0.7689056565031278
1.6767546260572903,4.132163483970132,-0.012159268904715421,0.0510069382491066,-0.6458893855483492
1.6744716112121436,4.123086006871336,-0.010670879546751975,0.039767832738837924,-0.5160722094192647
1.6725179169568665,4.116233259442939,-0.008866063006020195,0.028759641545137445,-0.381273068560566
1.6709688163504341,4.111560719698666,-0.0066249430583038785,0.017965755897591043,-0.24372988165690115
1.6699341000503103,4.109022445661168,-0.0037222199429348297,0.007416984477399411,-0.10575143292442896
