x,y,v_x,v_y,omega
2.375,32.48,0.0,3.8974358974358974,-3.959183673469388
2.3739268250710963,31.749507981929096,-0.011296578198988395,3.79195376646834,-3.6592786873540204
2.3708939182309834,31.03857066978409,-0.02062875696009271,3.691596887689597,-3.3937460460208886
2.3662432250351664,30.346251071214255,-0.028325908259032327,3.59597783409815,-3.157537533821519
2.3602597760787822,29.671682043943164,-0.03465776496606738,3.504748768755426,-2.946474752787651
2.3531818970820146,29.01405927049286,-0.039846224473588356,3.4175962149319647,-2.757079774219953
2.3452094181994765,28.37263514395667,-0.04407460586891913,3.334236695975313,-2.5864423030687647
2.3365103097613305,27.746713416421873,-0.047494956637882745,3.2544130675488874,-2.432114746021821
2.3272260727339646,27.135644491266085,-0.05023385417649468,3.1778914077751805,-2.2920287751564428
2.3174761380028683,26.538821263152354,-0.052397037729779904,3.104458361843068,-2.164428573614351
2.3073614724720546,25.955675427035544,-0.05407312575247261,3.0339188604391434,-2.047817117159476
2.296967547209626,25.385674191199058,-0.05533661385203802,2.966094148365945,-1.9409127082953352
2.2863667900430187,24.828317340210564,-0.05625030369119507,2.9008200725655797,-1.8426136229108177
2.275620619644763,24.2831346023986,-0.05686727944834098,2.8379455886129863,-1.7519692129293076
2.2647811384336753,23.7496832835048,-0.05723252277363492,2.7773314523743804,-1.6681561745788132
2.253892546202382,23.227546133926047,-0.05738423755576753,2.718849069507251,-1.5904589711148875
2.24299232426654,22.716329421702547,-0.05735494071625112,2.6623794802137937,-1.5182536131535933
2.232112230359921,22.21566118733999,-0.057172363563951306,2.607812460444707,-1.4509941653078475
2.2212791369019715,21.725189659836555,-0.05686019915130333,2.5550457238019764,-1.3882014764219972
2.210515739206071,21.244581816042775,-0.05643872396344085,2.5039842108693775,-1.3294537311614125
2.1998411553446124,20.77352206781085,-0.05592531668349213,2.454539454729858,-1.2743784996071565
2.1892714354849776,20.31171106336678,-0.055334892365293875,2.406629013102444,-1.2226460237721595
2.178819995359919,19.858864591024727,-0.054680266845846495,2.360175958919188,-1.1739635293345234
2.168497985982451,19.414712574806977,-0.053972463443292026,2.315108422320251,-1.1280703902224505
2.158314609638327,18.97899815277505,-0.053220971758012645,2.271359178015838,-1.0847340051630767
2.148277390493763,18.5514768299493,-0.052433966605824216,2.228865272781491,-1.0437462706013414
2.138392406767454,18.131915698623246,-0.05161849367110865,2.1875676885454354,-1.004920554802237
2.128664490274969,17.720092719685507,-0.050780627302416385,2.14741103711497,-0.9680890944786857
2.119097398213124,17.31579605926595,-0.04992560492753314,2.108343283090891,-0.93310074872532
2.1096939612744605,16.918823475637176,-0.049057941795240756,2.0703154919488167,-0.8998190560032332
2.100456211537292,16.528981751841645,-0.04818152912232299,2.0332816006357346,-0.8681205488988568
2.091385493040786,16.146086169988138,-0.047299718209322876,1.9971982083485331,-0.8378932887563962
2.082482557507692,15.769960023578541,-0.04641539266534577,1.9620243854367103,-0.8090355883633602
2.0737476473038075,15.400434164594081,-0.045531030533440806,1.9277214986102431,-0.7814548958963093
2.0651805674102417,15.037346582396186,-0.0446487578198807,1.8942530508412776,-0.7550668175040148
2.0567807479216285,14.680542011785978,-0.04377039469183853,1.8615845345293311,-0.7297942593743312
2.048547298361997,14.32987156782319,-0.0428974954095457,1.829683296657906,-0.7055666730254031
2.0404790549231837,13.985192405233835,-0.042031382893752814,1.7985184148089997,-0.6823193899833836
2.0325746215726013,13.646367400439733,-0.04117317869132527,1.7680605830236562,-0.6599930340403638
2.0248324058432257,13.313264854425132,-0.04032382898631263,1.738282006603738,-0.6385330009950582
2.017250650004866,12.985758214818553,-0.03948412720694293,1.7091563050444565,-0.617888997219899
2.0098274582189415,12.663725815714127,-0.03865473369753051,1.6806584223705396,-0.5980146296165706
2.00256082019639,12.347050633887772,-0.03783619285564276,1.652764544222679,-0.5788670405545935
1.9954486318077975,12.035620060181522,-0.037028948076908236,1.6254520211062795,-0.5604065822647653
1.9884887130344149,11.729325684935528,-0.03623335480080283,1.598699297272613,-0.5425965259061825
1.9816788235969678,11.428063096442987,-0.03544969190916763,1.5724858447541359,-0.5254028011629942
1.9750166765546775,11.131731691489776,-0.03467817169388769,1.5467921021217632,-0.5087937627722173
1.968499950128649,10.840234497118775,-0.03391894858009663,1.5215994175729777,-0.49273998085122417
1.9621262979708043,10.553478002829689,-0.03317212676563756,1.4968899959963646,-0.4772140522948719
1.9558989880620037,10.271372645144258,-0.032378503853315185,1.4726400849029098,-0.46059175190493656
1.949820625657047,9.993831976372906,-0.03160425830412493,1.448840639006058,-0.4446995330400778
1.9438875634666573,9.720771884091889,-0.03084902791050365,1.4254761218467693,-0.42949692536520545
1.938096224730498,9.45211114309387,-0.03011243247011951,1.4025316781323751,-0.4149461263237912
1.9324431062392473,9.18777128953468,-0.029394077964098417,1.3799930961748752,-0.4010117972591732
1.9269247806176542,8.927676501983349,-0.02869356015793399,1.3578467727865164,-0.3876608771975682
1.9215378979712143,8.671753488926232,-0.028010467699327666,1.3360796804463149,-0.3748624125861253
1.9162791869859102,8.419931382309947,-0.027344384777558076,1.3146793365672034,-0.36258740146097707
1.9111454555589822,8.172141636738804,-0.026694893400630658,1.2936337747079782,-0.3508086506807972
1.9061335910286958,7.9283179339707495,-0.02606157533922646,1.2729315175873197,-0.3395006450035007
1.9012405600623505,7.688396092381893,-0.02544401378019729,1.2525615517690452,-0.3286394269097085
1.8964634082541754,7.452313981093475,-0.024841794726909804,1.2325133038985183,-0.31820248618842684
1.891799259478113,7.220011438477023,-0.024254508179009863,1.212776618379927,-0.30816865839978075
1.887245315034701,6.991430194773592,-0.023681749120063413,1.193341736393026,-0.2985180314180895
1.88279885262619,6.766513798581432,-0.023123118337947345,1.1741992761560376,-0.28923185933737877
1.8784572251896097,6.545207546983477,-0.022578223099742195,1.1553402143487652,-0.2802924830917305
1.8742178596136192,6.327458419101756,-0.022046677700155917,1.136755868616703,-0.27168325720566555
1.8700782553615918,6.1132150128802785,-0.021528103900132017,1.1184378810830449,-0.2633884821459058
1.8660359830204085,5.902427484911286,-0.021022131270219842,1.1003782028011078,-0.25539334179613227
1.862088682791848,5.695047493132126,-0.02052839745147075,1.082569079084799,-0.2476838456214088
1.8582340629411798,5.491028142231421,-0.020046548345037166,1.0650030356594489,-0.24024677512936582
1.854469898215576,5.29032393161371,-0.019576238240262767,1.0476728655796193,-0.23306963427154584
1.8507940282432167,5.0928907057815245,-0.019117129889835716,1.0305716168644394,-0.2261406034609604
1.847204355922429,4.898685607002964,-0.01866889453951111,1.0136925808046282,-0.2194484969112928
1.8436988458088726,4.707667030141149,-0.018231211918974446,0.9970292808986804,-0.21298272302965676
1.8402792714585794,4.519991055519277,-0.01776430755779515,0.9785072940684082,-0.24778870688794352
1.8369445642372795,4.335824141877076,-0.017337873719046736,0.9600917969021353,-0.2839646362106829
1.833687139497166,4.155146317679417,-0.016950807755830594,0.9417800367574359,-0.3214080210976351
1.8304996253914991,3.977938124425517,-0.016601972303822297,0.9235693659151988,-0.3600182001373327
1.8273748690646374,3.804180597021407,-0.016290199557880417,0.9054572383385898,-0.3996961186309892
1.824305942068872,3.6338552447345087,-0.016014295134385077,0.8874412067866685,-0.4403441094414418
1.8212861450842361,3.466944032663335,-0.015773041545994997,0.8695189202783271,-0.4818656755348186
1.8183090120126693,3.3034293636559404,-0.015565201312603364,0.8516881219047873,-0.5241652732698677
1.8153683135136724,3.1432940606107884,-0.015389519729468506,0.8339466469915622,-0.5671480954696009
1.8124580600448499,2.986521349093298,-0.015244727310770218,0.8162924216136113,-0.6107198532816727
1.8095725044675304,2.8330948402003138,-0.015129541924171177,0.7987234614704182,-0.654786555797233
1.8067061442749488,2.6829985136031844,-0.015042670629319216,0.7812378711309588,-0.6992542863522511
1.803853723498258,2.5362167006978495,-0.014982811230583565,0.7638338436620431,-0.7440289743797984
1.801010234343946,2.3927340677875044,-0.01494865355164782,0.7465096606573772,-0.7890161616156685
1.7981709186150383,2.252535599219602,-0.014938880436854754,0.7292636926889581,-0.8341207613820536
1.7953312689678058,2.11560658039447,-0.014952168481380479,0.7120944002071709,-0.8792468095837136
1.7924870300555842,1.9819325805572667,-0.014987188489373218,0.6950003349212897,-0.9242972059469421
1.7896341996117657,1.851499435278427,-0.015042605656086673,0.6779801416980905,-0.9691734439123226
1.7867690295250984,1.7242932285199153,-0.015117079466727664,0.6610325610230932,-1.0137753274562737
1.7838880269621475,1.600300274175435,-0.015209263301175644,0.6441564320766917,-1.05800067296212
1.7809879555941985,1.479507096961953,-0.015317803729865976,0.6273506964862744,-1.1017449940871815
1.7780658369890807,1.36190041252733,-0.015441339481900936,0.6106144028255549,-1.1449011673763927
1.7751189522324293,1.2474671066242244,-0.015578500061796988,0.5939467119439621,-1.1873590761534958
1.7721448438478773,1.1361942131834297,-0.015727903986119587,0.5773469032223025,-1.2290052299762746
1.7691413180916722,1.0280688911000126,-0.015888156605513692,0.5608143818663168,-1.2697223566712537
1.766106447704383,0.9230783995227974,-0.016057847471213738,0.5443486873675177,-1.3093889636649885
1.763038575210817,0.8212100714111692,-0.01623554719790152,0.5279495032811993,-1.3478788650035898
1.7599363168691848,0.722451285092415,-0.016419803766649355,0.5116166684951602,-1.3850606701010115
1.7567985673821163,0.626789433517331,-0.01660913820249382,0.49535019018995,-1.420797229883636
1.7536245054955566,0.534211890870619,-0.016802039550764605,0.479150258722818,-1.4549450356109794
1.7504136006271116,0.44470597614511576,-0.016996959064445684,0.46301726470353405,-1.4873535652620908
1.7471656206833623,0.3582589132340033,-0.01719230350133747,0.4469518185713535,-1.5178645720041013
1.7438806412463732,0.2748577870319693,-0.017386427414334896,0.43095477302903656,-1.546311308934015
1.740559056333475,0.1944894949636975,-0.01757762430038601,0.41502724874225444,-1.5725176840538972
1.7372015909618839,0.1171406932749548,-0.01776411645320362,0.3991706637708519,-1.5962973393732431
1.733809315781436,0.042797737326871754,-0.017944043340985524,0.38338676726162485,-1.6174526482348563
1.7303836640753079,-0.028553384972880735,-0.018115448302468144,0.3676776779988987,-1.6357736255863822
1.726926451471032,-0.09692712758799615,-0.018276263321487785,0.35204592847603366,-1.651036747196126
1.723439898753467,-0.16233846973838695,-0.018424291600250085,0.3364945152122675,-1.6630036760733709
1.7199266582292234,-0.22480300951164622,-0.018557187602312637,0.3210269560852124,-1.6714198980915032
1.7163898441604564,-0.284337069108787,-0.018672434174182875,0.30564735546365523,-1.6760132747492011
1.7128330678679142,-0.3409578132766171,-0.018767316273629656,0.29036047788194547,-1.676492530203407
1.7092604782031369,-0.3946833826065941,-0.01883889072402721,0.27517183085464986,-1.672545703732819
1.7056768082144433,-0.4455330434644651,-0.01888395126222149,0.26008775712293974,-1.6638386199494903
1.7020874289913968,-0.493527356315937,-0.018898987927742528,0.24511553605045316,-1.6500134607717505
1.6984984118845716,-0.5386883640651376,-0.018880139512520436,0.23026349288851805,-1.6306875704193544
1.6949166005889296,-0.5810398016214222,-0.018823137283711943,0.21554111296710504,-1.6054526948620993
1.6913496949947544,-0.6206073270947243,-0.018723237391817315,0.20095915517288765,-1.5738749610102194
1.6878063493243842,-0.6574187735425951,-0.018575138085760935,0.1865297548046962,-1.5354960540098406
1.6842962880106298,-0.6915044176787433,-0.01837287574323368,0.17226649926003768,-1.4898362752210057
1.6808304442437736,-0.7228972578499722,-0.01810969022367534,0.15818444991075986,-1.4364004885257438
1.6774211284728304,-0.751633287106614,-0.017777844207305153,0.14430006858019648,-1.3746884257694838
1.6740822379909774,-0.7777517372708118,-0.01736837139114521,0.13063098577974316,-1.3042114622619592
1.6708295250679792,-0.8012952552832147,-0.016870712008838933,0.11719551961394042,-1.2245188100319426
1.6676809515818434,-0.8223099526816284,-0.016272166792589297,0.10401182142197396,-1.1352370535614744
1.6646571754812587,-0.8408452430114792,-0.01555705531882805,0.09109649783958892,-1.0361278022723945
1.6617822430947244,-0.856953354516719,-0.014705390855216749,0.07846257063659727,-0.9271681919087507
1.6590846084569684,-0.8706883908893346,-0.013690763226426077,0.06611675960148303,-0.8086562687575057
1.656598679059485,-0.8821048466084491,-0.012476914641818519,0.05405645849444571,-0.6813345800803283
1.6543672249999406,-0.8912556386378583,-0.011012075458650027,0.042267668130929234,-0.5465059014079043
1.6524452747651945,-0.8981901238595213,-0.00921897964394043,0.03072691314977056,-0.40608286742997834
1.6509069254910822,-0.9029534808898347,-0.006974170609873181,0.019413687169342095,-0.2624791223723016
1.6498597866266818,-0.9055912272556839,-0.004048343752236644,0.00835206405011774,-0.11824537795398968
