x,y,v_x,v_y,omega
2.375,32.48,0.0,2.051282051282051,-2.2448979591836737
2.374712086570623,32.0937360243171,-0.0030306676776549893,2.0146545348536593,-2.1472823813704305
2.3738791899466896,31.7143418829901,-0.00573666520585246,1.978968005430571,-2.05564439100642
2.372559989466676,31.34164271001697,-0.00814965563639776,1.9441811837603105,-1.9694919925054144
2.3708074651745936,30.97547125144507,-0.010297968490782572,1.910255222259672,-1.888381994763807
2.3686694943955424,30.615667421103662,-0.012206987078176685,1.8771535181761854,-1.811914455353317
2.366189379429011,30.262077890107957,-0.0138994862537303,1.8448415449365287,-1.7397278341872526
2.363406315115679,29.914555706887516,-0.015395927570824837,1.8132866994891708,-1.671494756429618
2.3603558038135284,29.572959944878274,-0.016714717714968373,1.7824581637659902,-1.6069182999416793
2.357070024284785,29.237155375348582,-0.017872435219172138,1.7523267786518197,-1.5457287354656173
2.353578160115706,28.90701216311484,-0.018884029718498344,1.7228649290717908,-1.4876806585092313
2.3499066925414382,28.582405583148777,-0.01976299737905803,1.694046438992024,-1.4325504609041073
2.346079661907183,28.263215756292368,-0.020521535613105005,1.6658464752859385,-1.3801340975723573
2.3421189014476846,27.949327402482826,-0.02117067975003499,1.6382414595513637,-1.3302451104050412
2.338044246595304,27.640629610053146,-0.02172042395923274,1.6112089870768274,-1.2827128765327545
2.3338737226208432,27.337015619816892,-0.022179828403513718,1.5847277522521914,-1.237381052822128
2.3296237130609594,27.03838262277175,-0.02255711433210681,1.5587774798019123,-1.1941061922975595
2.325309111083161,26.74463157036794,-0.022859748592082795,1.5333388612908332,-1.152756511477463
2.3209434556770625,26.455666996385947,-0.023094518840536205,1.5083934964143728,-1.1132107904211854
2.3165390543329245,26.171396849555897,-0.023267600571441126,1.4839238386387608,-1.0753573896829811
2.312108169540574,25.89173336172454,-0.023373291979620847,1.4599023490597236,-1.0379728246213524
2.3076613505526913,25.616591836397305,-0.023435328945455497,1.4363242333322526,-1.002235141483952
2.3032064989063077,25.34588948409905,-0.023457846279636017,1.4131742119125392,-0.9680527797097525
2.2987507655537187,25.07954635468758,-0.023444610063409123,1.3904376766292632,-0.9353402290009105
2.2943006176656766,24.81748521334048,-0.02339905191597739,1.368100653340198,-0.9040175657821641
2.2898618992476094,24.559631423400994,-0.023324299853154526,1.3461497670754459,-0.8740100299340514
2.2854398861818517,24.3059128356289,-0.02322320610219027,1.3245722094729298,-0.8452476378922222
2.281039336243556,24.056259683437688,-0.023098372195656407,1.3033557083292782,-0.8176648286234833
2.2766645345800756,23.81060448373144,-0.02295217163045614,1.282488499104956,-0.7912001393586388
2.272319335092341,23.568881942983985,-0.02278677034569668,1.2619592982366206,-0.765795908288846
2.2680071981112477,23.33102886822988,-0.02260414524475915,1.2417572781223962,-0.7413980017214928
2.2637312247216146,23.096984082660818,-0.022406100961903014,1.2218720436572366,-0.717955563448141
2.2594941880503208,22.86668834554382,-0.022194285051717173,1.20229361020589,-0.6954207843049045
2.2552985618031793,22.640084276197776,-0.021970201760298503,1.1830123829103596,-0.6737486901082126
2.251146546306563,22.417116281783755,-0.02173522451987522,1.164019137237219,-0.6528969463292938
2.2470400922843003,22.197730488681824,-0.021490607293413684,1.1453050006778478,-0.6328256780315316
2.2429809225776065,21.981874677242875,-0.021237494882308514,1.1268614355216229,-0.613497303738396
2.2389705519954446,21.769498219718617,-0.02097693229834405,1.1086802226284556,-0.5948763820279577
2.2350103054645003,21.560552021186293,-0.020709873290545144,1.0907534461328403,-0.5769294697647863
2.2311013346316244,21.354988463297072,-0.02043718810814578,1.0730734790168452,-0.5596249909828831
2.227244633056958,21.152761350688515,-0.020159670572554484,1.0556329694942788,-0.5429331155255298
2.223441050122808,20.953825859912058,-0.019878044523763017,1.0384248281526514,-0.5268256466307515
2.2196913037715484,20.75813849073622,-0.019592969700022084,1.021442215803563,-0.5112759167255218
2.215995992175195,20.56565701969528,-0.019305047103700818,1.0046785319958156,-0.496258690758818
2.2123556044297508,20.37634045576153,-0.01901482390097301,0.9881274041489132,-0.4817500764639555
2.2087715866777664,20.190357092676855,-0.018711678751493703,0.9695922072686992,-0.5108581482143437
2.2052424470459133,20.00788509886252,-0.01843715947853515,0.9511656223558825,-0.5414233992141773
2.2017627964749837,19.82890410619952,-0.01819074126809313,0.9328448267283189,-0.573338963909418
2.1983273519270683,19.6533942723663,-0.017971832920492127,0.9146271083581925,-0.6064998586852237
2.1949309484335675,19.481336260132846,-0.017779782800567235,0.8965098625202728,-0.6408027539823262
2.191568550061312,19.312711217256066,-0.017613884275807987,0.8784905888142697,-0.6761457489011096
2.1882352598910266,19.147500756905753,-0.01747338067456296,0.8605668885574275,-0.7124281473499982
2.1849263290965957,18.98568693855091,-0.017357469793130995,0.842736462546189,-0.7495502347801868
2.1816371652083935,18.827252249236107,-0.01726530797741889,0.8249971091885728,-0.7874130545267282
2.178363339639368,18.672179585177062,-0.017196013801799373,0.8073467230118779,-0.8259181827461086
2.175100594548538,18.520452233603354,-0.01714867136482995,0.7897832935534981,-0.864967500902217
2.1718448491131155,18.372053854774396,-0.017122333218565423,0.7723049046460524,-0.9044629647054461
2.1685922052775495,18.226968464092405,-0.017116022945286243,0.7549097341117567,-0.944306368352892
2.1653389530454556,18.08518041423271,-0.01712873739254214,0.7375960538850483,-0.9843991028504535
2.162081575378592,17.946674377207863,-0.017159448574444493,0.7203622305869932,-1.0246419071192094
2.1588167527658304,17.811435326277,-0.017207105244099147,0.7032067265800331,-1.0649346104977715
2.1555413675244437,17.679448517605856,-0.017270634138918217,0.6861281015372669,-1.1051758651483203
2.152252507896008,17.550699471575967,-0.01734894089724659,0.6691250145667974,-1.1452628667555274
2.1489474719998514,17.42517395363293,-0.017440910641244575,0.6521962269388485,-1.1850910617733357
2.145623771708296,17.30285795455395,-0.017545408217235898,0.635340605471495,-1.224553839323303
2.142279136509991,17.183737670003346,-0.01766127808070922,0.6185571266401163,-1.263542205678626
2.138911517430488,17.06779947923134,-0.017787343808794216,0.6018448814862649,-1.3019444390788455
2.1355190910829185,16.95502992275584,-0.017922407218256033,0.585203081413745,-1.3396457224105662
2.1321002639263136,16.845415678849044,-0.018065247061792748,0.5686310649735647,-1.3765277510586196
2.1286536768148316,16.7389435386298,-0.018214617269597565,0.5521283057553272,-1.41246831297989
2.1251782099280363,16.635600379538563,-0.018369244696668282,0.5356944215208679,-1.4473408377793742
2.1216729881805882,16.53537313694408,-0.018527826329104737,0.5193291847368612,-1.4810139112772478
2.118137387219345,16.438248773598804,-0.01868902589450828,0.503032534687072,-1.5133507517513085
2.1145710401271844,16.344214246623164,-0.018851469812443112,0.4868045913722974,-1.544208643728811
2.110973844965998,16.25325647165626,-0.019013742410570283,0.4706456714372078,-1.5734383248979102
2.1073459733065634,16.16536228376186,-0.01917438032032069,0.45455630639859446,-1.6008833214309457
2.103687879910637,16.080518394622516,-0.01933186595258978,0.43853726348921973,-1.626379226788918
2.1000003137509733,15.998711345490857,-0.019484619938610163,0.42258956947561055,-1.6497529189523301
2.0962843305784724,15.919927455294307,-0.019630992403500223,0.40671453785648964,-1.670821711062424
2.092541307272789,15.844152763207411,-0.01976925291948437,0.3909137999003079,-1.6893924307529529
2.088772958244073,15.771372964913667,-0.019897578961735746,0.3751893400338426,-1.7052604241432765
2.084981354189892,15.701573341676585,-0.02001404266122319,0.35954353614596873,-1.7182084817483798
2.0811689435537053,15.634738681228182,-0.020116595614428287,0.343979205416173,-1.7280056857301456
2.077338577080949,15.570853189364446,-0.020203051467215148,0.3284996563073851,-1.7344061813873883
2.0734935359276196,15.509900391015748,-0.020271065936252792,0.3131087473631275,-1.7371478811703729
2.0696375638468636,15.451863019443486,-0.02031811386117803,0.2978109533975017,-1.7359511176960634
2.0657749040653632,15.396722892115537,-0.02034146278619559,0.2826114395282844,-1.7305172745238202
2.0619103415690354,15.344460771754026,-0.020338142438306932,0.2675161432244841,-1.7205274417065428
2.058049251655775,15.295056211064146,-0.020304909280222275,0.25253186403740685,-1.7056411700948926
2.054197655795775,15.248487379796487,-0.020238205035569248,0.23766635983270284,-1.685495438020719
2.050362286089992,15.204730873152123,-0.02013410765688449,0.22292844695009056,-1.6597040020880158
2.046550659971149,15.163761501238962,-0.01998827254145984,0.20832809950424447,-1.6278573886626009
2.042771167309003,15.12555206052507,-0.019795860744284445,0.1938765395893566,-1.5895239060939947
2.039033172860703,15.09007309030164,-0.01955144923782382,0.17958630486779137,-1.5442522361785131
2.0353471382102755,15.05729262048984,-0.019248915503520266,0.1654712720985352,-1.4915764189115284
2.031724769237544,15.027175922301389,-0.018881284209444252,0.1515466035693831,-1.4310244045541554
2.0281791981912956,14.999685281092148,-0.018440516277380255,0.13782856705418708,-1.3621318402394844
2.0247252143481016,14.974779822190644,-0.01791720838781976,0.12433415822478892,-1.2844634013806095
2.0213795652159496,14.952415436426737,-0.017300150897989277,0.11108042876371944,-1.1976447392918235
2.0181613632246824,14.932544872643831,-0.016575659536402866,0.09808340053003424,-1.1014088310704642
2.0150926539069194,14.915118087262172,-0.015726543808469724,0.08535644559268915,-0.9956607115138724
2.012199235587198,14.900082957342892,-0.014730491135965865,0.07290807987341713,-0.8805631368090749
2.009511875699795,14.887386451679927,-0.013557507678802592,0.06073934815781996,-0.7566405211157597
2.007068161352282,14.876976268058026,-0.012165801242386901,0.0488415320727251,-0.6248862035939964
2.004915396406918,14.868802700147526,-0.010494882393023219,0.03719602487991443,-0.4868360056192532
2.0031153770891565,14.862819950478979,-0.008452689372886305,0.02578028742058805,-0.3445427455234318
2.0017532732278935,14.858984882988565,-0.005885246008829443,0.014588844057458075,-0.20036985954277708
2.0009598025411304,14.857246890982307,-0.0024670770097333047,0.0037058086399985295,-0.056552884935158004
