x,y,v_x,v_y,omega
2.375,32.48,0.0,3.4871794871794872,-3.1020408163265305
2.3740793937898217,31.757506725528426,-0.008767678192173153,3.3937088411211747,-2.8695192980962396
2.371476356683777,31.054171832173694,-0.016023151389206607,3.304718714638177,-2.6633558218783113
2.3674820568151755,30.36908938968794,-0.022017799740330777,3.219875975702368,-2.479719738542107
2.3623396096378233,29.701419934206353,-0.026957887663022893,3.138880743169887,-2.3154334525382554
2.3562526234942642,29.050383931766138,-0.031013408942300976,3.061462137213112,-2.1678466880830074
2.3493920859617985,28.415256063107876,-0.03432504374784947,2.987374707151274,-2.0347375380034025
2.341901941645108,27.79536020134292,-0.03700966403015321,2.916395404895942,-1.9142340648678025
2.333903631845394,27.190064978547273,-0.03916471501474468,2.8483210026816423,-1.8047517928042416
2.3254998060781538,26.59877985627435,-0.04087172086373357,2.7829658761080864,-1.7049435723869275
2.316777369500933,26.020951629813947,-0.04219910368122725,2.7201600901814897,-1.6136591432426093
2.307809995196714,25.456061307788204,-0.04320446112085715,2.6597477386350885,-1.5299123446714094
2.2986602032203147,24.903621318104054,-0.04393641484485028,2.601585496452057,-1.4528543931218414
2.2893810873665976,24.36317299891281,-0.04443611709531156,2.545541352988405,-1.381751998931197
2.280017754294226,23.834284339459067,-0.044738483593941177,2.491493498951965,-1.315969363454351
2.2706085268468312,23.31654794083015,-0.04487320638124871,2.43932934513297,-1.2549533032885085
2.261185953338127,22.809579170869682,-0.044865588939745946,2.388944654490549,-1.1982209065791778
2.2517776565927967,22.313014491068216,-0.04473723720625462,2.3402427721900763,-1.1453492489745665
2.2424070501934295,21.826509936223474,-0.04450663326391259,2.293133940617017,-1.0959667922676826
2.2330939443184636,21.34973973017848,-0.04418961316432946,2.2475346883829,-1.049746163522012
2.2238550594930007,20.882395023080463,-0.04379976612579705,2.2033672839791634,-1.0063980713117662
2.214704463301846,20.42418273742272,-0.04334876902805585,2.1605592460946106,-0.9656661622382663
2.2056539424682198,19.974824511689416,-0.042846667482669014,2.1190429037463696,-0.9273226578552418
2.196713320554163,19.53405573176193,-0.042302112651203566,2.078755000324919,-0.8911646416430581
2.1878907297896757,19.101624641400093,-0.04172256129629645,2.039636336454512,-0.8570108893232135
2.1791928441081403,18.677291524111347,-0.041114445194517735,2.0016314472478083,-0.8246991548403094
2.170625079293406,18.260827949588876,-0.040483314945812206,1.9646883101090717,-0.7940838397206902
2.1621917651796076,17.85201607865565,-0.03983396232845593,1.9287580797311725,-0.7650339859940481
2.1538962940490944,17.45064802131194,-0.039170524628812216,1.8937948473517543,-0.7374315430224672
2.145741248715265,17.056525243062055,-0.03849657378861224,1.8597554216947714,-0.7111698668811379
2.137728513230507,16.669458015203986,-0.03781519273288853,1.8265991293344772,-0.6861524177396928
2.1298593687044773,16.28926490521267,-0.03712904084834818,1.7942876324875932,-0.6622916262906875
2.122134576338267,15.915772303741889,-0.036440410258417384,1.7627847624722088,-0.6395079048912139
2.114554449462334,15.54881398511851,-0.03575127427427708,1.7320563672742626,-0.6177287829078025
2.1071189160995916,15.18823069851165,-0.035063329180412474,1.7020701718386992,-0.596888148930173
2.099827573350992,14.833869787233674,-0.03437803033006083,1.6727956498563104,-0.5769255851638418
2.092679734712103,14.485584833873801,-0.03369662337364268,1.644203905951985,-0.5577857815201617
2.08567447126966,14.143235329182524,-0.03302017131629019,1.6162675672982838,-0.5394180187719966
2.07881064759203,13.806686362819079,-0.03234957799447107,1.5889606837821542,-0.5217757116964554
2.0720869530129655,13.47580833424782,-0.03168560847281218,1.5622586359441302,-0.504816004433812
2.0655019289106233,13.15047668222472,-0.031028906787586703,1.536138049990151,-0.4884994113955534
2.0590539925008726,12.83057163145476,-0.030380011400517992,1.5105767192475739,-0.4727894979885179
2.052741457593092,12.515977955126239,-0.02973936867358207,1.4855535315002506,-0.4576525962143351
2.0465709554457447,12.206585379065345,-0.029027318444010904,1.4610424309844399,-0.44077908753468636
2.04054825801133,11.902287703613244,-0.028331704740894442,1.4370306685593686,-0.4247002143672197
2.0346699269727377,11.602981983412352,-0.027652400388554002,1.4135000000205422,-0.4093689665179847
2.0289325552937116,11.30856901451644,-0.026989234649788706,1.3904330370833868,-0.39474164241941173
2.023332775600925,11.018953159924823,-0.02634200051960419,1.3678131971224878,-0.38077757945616236
2.0178672671371323,10.734042185303412,-0.025710461040328467,1.3456246564147545,-0.36743890918995825
2.012532761477404,10.453747104186476,-0.02509435476660735,1.3238523066036738,-0.3546903349209002
2.0073260471753103,10.177982032009684,-0.024493400491430915,1.3024817141276943,-0.3424989293130175
2.002243973484118,9.90666404837648,-0.02390730132944583,1.2814990823790187,-0.33083395006621125
1.9972834532792219,9.639713067006788,-0.02333574824099421,1.260891216379975,-0.31966667184013986
1.992441465291643,9.377051712859682,-0.02277842306928268,1.2406454897829393,-0.30897023283203834
1.9877150557482435,9.118605205960716,-0.022235001153566917,1.2207498140167337,-0.29871949458346714
1.983101339501952,8.864301251500098,-0.021705153573018415,1.201192609417719,-0.28889091374358417
1.9785975007245575,8.614069935800487,-0.02118854906883544,1.1819627781976243,-0.27946242465131554
1.9742007932252985,8.367843627782907,-0.020684855686011583,1.1630496791126552,-0.2704133317180234
1.9699085404503283,8.125556885586555,-0.020193742170848124,1.1444431037097471,-0.26172421069786844
1.9657181352110433,7.887146368023242,-0.0197148791556762,1.1261332540360958,-0.2533768180267277
1.9616270391830817,7.652550750570175,-0.01924794015824364,1.108110721707415,-0.24535400749371036
1.9576327822123938,7.421710645625819,-0.018792602419735478,1.0903664682388379,-0.23763965358328532
1.9537329614600734,7.194568526772983,-0.01834854760236507,1.0728918065500748,-0.23021858089189742
1.9499252404135174,6.971068656811063,-0.017915462364832904,1.0556783835634624,-0.22307649908166519
1.9462073477878867,6.751157019335807,-0.017493038831649974,1.0387181638199154,-0.21619994288615904
1.9425770763386803,6.534781253660135,-0.017080974970316538,1.022003414043632,-0.20957621673009244
1.9390322816034944,6.321890592883424,-0.016678974888596293,1.0055266885917238,-0.20319334356665625
1.9355708805886191,6.112435804929664,-0.0162867490625968,0.9892808157298051,-0.19704001757375417
1.9321940430357294,5.906506185572791,-0.015873608583972403,0.971953654335664,-0.2170669109378813
1.9289008598172495,5.704203432119051,-0.015490041115837782,0.9547392356999507,-0.23891819242147438
1.9256851387722809,5.505504195397357,-0.015135873598147246,0.9376344473638187,-0.2624869346296962
1.9225407335036027,5.310385767327375,-0.014810843246408884,0.9206362961598124,-0.28766901873787293
1.9194615613780697,5.11882605638052,-0.014514605568189787,0.90374190333404,-0.31436290737186096
1.9164416199114642,4.930803564024931,-0.01424674173281543,0.8869485000525085,-0.3424694241516295
1.9134750016687743,4.746297362075424,-0.014006765340421851,0.8702534232761218,-0.3718915390321209
1.9105559078016041,4.565287070872365,-0.013794128632627476,0.8536541119911057,-0.4025341585941137
1.9076786603359162,4.387752838215995,-0.0136082281834478,0.8371481037838362,-0.43430392045067795
1.9048377133155607,4.213675318984812,-0.01344841010565232,0.8207330317512553,-0.4671089909418422
1.9020276628999913,4.0430356553682,-0.013313974804531977,0.8044066217402808,-0.5008588652912214
1.8992432565081774,3.875815457644727,-0.013204181307981436,0.7881666899118638,-0.5354641693934226
1.896479401094957,3.7119967854380747,-0.013118251198878484,0.7720111406276766,-0.570836462389856
1.8937311706409163,3.551562129382887,-0.013055372172938777,0.7559379646598199,-0.6068880391728335
1.8909938129322938,3.3944943931323266,-0.01301470124251374,0.7399452377264828,-0.6435317319331966
1.8882627557033933,3.240776875638332,-0.012995367604158715,0.7240311193591923,-0.680680709834735
1.8855336122105102,3.0903932536340477,-0.01299647518520305,0.7081938521101893,-0.7182482758588291
1.882802186303456,2.943327564245756,-0.013017104881978618,0.6924317611116277,-0.756147659814458
1.8800644770583712,2.799564187658852,-0.013056316499782308,0.67674325400174,-0.7942918064512702
1.8773166830336805,2.6590878297587928,-0.01311315040203387,0.6611268212369249,-0.8325931575460114
1.8745552062097586,2.521883504663556,-0.013186628873414102,0.645581036812951,-0.8709634267543377
1.8717766556721551,2.387936517058762,-0.013275757198998294,0.6301045594232012,-0.9093133659299094
1.8689778510981174,2.2572324442401666,-0.013379524458502315,0.6146961340872217,-0.9475525215095412
1.8661558261066467,2.129757117760679,-0.013496904031696406,0.5993545942888565,-0.9855889794458661
1.8633078315335023,2.005496604569988,-0.013626853807773882,0.5840788646700938,-1.0233290970361564
1.8604313386944522,1.884437187524501,-0.013768316087942958,0.5688679643345368,-1.0606772198462695
1.8575240427027158,1.7665653451329248,-0.013920217166689376,0.5537210108233179,-1.097535381760785
1.8545838659100506,1.6518677303886484,-0.014081466572978473,0.5386372248364708,-1.1338029860029313
1.851608961545341,1.5403311485234497,-0.014250955948064054,0.5236159357844787,-1.169376464759717
1.8485977176299895,1.4319425334979208,-0.014427557531475657,0.5086565882681688,-1.2041489148179
1.8455487612559707,1.326688923021699,-0.014610122221083424,0.49375874960059674,-1.2380097063647761
1.8424609633202431,1.2245574318708883,-0.014797477166797376,0.47892211850236877,-1.2708440618347767
1.839333443818444,1.1255352232402949,-0.014988422850338152,0.4641465351223323,-1.3025326013905507
1.8361655778116315,1.0296094778337448,-0.01518172959549532,0.4494319925590924,-1.3329508513195811
1.832957002192461,0.9367673603560327,-0.015376133444223202,0.4347786500857902,-1.3619687113117116
1.829707623391835,0.8469959830243283,-0.015570331323643176,0.4201868483113957,-1.3894498762710428
1.8264176261840337,0.7602823656642173,-0.015762975417323223,0.4056571265468033,-1.4152512080261868
1.823087483767926,0.6766133918950281,-0.01595266664084421,0.3911902426835538,-1.439222052064385
1.8197179693244725,0.5959757608398526,-0.016137947106332238,0.3767871959371569,-1.461203494270491
1.8163101692767982,0.5183559337166166,-0.01631729144294679,0.3624492528555548,-1.4810275526651768
1.812865498509215,0.4437400745770077,-0.016489096819750984,0.34817797704550135,-1.4985162994022028
1.8093857178363497,0.37211398435921694,-0.0166516714932524,0.3339752631239037,-1.513480908940465
1.8058729540538716,0.3034630273084957,-0.016803221673204357,0.3198433754543969,-1.525720629555207
1.802329722949301,0.23777204869677604,-0.0169418364655635,0.30578499227624284,-1.535021677489856
1.7987589557065071,0.17502528264203931,-0.01706547060866342,0.29180325586410455,-1.5411560565072426
1.7951640292028364,0.11520624869363161,-0.01717192466439037,0.2779018293588181,-1.5438803110073582
1.7915488007762719,0.058297635720883534,-0.017258822255272272,0.26408496085779976,-1.5429342291609225
1.7879176481359864,0.0042811715334778455,-0.01732358384268521,0.25035755521272646,-1.5380395250146008
1.7842755152097127,-0.046862523401813405,-0.017363396407539373,0.23672525369480893,-1.5288985472337782
1.7806279648758068,-0.09515409976225442,-0.017375178201088776,0.22319452116655544,-1.515193089962696
1.7769812397330658,-0.14061566213317178,-0.017355537444063294,0.20977273950883543,-1.496583422445088
1.7733423323436424,-0.18327097176343443,-0.017300723407588894,0.19646830458893114,-1.4727077147554033
1.7697190667868132,-0.2231456695250813,-0.017206567609830692,0.18329072171248315,-1.4431821262152802
1.766120193954976,-0.2602675178418181,-0.017068411740999653,0.17025069082788136,-1.4076019536445559
1.7625555039260934,-0.2946666579240542,-0.016881017105501786,0.15736016709816056,-1.3655444264440533
1.7590359601560315,-0.326375874732868,-0.01663844737127991,0.14463237393818926,-1.3165740086117415
1.7555738624797084,-0.3554308559749799,-0.016333911450843557,0.1320817331295437,-1.2602514536620286
1.7521830495431554,-0.3818704221542504,-0.015959545087757702,0.11972365905396642,-1.1961483868520129
1.748879157226866,-0.4057366911599729,-0.015506096019758542,0.10757414100053442,-1.1238698727673615
1.745679959375955,-0.42707512212447085,-0.014962454941297647,0.09564901104232423,-1.0430882145728924
1.7426058331817185,-0.44593435958203287,-0.01431493738476455,0.08396277426778737,-0.9535919029601616
1.7396804178024303,-0.4623657741798155,-0.013546161465598271,0.07252688856826162,-0.8553535747295541
1.7369315776244847,-0.47642258301340945,-0.012633268800551387,0.061347481275516015,-0.7486186625660699
1.7343928520496465,-0.4881584620850177,-0.011545070007432079,0.05042279559691244,-0.6340095049775162
1.7321056962759847,-0.49762569881523433,-0.010237365932203446,0.03974136373847159,-0.5126244013844106
1.7301230671323946,-0.5048732866861343,-0.008644816387702571,0.029283282651065168,-0.38608563953180114
1.7285155832124193,-0.5099461454980343,-0.006664554278729624,0.01902965841466006,-0.25646261042291496
1.727384094152581,-0.5128886052858377,-0.004111532005443519,0.008993768135821268,-0.12598980373941301
