x,y,v_x,v_y,omega
2.375,32.48,0.0,2.6153846153846154,-3.836734693877551
2.374263422357789,31.962431881226546,-0.0073657764221065685,2.560296572349878,-3.6240574081429964
2.3721496994314517,31.455689757627095,-0.013771452841271542,2.5071246636446416,-3.4287351774723613
2.368839007948527,30.95940134698896,-0.01933546198797167,2.455759442736681,-3.248908921581133
2.364489424085254,30.473215388752465,-0.024160376644762387,2.4061001396283044,-3.0829567327860032
2.359239860853227,29.99680000086846,-0.028335255675504385,2.3580537392117416,-2.9294592610995407
2.353212574615474,29.52984120832033,-0.03193760670202798,2.3115341862695375,-2.7871707660319447
2.346515310494533,29.072041620134755,-0.03503503450738417,2.2664616955862535,-2.6549948064764943
2.339243143990162,28.623119235581186,-0.037686630536322485,2.222762149949422,-2.531963745544369
2.3314800661218604,28.182806363370762,-0.03994414814669396,2.180366572154802,-2.4172214077798007
2.3233003513247756,27.7508486401818,-0.04185299982415284,2.1392106597348204,-2.3100083525203754
2.3147697407545755,27.327004136890636,-0.04345310587784737,2.099234373176803,-2.2096493272067192
2.3059464682876056,26.91104254257094,-0.04477961879185238,2.060381570020191,-2.1155425441363307
2.296882152096595,26.502744417717203,-0.04586354311825518,2.0225996785171683,-2.027150487989869
2.2876225710510982,26.101900509307253,-0.04673226733671211,1.9858394055823305,-1.9439920128553114
2.278208342187588,25.708311121289036,-0.04741002129839086,1.950054474599834,-1.86563552906008
2.268675512999207,25.321785534894744,-0.047918270585416874,1.9152013893431055,-1.7916931139203414
2.259056080216073,24.94214147387791,-0.04827605724592189,1.881239220825229,-1.7218154081058787
2.2493784450086967,24.56920461035913,-0.04850029482784501,1.8481294143625837,-1.655687181930555
2.239667813089173,24.2028081074709,-0.04860602436738782,1.8158356145196923,-1.593023474481643
2.2299465469584874,23.842792195426448,-0.04860663693946876,1.7843235059248237,-1.5335662238625631
2.2202344765138373,23.489003778012403,-0.04851406750703408,1.7535606682156435,-1.4770813195518002
2.210549173355019,23.141296066830673,-0.048338964081148704,1.7235164436016663,-1.4233560184621736
2.2009061933870773,22.799528240898212,-0.04809083559826798,1.6941618157229632,-1.372196675109081
2.1913192916858635,22.463565129461053,-0.047778181413871884,1.6654692986486097,-1.3234267436778118
2.181800613055915,22.133276916096335,-0.047408604885614616,1.6374128349985884,-1.2768850159723866
2.1723608612513154,21.80853886236715,-0.046988913160379085,1.6099677022932413,-1.2324240644376545
2.163009449437602,21.489231049464014,-0.0465252049767546,1.5831104267381302,-1.1899088638403856
2.1537546341361105,21.17523813641601,-0.04602294803815914,1.5568187037419179,-1.14921556891099
2.1446036346028503,20.866449133587537,-0.04548704729444339,1.5310713245428207,-1.1102304283977682
2.1355627393449033,20.562757190294548,-0.04492190528502616,1.505848108387065,-1.0728488186627565
2.126637401262481,20.264059395479627,-0.04433147553919568,1.4811298397621109,-1.036974382228643
2.1178412415620493,19.970258596164143,-0.043630121465123316,1.456878153392733,-0.9998267076096883
2.109186020753632,19.68126110070112,-0.04292208661904923,1.4330968012375145,-0.9643715384197064
2.1006728576395948,19.396974514814126,-0.0422095445213246,1.4097690576324053,-0.9305117681185725
2.0923024616256427,19.117309713161426,-0.041494415618196896,1.3868789588946147,-0.8981569158420326
2.0840751806397217,18.842180691315427,-0.040778394241009486,1.3644112595653635,-0.8672226025633163
2.075991043953077,18.571504426193556,-0.04006297262544261,1.3423513916533707,-0.8376300741938143
2.0680498004576906,18.30520074436435,-0.039349462328419765,1.320685426638677,-0.8093057669305015
2.0602509528909354,18.04319219769863,-0.0386390133391327,1.2994000400184889,-0.782180910674647
2.0525937884425414,17.785403945877135,-0.03793263114480597,1.2784824781964994,-0.7561911668010947
2.0450774061300017,17.531763645303997,-0.03723119198059327,1.257920527534891,-0.7312762969580943
2.037700741285368,17.282201344010087,-0.03653545646574448,1.237702485404188,-0.7073798599312782
2.0304625874583566,17.03664938216162,-0.03584608180436686,1.2178171330804908,-0.684448933917891
2.0233616160070933,16.795042297818313,-0.03516363270826656,1.1982537103525763,-0.66243386183397
2.016396393618156,16.55731673761175,-0.034488591181101744,1.1790018917130454,-0.6412880175223075
2.0095653979713393,16.32341137203862,-0.0338213652870675,1.160051764018269,-0.6209675909465758
2.0028670317413053,16.09326681508565,-0.03316229701327224,1.1413938055114603,-0.6014313906503261
1.9962996351077178,15.866825547923316,-0.03251166932260429,1.1230188661118707,-0.5826406619315948
1.9898614969271566,15.644031846424031,-0.03186971248300788,1.1049181488809834,-0.564558919337114
1.9835508647039057,15.424831712277559,-0.031236609749501647,1.0870831925837336,-0.5471517922168401
1.9773659534822738,15.209172807492259,-0.030612502466817727,1.0695058552692873,-0.5303868822016155
1.9713049537702845,14.997004392085145,-0.029997494653073754,1.0521782988018409,-0.5142336315759607
1.965366038593148,14.788277264777232,-0.02939165711829171,1.035092974277304,-0.4986632016157349
1.9595473697647448,14.582943706522837,-0.028795031165739518,1.0182426082666578,-0.4836483600479967
1.9538471034562808,14.380957426713042,-0.028207631918901355,1.0016201898312873,-0.46916337686899334
1.9482633951331607,14.182273511903944,-0.027629451312299845,0.9852189582597036,-0.45518392782679634
1.94279894550841,13.987031087225862,-0.0270150449352057,0.9672052885211262,-0.47803130848298636
1.9374537213401113,13.795380198268742,-0.026437196747781087,0.9493036010500638,-0.5025750751207085
1.9322204794428004,13.607298750846518,-0.025895222225328283,0.9315108731721898,-0.528704289212159
1.9270921200181732,13.422765243395713,-0.025388372020944433,0.9138242013358696,-0.556310514517353
1.9220616989835735,13.24175874358297,-0.02491583832505319,0.8962407967915647,-0.585287576234925
1.9171224390834043,13.064258865736626,-0.024476760676637475,0.8787579816718629,-0.6155313254649163
1.9122677398893522,12.890245749023322,-0.024070231263884526,0.8613731854611721,-0.6469394080114156
1.907491186788116,12.71970003629253,-0.0236952997484785,0.8440839418467357,-0.6794110365601506
1.9027865590488195,12.552602853513328,-0.02335097764448349,0.8268878859452786,-0.7128467652662889
1.8981478370564089,12.38893578972857,-0.02303624227962362,0.8097827519023071,-0.7471482657806238
1.8935692087920704,12.22868087745195,-0.02275004036376164,0.7927663708638935,-0.7822181037277562
1.8890450756370465,12.07182057343319,-0.022491291186476903,0.7758366693237219,-0.8179595146275345
1.8845700575721165,11.918337739715689,-0.02225888946282292,0.758991667851288,-0.8542761782204626
1.8801389978414764,11.768215624909512,-0.022051707843577552,0.742229480210482,-0.8910719901185655
1.8757469671467628,11.621437845600326,-0.021868599103559285,0.7255483128813924,-0.9282508296547165
1.8713892674345225,11.477988367811978,-0.021708398018843774,0.7089464650021045,-0.9657163227450388
1.8670614353385435,11.337851488436609,-0.02156992294094725,0.692422328751593,-1.0033715985099096
1.862759245337127,11.201011816541488,-0.02145197707321743,0.6759743901996078,-1.0411190383184847
1.8584787126846294,11.067454254456049,-0.02135334945175603,0.6596012306547935,-1.0788600158285728
1.8542160961764385,10.93716397853574,-0.021272815630154963,0.6433015285482869,-1.1164946264871047
1.8499679008070107,10.810126419491233,-0.021209138064122956,0.6270740618967868,-1.1539214048352744
1.8457308803817314,10.68632724216188,-0.021161066188669107,0.6109177113967411,-1.1910370278255686
1.8415020401451796,10.56575232460121,-0.021127336176848893,0.5948314642099758,-1.2277360022042356
1.8372786394909832,10.448387736329114,-0.021106670365115158,0.5788144185109767,-1.2639103338412576
1.8330581948218723,10.334219715590283,-0.021097776325994997,0.5628657888773171,-1.2994491766997525
1.8288384826328659,10.22323464544079,-0.021099345564068672,0.546984912617618,-1.3342384589274554
1.8246175428958602,10.115419028464409,-0.02111005180598677,0.5311712571461875,-1.3681604833245966
1.8203936828303173,10.010759459896754,-0.021128548849444203,0.515424428530372,-1.4010934991960935
1.8161654811524186,9.909242598908119,-0.021153467929540298,0.4997441813559762,-1.4329112423338581
1.8119317929040961,9.810855137764701,-0.021183414553684846,0.4841304300781965,-1.4634824396015904
1.8076917549739244,9.715583768551813,-0.02121696474803349,0.46858326205068274,-1.4926702743170832
1.8034447924342007,9.623415147101351,-0.0212526606492038,0.4531029524539505,-1.5203318083576123
1.7991906258328247,9.53433585371829,-0.021289005364556243,0.4376899813766825,-1.5463173566705448
1.7949292795951286,9.448332350246652,-0.021324457012403673,0.4223450533396996,-1.570469809681206
1.790661091709902,9.365390932953424,-0.021357421839864877,0.4070691195925772,-1.5926238989937536
1.7863867248958805,9.285497680638489,-0.021386246300349496,0.3918634035567646,-1.612605401837783
1.7821071794704069,9.208638397299225,-0.021409207954386226,0.3767294298358589,-1.630230280010276
1.7778238081713638,9.134798548589458,-0.02142450503604353,0.36166905726180254,-1.6453037497251854
1.7735383332175954,9.063963191214047,-0.02143024450164017,0.3466845164923312,-1.6576192799936669
1.7692528659327822,8.996116894293305,-0.02142442834649069,0.3317784527150895,-1.6669575191804555
1.7649699293044208,8.931243651617855,-0.02140493793712614,0.316953974039415,-1.673085152597518
1.7606924839049283,8.869326783598414,-0.021369516057798747,0.3022147061550052,-1.6757536989567556
1.7564239576684977,8.81034882760418,-0.021315746306506865,0.28756485378731417,-1.6746982610084538
1.752168280098847,8.754291415290332,-0.021241029389998365,0.27300926935114905,-1.669636256899912
1.747929921585083,8.701135135460397,-0.021142555747641855,0.2585535289481839,-1.6602661753799586
1.7437139386341147,8.650859381025871,-0.02101727376204155,0.24420401539709688,-1.6462664223881576
1.7395260260019583,8.603442178764684,-0.020861852559522578,0.2299680072147711,-1.627294362335764
1.7353725769443442,8.558860000921683,-0.020672638016617582,0.21585377121522284,-1.602985709612589
1.731260753143874,8.51708755835919,-0.020445599988084498,0.2018706544097083,-1.572954501863429
1.7271985663627076,8.478097576137053,-0.02017626782357817,0.18802916781167112,-1.5367939967526096
1.7231949746081443,8.441860554350502,-0.019859649722053486,0.1743410500538504,-1.4940789926851026
1.7192599967340758,8.408344520174893,-0.01949012901863181,0.16081929170224907,-1.4443703005279203
1.7154048511818352,8.377514781914048,-0.01906132650377595,0.1474780909061864,-1.3872224117001881
1.7116421273964217,8.349333703163666,-0.018565911350358406,0.1343326965976461,-1.322195843424904
1.707986003004176,8.323760525876263,-0.0179953325721003,0.12139907627637905,-1.2488762100159991
1.7044525271848798,8.300751285997148,-0.017339425620860452,0.10869332251479535,-1.1669027457632752
1.7010600025404914,8.280258884630452,-0.016585820823022457,0.09623069115216137,-1.0760096571101658
1.6978295168690327,8.262233399450139,-0.015719035891565297,0.08402416065097892,-0.976083921669824
1.6947857068381538,8.246622737987948,-0.014719064417222667,0.07208245397091369,-0.8672420726488821
1.6919578845278043,8.233373727732264,-0.013559158686274955,0.0604076485859337,-0.7499243197598263
1.689381738466778,8.222433667746635,-0.012202301923988544,0.04899295127033975,-0.6249942460052073
1.6871019679989812,8.213752159873483,-0.010595402753978488,0.03782212746117265,-0.49381364692985064
1.6851765460025678,8.207282572094773,-0.008658817210155628,0.026873750325926725,-0.3582369333875339
1.6836843547041571,8.202981483229912,-0.006263095773949739,0.016137138322684975,-0.22045187907193167
1.6827426829010639,8.200801386749983,-0.003153622256984612,0.005663826476599968,-0.08260990783691816
