x,y,v_x,v_y,omega
2.375,32.48,0.0,3.3846153846153846,-6.408163265306122
2.3735347348523397,31.84477155849856,-0.01542384365958159,3.301999789083953,-5.981275726598659
2.3693631567250426,31.2248999060539,-0.028487505048809727,3.2229649734914303,-5.597098898135128
2.362900697553854,30.61972879364224,-0.039538380963699604,3.14725726242078,-5.25009408837712
2.3545020745992074,30.028647728047666,-0.048868176453634705,3.074648691206314,-4.935574288478205
2.344470931678831,29.45108742573955,-0.05672280165559457,3.0049334383527766,-4.649554312162546
2.333067785705118,28.88651588369372,-0.06331031385716872,2.937924898971777,-4.388630589022859
2.320516609153498,28.334434958648224,-0.06880733405462498,2.87345325940186,-4.149884079669255
2.307010307473644,27.794377369525407,-0.07336426257541362,2.8113634682067485,-3.930801370957061
2.292715296048907,27.265904055258403,-0.0771095418955026,2.7515135240774633,-3.729210174570958
2.277775339537902,26.748601833599924,-0.0801531582203426,2.6937730196960192,-3.5432263162050464
2.2623147840584257,26.24208131676772,-0.08258953103729934,2.638021894327177,-3.3712099501967097
2.2464412873711703,25.74597504778202,-0.08449990777591337,2.5841493581538573,-3.2117292246998073
2.2302481322941348,25.25993582764166,-0.08595435619288369,2.532052959113107,-3.0635299969038767
2.2138161927780304,24.783635208480945,-0.08701342818715999,2.4816377688944273,-2.925510486129576
2.197215609465716,24.316762131851583,-0.08772955404773018,2.432815669309379,-2.7966999763321025
2.180507221441993,23.859021694508563,-0.08814821462303954,2.3855047237750413,-2.6762408543166805
2.163743792719417,23.410134026714626,-0.08830892982513075,2.3396286214242923,-2.563373407395866
2.1469710653910377,22.969833270242418,-0.0882460946841245,2.2951161835463147,-2.4574229129249887
2.1302286659952836,22.537866645043877,-0.08798968842907702,2.251900923806748,-2.3577886386214035
2.113550887234799,22.11399359504778,-0.08756587747075806,2.209920655099559,-2.2639344417134657
2.0969673635766752,21.697985004796617,-0.08699752945686312,2.169117137017926,-2.1753807105203147
2.080503656283831,21.289622479688525,-0.08630465257307192,2.1294357588567463,-2.091697436909057
2.0641817609656474,20.888697683484352,-0.08550477182886175,2.0908252538187333,-2.0124982444343043
2.0480205486941383,20.495011727502867,-0.08461325208176063,2.0532374407232132,-1.9374352265643267
2.0320361500331243,20.10837460658056,-0.08364357592891583,2.0166269900378846,-1.8661944735894402
2.016242289910139,19.728604677435477,-0.0826075832604007,1.9809512114893293,-1.7984921866537147
2.0006505800743386,19.355528175560956,-0.08151567816908038,1.9461698608740696,-1.7340712936894485
1.9852707748879976,18.988978767197814,-0.08037700800292806,1.9122449640010917,-1.6726984955308792
1.970110995361469,18.628797133301592,-0.07919961859211008,1.879140655959135,-1.6141616816698607
1.9551779256348418,18.274830582743526,-0.07799058905659675,1.8468230341257568,-1.5582676644165148
1.940476985512087,17.92693269226654,-0.0767561490776649,1.8152600235267435,-1.5048401879834918
1.9260124821471116,17.58496297096618,-0.07550178107997002,1.7844212533191488,-1.453718175498832
1.9117877435510497,17.248786547286088,-0.07423230940489192,1.7542779433133835,-1.4047541823924574
1.8978052362239874,16.918273876711893,-0.07295197824839651,1.7248027995729147,-1.3578130291762198
1.884066668902004,16.593300468519935,-0.07166451987774344,1.695969918237142,-1.3127705904948352
1.8705730841434485,16.27374663009081,-0.07037321442283971,1.6677546968063228,-1.269512720585756
1.8573249392497257,15.959497227434351,-0.06908094235318933,1.6401337522090171,-1.2279342980491261
1.8443221778196772,15.650441460695308,-0.06779023059469255,1.6130848450440822,-1.187938375175984
1.8315642930679743,15.346472653518163,-0.06650329310744278,1.5865868094521824,-1.1494354190810703
1.8190503838926915,15.047488055248117,-0.06522206663237631,1.56061948812726,-1.1123426335916595
1.8067792045519044,14.753388655033419,-0.06394824221801265,1.5351636720274457,-1.0765833523019286
1.794749208700876,14.464079006973922,-0.06268329305597063,1.5102010443883267,-1.0420864944519386
1.7829585884476473,14.179467065532428,-0.06142849908328134,1.4857141286800384,-1.0087860763633847
1.771414894221008,13.899466559073431,-0.060084071723448707,1.4616596235199344,-0.9737646011049463
1.7601242474602876,13.623994164373798,-0.05876484154728934,1.4380497943709392,-0.9402767099470407
1.749081848548371,13.352966850284776,-0.05747093647288502,1.4148693013029596,-0.9082375918190139
1.7382828826870789,13.086304436190193,-0.05620238838282395,1.3921034786400113,-0.8775680140175025
1.7277225369061129,12.823929467453421,-0.05495914615366021,1.3697382975365477,-0.8481938967110523
1.7173960147436986,12.565767097739663,-0.05374108713490975,1.3477603310293456,-0.820045924243227
1.707298548875988,12.311744977761343,-0.052548027262045716,1.3261567213740313,-0.7930591896830494
1.697425411939399,12.061793150029057,-0.05137972996520708,1.3049151494921516,-0.7671728694491994
1.6877719257612291,11.815843949222167,-0.050235914015528516,1.2840238063698375,-0.7423299251681912
1.678333469188549,11.573831907822068,-0.0491162604337356,1.2634713662627701,-0.7184768302222497
1.6691054846831386,11.335693666677528,-0.048020418570584256,1.2432469615745014,-0.6955633187045596
1.6600834838306546,11.10136789019575,-0.046948011455562606,1.2233401592863367,-0.6735421547320931
1.6512630518949938,10.870795185874972,-0.04589864049876367,1.2037409388270992,-0.6523689202729107
1.6426398515336387,10.643918027914772,-0.04487188962076164,1.1844396712802532,-0.6320018198287701
1.6342096257763994,10.420680684658901,-0.04386732887649448,1.1654270998341842,-0.6124015004777991
1.6259682003581486,10.2010291496427,-0.04288451763141044,1.1466943213889922,-0.5935308859282307
1.6179114854857377,9.984911076032944,-0.04192300734133575,1.12823276924003,-0.5753550233648361
1.610035477110064,9.772275714262495,-0.04098234398154417,1.110034196764684,-0.5578409419865202
1.6023362577661184,9.563073852675611,-0.04006207016525264,1.0920906620446056,-0.5409575222381485
1.594809997036641,9.357257761012097,-0.03916172698713912,1.074394513360813,-0.5246753748334378
1.5874529516886398,9.154781136569955,-0.03828085562340124,1.0569383755038488,-0.5089667287498773
1.58026146552637,8.955599052896765,-0.03741899871627879,1.0397151368455275,-0.4938053274522311
1.5732319689993837,8.759667910869773,-0.03657570156778965,1.0227179371228037,-0.4791663326691413
1.5663609785998043,8.566945392033752,-0.03575051316462668,1.0059401558879362,-0.4650262351085326
1.5596450960790644,8.377390414074064,-0.0349429870536858,0.9893754015824782,-0.45136277155265925
1.5530881024756802,8.191169653103834,-0.03407799824509465,0.9708431349462582,-0.4815959889965786
1.5466907444574967,8.00845975433996,-0.033262612472627344,0.9524189573050567,-0.5132882774052365
1.5404437396107769,7.82924044764388,-0.032495333282316304,0.9341000605484123,-0.546330883226257
1.5343380918280447,7.6534919858253225,-0.0317746433780223,0.915883748067966,-0.5806170872384065
1.5283650949235323,7.481195123785973,-0.031099008248424254,0.8977674312936061,-0.6160419636593679
1.5225163355960216,7.312331098284176,-0.030466879409582284,0.879748626620056,-0.6525021427753036
1.5167836958097132,7.146881608247007,-0.02987669728840272,0.8618249527185772,-0.6898955760646368
1.5111593546592101,6.984828795556766,-0.029326893769523372,0.843994128231315,-0.7281213027821392
1.5056357897806896,6.826155226239159,-0.028815894425429655,0.8262539698487698,-0.7670792169549953
1.5002057783678104,6.670843871979997,-0.02834212044698368,0.8086023907739716,-0.8066698337196916
1.494862397847894,6.518878091896347,-0.027903990288975052,0.7910373995802277,-0.8467940538969453
1.4895990262713794,6.370241614486307,-0.02749992104275894,0.7735570994728299,-0.8873529256609451
1.484409342465494,6.224918519679342,-0.027128329545509228,0.756159687968922,-0.9282474021083204
1.4792873260015305,6.0828932209059765,-0.026787633233054962,0.7388434570138894,-0.9693780934707967
1.4742272570240276,5.94415044710172,-0.026476250740659596,0.7216067935572181,-1.01064501264263
1.4692237159895907,5.80867522455528,-0.026192602253414268,0.7044481806158476,-1.051947312608744
1.46427158336303,5.676452858505197,-0.025935109605116722,0.6873661988587207,-1.093183014261037
1.4593660393189958,5.547468914382122,-0.025702196121561334,0.6703595287525957,-1.134248722977502
1.454502563498349,5.421709198585571,-0.025492286201034935,0.6534269533163644,-1.1750393322104593
1.4496769348702125,5.2991597386742875,-0.02530380462145545,0.6365673615392521,-1.215447712185191
1.444885231752978,5.179806762837945,-0.025135175559959238,0.6197797525275079,-1.2553643816473967
1.440123832050637,5.063636678504633,-0.024984821306786118,0.6030632404547145,-1.2946771604161327
1.4353894137646503,4.950636049923162,-0.0248511606509702,0.5864170604028599,-1.333270800297356
1.4306789558463056,4.84079157454136,-0.024732606910553977,0.5698405751950514,-1.3710265916914306
1.4259897394602037,4.734090057980865,-0.024627565574728307,0.5533332833364689,-1.4078219429860708
1.4213193497362637,4.630518387385074,-0.02453443151937694,0.5368948281981598,-1.4435299295653412
1.41666567809559,4.530063502889355,-0.024451585750874395,0.5205250085988723,-1.4780188089880963
1.4120269252448308,4.4327123669309145,-0.024377391625537537,0.5042237909636657,-1.511151498600454
1.40740160494445,4.338451931079202,-0.024310190483733188,0.4879913232648748,-1.5427850115546484
1.4027885486688219,4.247269100025797,-0.024248296628141347,0.47182795098149133,-1.572769846923744
1.3981869112904848,4.159150692324545,-0.02418999156487904,0.4557342353474614,-1.600949329347947
1.3935961779375035,4.074083397417727,-0.024133517413874192,0.4397109741979995,-1.6271588934533219
1.3890161721920138,3.9920537284211655,-0.024077069380753092,0.42375922576579134,-1.6512253081915917
1.3844470658200536,3.9130479700699823,-0.024018787166194922,0.40788033582559846,-1.6729658363249627
1.3798893902481426,3.8370521211461863,-0.023956745169713047,0.39207596863540956,-1.6921873246167503
1.3753440500313863,3.7640518306193727,-0.023888941322457485,0.37634814217314855,-1.7086852210238033
1.3708123385918454,3.694032326632321,-0.023813284356919852,0.36069926821686016,-1.7222425165185034
1.366295956545489,3.6269783373552222,-0.023727579288934965,0.34513219785785426,-1.7326286113833453
1.3617970329825773,3.5628740026178676,-0.023629510846978025,0.3296502730616598,-1.7395981093348596
1.3573181501215563,3.501702775112772,-0.023516624532189397,0.3142573848867041,-1.7428895482469091
1.3528623718231476,3.4434473098517806,-0.023386304924743608,0.2989580389132101,-1.742224084427031
1.3484332765330873,3.3880893404674346,-0.023235750760102054,0.28375742829042006,-1.7373041596165857
1.34403499532477,3.3356095408998883,-0.023061946169553284,0.26866151452586573,-1.7278121979693666
1.3396722558458636,3.285987371034608,-0.022861627292620337,0.2536771156349704,-1.7134094068749206
1.3353504331499313,3.239200905009387,-0.022631243190877712,0.23881200041998943,-1.6937347944893655
1.3310756086377757,3.195226641273866,-0.022366909568653715,0.22407498626971306,-1.668404573789853
1.326854638679892,3.154039294187534,-0.022064353145910806,0.20947603569166875,-1.6370122058720464
1.3226952350000756,3.1156115681731364,-0.02171884348373534,0.19502634340725056,-1.5991294553840578
1.3186060596672695,3.0799139174839283,-0.02132510738790825,0.18073840068968672,-1.5543090041131715
1.3145968387263705,3.046914297904692,-0.020877218305766512,0.16662601593385845,-1.5020894156667157
1.3106785003589765,3.0165779217621598,-0.020368448719433593,0.1527042592506799,-1.4420035905907997
1.30686334642865,2.988867035232083,-0.019791066336634407,0.13898928317116913,-1.3735923237011753
1.303165271028622,2.9637407480043407,-0.019136043137346237,0.12549795080504683,-1.2964251881387834
1.2996000473381701,2.941154960731499,-0.018392627288460698,0.11224717838277448,-1.2101316912741757
1.2961857164977404,2.9210624554221667,-0.017547697347642627,0.09925287750494464,-1.1144463173516863
1.2929431321319789,2.9034132357626525,-0.0165847696603734,0.08652838206887,-1.009271240926408
1.2898967459336996,2.8881552201348057,-0.015482453479408458,0.07408230875055677,-0.8947591288016575
1.2870757704618625,2.875235379413418,-0.014212025171508415,0.0619160146324843,-0.7714135389503385
1.2845159389381706,2.864601331762522,-0.012733569814721022,0.05002132906117372,-0.6401929130285473
1.2822622363184253,2.8562031808812485,-0.010989615656283449,0.03838025916276731,-0.5025834756784259
1.2803733385839073,2.8499948841146434,-0.008893518391273357,0.026970233117274787,-0.36057970102730846
1.2789296701898387,2.845933351853322,-0.006302991019976175,0.015782738054529486,-0.21649477092172245
1.2780525440616761,2.843969946550107,-0.002929915592261064,0.004884686189831369,-0.0725471105437876
