x,y,v_x,v_y,omega
2.375,32.48,0.0,2.871794871794872,-2.7346938775510203
2.3742089595225706,31.82771958368648,-0.006878612847210731,2.800208748322659,-2.5477572355020626
2.3719612718545955,31.19154733701111,-0.012666497309097677,2.731723831463198,-2.3799738447398275
2.3684887467887425,30.570794284406993,-0.017529372828751687,2.6661287998769327,-2.2288085680931036
2.363988208417808,29.96481782332066,-0.021605743440245295,2.603231731308554,-2.0921215549770187
2.35862719193986,29.3730175262139,-0.02501179115060881,2.5428578087502394,-1.9680984196740006
2.3525486254335175,28.794831431005445,-0.027845308904540227,2.484847366975471,-1.8551941033912582
2.345874693955711,28.229732748789665,-0.030188877858996432,2.4290542175095493,-1.7520874829877635
2.3387100416538202,27.67722693037134,-0.032112446505271786,2.375344203519384,-1.6576444736640032
2.331144435429078,27.13684904315623,-0.03367543370987709,2.323593946177222,-1.5708878852675343
2.3232549887022715,26.60816141789919,-0.034928450871047005,2.2736897517100627,-1.4909726786150546
2.315108024296921,26.090751531215254,-0.03591471787113357,2.2255266542372016,-1.417165562398002
2.3067606400922487,25.584230094958663,-0.03667123173471125,2.1790075740809858,-1.3488280965754669
2.2982620289519056,25.088229327832927,-0.037229734703057314,2.1340425748384604,-1.285402641913239
2.289654594782561,24.602401388109932,-0.03761751894341531,2.0905482053615088,-1.2264006301392791
2.2809748988703182,24.12641694925867,-0.03785809768478119,2.0484469150842357,-1.1713927343917294
2.272254464462463,23.65996390273043,-0.037971766731352156,2.00766653298742,-1.1200006021887914
2.263520462584106,23.2027461742072,-0.037976075689144496,1.968139801997165,-1.0718898782649753
2.254796298053512,22.754482641364635,-0.03788622457689192,1.9298039618512282,-1.0267642962325818
2.246102111391572,22.31490614268569,-0.03771539857041063,1.8926003744874362,-0.9843606591323841
2.2374552096576226,21.88376256813109,-0.03747505129002024,1.8564741868569263,-0.9444445618199866
2.228870437065889,21.46081002356354,-0.037175145159837455,1.8213740267739214,-0.9068067345518512
2.220360494449748,21.045818061763455,-0.036824355850081134,1.7872517280094369,-0.8712599084457879
2.2119362151697852,20.63856697368835,-0.036430246584380606,1.7540620813393015,-0.8376361207496982
2.203606803846642,20.23884713433572,-0.03599941709512707,1.7217626086835491,-0.8057843918828709
2.195380043293242,19.846458398185774,-0.03553763119530627,1.6903133578377219,-0.7755687176616458
2.1872624741848665,19.46120953973957,-0.03504992626882644,1.6596767156075254,-0.7468663294941196
2.1792595513089896,19.08291773514081,-0.03454070743445143,1.6298172374251851,-0.7195661830287712
2.171375779654876,18.711408081285,-0.034013828688276314,1.6007014917557938,-0.6935676420886258
2.163614833115548,18.346513149186002,-0.03347266295805319,1.5722979178006922,-0.6687793299703133
2.1559796581654447,17.98807256869354,-0.03292016269502085,1.544576695177233,-0.645118124539688
2.1484725645325637,17.635932641941686,-0.03235891237350599,1.5175096244041109,-0.6225082771760535
2.1410953045931698,17.289945983162724,-0.031791174056006816,1.4910700171520654,-0.6008806386372256
2.133862308548362,16.94997219162305,-0.031104443724929653,1.4652238223233747,-0.57700484774364
2.126786357398395,16.61587645698738,-0.030425566274786195,1.4399564788563632,-0.5543497464077866
2.1198655360651792,16.287528263163264,-0.029755488796653396,1.415245206570749,-0.5328371698666464
2.1130977309618717,15.964802200386313,-0.02909499036254281,1.3910683827940566,-0.5123949051921779
2.106480666097114,15.647577707441837,-0.028444704113611975,1.3674054688970334,-0.49295616705016054
2.100011934424786,15.335738830146113,-0.027805136515326512,1.344236942370124,-0.47445912571875126
2.093689025047703,15.029173994868515,-0.02717668415496195,1.3215442339568084,-0.456846481564944
2.0875093468033583,14.727775795981604,-0.02655964840455488,1.2993096694076431,-0.44006508088543544
2.0814702486906347,14.431440796221647,-0.025954248227823416,1.277516415461539,-0.42406556863257244
2.075569037536715,14.140069339028205,-0.025360631371482333,1.25614842969884,-0.40880207407960356
2.0698029932518844,13.8535653720092,-0.024778884148779382,1.2351904139446752,-0.3942319259438045
2.064169381975334,13.571836280748457,-0.02420903999513893,1.2146277709313529,-0.38031539389088653
2.0586654673764344,13.294792732236449,-0.023651086951814882,1.194446563955674,-0.3670154536976651
2.0532885203424995,13.022348527263045,-0.023104974212835836,1.174633479291316,-0.3542975736592781
2.0480358272549544,12.754420461163647,-0.022570617852773655,1.1551757911382325,-0.34212952009827824
2.0429046970305658,12.490928192358034,-0.022047905837561915,1.1360613289105914,-0.3304811800708039
2.037892467082398,12.231794118164842,-0.02153670240737787,1.1172784466823753,-0.3193243995741396
2.0329965083359935,11.976943257414419,-0.021036851909179134,1.0988159946256448,-0.3086328357440644
2.028214229419579,11.72630313941903,-0.020548182146599526,1.0806632922907666,-0.29838182169270017
2.023543080132491,11.479803698892646,-0.020070507306339632,1.0628101035908328,-0.2885482427808856
2.0189805542832957,11.23737717644282,-0.01960363051275253,1.045246613364186,-0.2791104232458236
2.0145241919779044,10.998958024284992,-0.019147346055865783,1.0279634053995361,-0.27004802221695734
2.0101715814282466,10.764482816855004,-0.018701441332463025,1.0109514418177443,-0.26134193825251795
2.0059203603434934,10.533890166018963,-0.018265698534957003,0.9942020437130463,-0.2529742216175147
2.0017716964437855,10.307218005809265,-0.017809639723371296,0.9768602189799792,-0.26189948175057276
1.997725135118538,10.08451975042372,-0.01737785006138944,0.9596463495899866,-0.27316437517241676
1.993775030864088,9.865766409747174,-0.016970882586002364,0.9425566128147476,-0.2866416527059863
1.989915628620855,9.650929854957962,-0.01658913692037093,0.9255873418740405,-0.30220817713763337
1.9861410975463163,9.43998278351151,-0.016232872423445198,0.9087350185298697,-0.31974462892345573
1.9824455618841523,9.23289868576456,-0.01590222029102361,0.8919962662262036,-0.33913522377930283
1.97882312916162,9.029651813117933,-0.015597194687517734,0.8753678437444768,-0.3602674409678538
1.9752679159297255,8.83021714756227,-0.015317702981131762,0.8588466393482492,-0.3830317611471593
1.9717740712447476,8.634570372516968,-0.015063555149110385,0.8424296653935035,-0.40732141268806615
1.9683357980749783,8.442687844857552,-0.014834472414101968,0.8261140533840217,-0.4330321254032701
1.9649473728030964,8.254546568031163,-0.014630095167478215,0.8098970494541496,-0.46006189065856323
1.9616031629823172,8.07012416616357,-0.014449990230602899,0.7937760102640624,-0.4883107268572577
1.958297643493239,7.889398859064229,-0.014293657500509973,0.7777483992954102,-0.517680449301808
1.9550254112381278,7.7123494380383875,-0.014160536022197424,0.7618117835379958,-0.5480744434422629
1.9517811985001159,7.5389552424170105,-0.014050009525731547,0.7459638305609289,-0.579397440519218
1.9485598850864632,7.369196136716578,-0.013961411462552633,0.7302023059645683,-0.6115552945991894
1.9453565093675191,7.203052488341211,-0.013894029571744125,0.7145250712125318,-0.6444547599824658
1.9421662783163613,7.040505145739459,-0.013847110003540768,0.6989300818461616,-0.6780032679371291
1.938984576648197,6.881535416927129,-0.013819861023975023,0.6834153860871389,-0.7121087016775374
1.9358069751534948,6.726125048285798,-0.013811456321262747,0.6679791238374854,-0.74667916846054
1.9326292383144525,6.5742562035441345,-0.0138210379312762,0.6526195260900257,-0.7816227676173105
1.9294473312907916,6.425911442845624,-0.01384771879621084,0.6373349147665998,-0.8168473532721016
1.9262574263579895,6.28107370180178,-0.013890584967286946,0.6221237030059499,-0.8522602904204832
1.9230559088789665,6.139726270424333,-0.013948697459000292,0.6069843959283816,-0.8877682029476217
1.9198393828888953,6.001852771822911,-0.014021093759008093,0.5919155919100855,-0.9232767120606848
1.9166046763722806,5.8674371405465,-0.014106788994163759,0.5769159844065339,-0.9586901634871723
1.9133488463117652,5.736463600436995,-0.014204776749449623,0.5619843643717638,-0.993911341651417
1.9100691835893353,5.608916641851433,-0.014314029532548568,0.54711962332877,-1.0288411688831558
1.9067632178227563,5.484780998095701,-0.01443349887248593,0.532320757155848,-1.063378387533349
1.903428722223269,5.364041620896334,-0.014562115036097695,0.5175868706647387,-1.0974192226717971
1.9000637185649067,5.246683654718094,-0.014698786340967818,0.5029171830590777,-1.1308570228171662
1.8966664823613433,5.132692409713037,-0.014842398037844928,0.48831103437621143,-1.1635818759016958
1.893235548353121,5.02205333306107,-0.01499181072930441,0.4737678930322148,-1.1954801973996285
1.8897697164165381,4.9147519784322995,-0.0151458582844606,0.45928736460928166,-1.2264342872506746
1.8862680580156255,4.8107739732668335,-0.01530334520173477,0.4448692020469522,-1.2563218518895594
1.8827299233306918,4.710104983527639,-0.015463043362908152,0.4305133174243089,-1.2850154873541022
1.8791549492111033,4.612730675535619,-0.015623688111773039,0.4162197955497774,-1.3123821190950788
1.875543068116613,4.518636674442366,-0.015783973579447035,0.40198890960896244,-1.3382823937641886
1.871894518230932,4.427808518833995,-0.015942547165606828,0.3878211391594688,-1.3625700179323492
1.8682098549538084,4.340231610888054,-0.016098003070248584,0.37371719080524257,-1.3850910384210648
1.8644899640040493,4.2558911614233,-0.016248874753743484,0.3596780219317621,-1.4056830587630178
1.8607360763962686,4.1747721290883675,-0.016393626183481166,0.3457048679371992,-1.4241743863166838
1.856949785589359,4.096859152828539,-0.01653064170268733,0.3317992734526168,-1.440383104851219
1.8531330671455712,4.022136476649472,-0.016658214330251057,0.31796312810448674,-1.454116068151134
1.849288301286721,3.9505878655628095,-0.016774532268446926,0.3041987074317139,-1.4651678115997973
1.8454182987898413,3.882196511451788,-0.016877663356593114,0.2905087196206448,-1.4733193811316105
1.8415263307303884,3.816944927438634,-0.016965537160389187,0.2768963587546181,-1.4783370829024416
1.837616162659573,3.754814829175558,-0.017035924324960774,0.2633653652721387,-1.4799711632638815
1.8336920938973067,3.6957870013291476,-0.017086412738226198,0.24992009426186604,-1.4779544382403003
1.829759002739312,3.6398411474033843,-0.017114379939989172,0.23656559204912841,-1.4720009063229031
1.8258223985249273,3.5869557209822354,-0.01711696105465945,0.223307681178261,-1.461804400410368
1.8218884817047756,3.537107736521861,-0.017091011294486688,0.21015305325977135,-1.447037367682506
1.8179642133069231,3.490272558069563,-0.01703306173031572,0.1971093680645541,-1.42734991531348
1.8140573955625015,3.446423664864877,-0.016939266482046893,0.18418535545446782,-1.4023693328840106
1.8101767659765922,3.4055323938942195,-0.01680533861281811,0.17139091385561,-1.3717004103110955
1.806332107916901,3.3675676614402015,-0.01662647060188541,0.15873719444020137,-1.3349270291112614
1.8025343820082045,3.332495668964615,-0.016397232951998644,0.14623665317358017,-1.2916157372243744
1.7987958845461214,3.3002796039842224,-0.016111440631332626,0.13390304230808395,-1.2413223531042408
1.7951304422545538,3.2708793549127826,-0.01576197059969082,0.12175129744356351,-1.183603118681698
1.791553657807483,3.2442512714114677,-0.015340502853096407,0.10979725474177524,-1.1180325650367064
1.7880832289572663,3.2203480199962122,-0.014837139322700265,0.09805710539089013,-1.0442310691072412
1.7847393780737377,3.1991186093574626,-0.014239824881897394,0.08654646538085939,-0.9619059588902952
1.781545452009481,3.1805086896122283,-0.01353344524207557,0.07527892370814099,-0.8709105895206016
1.7785287902795428,3.1644612565761,-0.012698395887819423,0.06426397225817977,-0.7713250773077265
1.7757220221934626,3.1509178930395763,-0.011708283121574625,0.05350440632029957,-0.6635582221466533
1.773165059118051,3.1398206009702925,-0.010526178403743562,0.04299378558650158,-0.5484589160807105
1.770908243991299,3.1311140187524167,-0.009098300959317834,0.03271562500370931,-0.42740302174724015
1.7690175779607067,3.1247471954181734,-0.007342273219745907,0.02264805616360865,-0.30228979266062794
1.7675844477195537,3.120672680673632,-0.005119728877235798,0.012782506832388124,-0.1753578887935425
1.7667498395866672,3.118835862337999,-0.002137733147863916,0.0031898265209313343,-0.04875331546840414
