x,y,v_x,v_y,omega
2.375,32.48,0.0,3.128205128205128,-6.653061224489796
2.3734535358296327,31.861864681652293,-0.015464641703673739,3.0531480552719255,-6.22040143956251
2.3690452746840185,31.25842137185775,-0.028617969752466704,2.981285042673479,-5.829928083029861
2.3622042554049076,30.669053801096574,-0.039792223038642625,2.912390664938281,-5.4762924741063115
2.3532982870727643,30.093188476570152,-0.04926746028278887,2.8462625803259476,-5.154952688132738
2.3426434720179246,29.530290391773253,-0.0572806902656099,2.782718267643035,-4.8620337682089385
2.330512081507624,28.979859329115154,-0.06403321483739952,2.721592358937977,-4.594215299787899
2.317139102376476,28.441426649514327,-0.06969657647407905,2.662734437070279,-4.348640357254693
2.3027277041138765,27.91455248581111,-0.07441740615191571,2.6060071999618857,-4.122841287393683
2.2874538237529927,27.39882327410353,-0.07832139745691907,2.5512849171139163,-3.9146788608800365
2.2714700258775475,26.893849570253064,-0.08151658129753324,2.4984521213907516,-3.72229211337373
2.254908764040969,26.399264108916952,-0.08409603706825051,2.4474024919703488,-3.544056790321114
2.237885145634737,25.914720070319404,-0.08614014699407281,2.398037894005154,-3.3785507582557766
2.220499283120639,25.439889526136707,-0.08771847814690348,2.3502675478218045,-3.2245250883143206
2.2028382993579476,24.974462040750566,-0.08889135948001517,2.3040073060396096,-3.080879782006023
2.1849780426203207,24.518143408020855,-0.0897112078962517,2.2591790212575193,-2.946643314607507
2.1669845571386195,24.070654506867946,-0.09022364692075947,2.2157099902715784,-2.8209553322093117
2.1489153471157874,23.63173026150319,-0.09046845330756423,2.1735324633759623,-2.703051964978023
2.130820465748568,23.201118694231187,-0.09048036036462871,2.1325832093440646,-2.592253319476289
2.1127434555566826,22.778580060465767,-0.0902897415542243,2.0928031283101354,-2.4879527928084495
2.094722162028564,22.36388605702751,-0.08992319372696245,2.0541369060724377,-2.389607915403665
2.0767894390599517,21.956819095981487,-0.08940403595915962,2.0165327043877985,-2.2967324808239886
2.0589737617424864,21.55717163727477,-0.08875273721549486,1.9799418826793551,-2.208889762714689
2.0412997596388034,21.16474557427925,-0.08798728382133268,1.9443187472758228,-2.125686652927282
2.0237886816667117,20.779351667064297,-0.08712349589958517,1.9096203248737396,-2.0467685825217306
2.0064588020342025,20.40080901883806,-0.0861753004255063,1.8758061573886107,-1.971815110029643
1.989325775260036,20.028944591523608,-0.08515496731616042,1.842838115755943,-1.9005360800085285
1.9724029471334839,19.66359275689062,-0.08407331394935928,1.8106802305739467,-1.832668270308315
1.9557016274725822,19.304594880057415,-0.08293988265965865,1.779298537758096,-1.7679724592177302
1.9392313297011619,18.95179893252028,-0.081763095054546,1.7486609376132538,-1.706230854248682
1.9229999815550571,18.605059132166033,-0.0805503864065002,1.7187370659292145,-1.647244833143637
1.9070141106258691,18.26423560798547,-0.07930832288538102,1.6894981758764072,-1.5908329550699696
1.8912790079389539,17.929194087435334,-0.07804270398376895,1.6609170296249838,-1.5368292061516404
1.8757988723264047,17.599805604599172,-0.07675865214172298,1.6329677987366265,-1.4850814486895316
1.860576937983655,17.275946227476773,-0.07546069128577518,1.6056259724873558,-1.4354500478059873
1.8456155872800095,16.95749680289063,-0.07415281575068,1.5788682733741002,-1.387806652954406
1.8309164506205449,16.64434271763922,-0.07283855084396489,1.5526725791399878,-1.3420331148740778
1.816480494922499,16.336373674652716,-0.0715210061364931,1.5270178507250747,-1.2980205212367295
1.8023081020676563,16.033483483019005,-0.07020292241193433,1.501884065612036,-1.2556683365010315
1.788399138518462,15.73556986084865,-0.06888671308000673,1.4772521560915086,-1.214883633428001
1.7747673555391015,15.442537902725451,-0.06743111671360164,1.4530674251404607,-1.1714613303653898
1.761424461672621,15.154296028047824,-0.06599782195120281,1.4293513216358271,-1.1300097300851932
1.7483659203291908,14.870752180124867,-0.0645875914830987,1.4060871575937561,-1.0904161294129175
1.7355870595399308,14.591817563620666,-0.06320101640950201,1.3832590074482516,-1.0525754939486343
1.7230831041260095,14.317406496468166,-0.06183853772971001,1.3608516640767323,-1.0163898531771778
1.710849203822088,14.047436270274659,-0.06050046530950609,1.3388505978583587,-0.9817677496691698
1.6988804578282988,13.781827018636768,-0.05918699462838655,1.3172419185205557,-0.9486237369759165
1.6871719362084092,13.520501592829536,-0.05789822157050681,1.2960123395517773,-0.9168779214145825
1.6757186985023071,13.263385444376478,-0.05663415549051479,1.2751491449788044,-0.8864555434622268
1.6645158098775572,13.010406514046096,-0.055394730756984374,1.2546401583250313,-0.8572865949375337
1.6535583551067197,12.761495126855344,-0.05417981695139113,1.2344737135825044,-0.8293054685553338
1.6428414506236824,12.51658389269258,-0.05298922787898223,1.2146386280451502,-0.8024506367981473
1.6323602548828788,12.275607612201679,-0.05182272952905288,1.1951241768638554,-0.7766643573669028
1.6221099772194054,12.038503187595694,-0.050680047105682594,1.1759200691959777,-0.7518924027548171
1.612085885385278,11.805209538092832,-0.049560871235589964,1.1570164258326536,-0.7280838117385924
1.6022833119170028,11.575667519689866,-0.048464863447162145,1.1384037581970061,-0.7051906608034542
1.5926976594719198,11.349819849008647,-0.04739166100366925,1.1200729486151917,-0.6831678537164527
1.5833244052551545,11.127611030970105,-0.04634088116398346,1.1020152317702292,-0.6619729276388053
1.574159104645195,10.9089872900675,-0.045312124935612326,1.084222177255824,-0.6415658743253994
1.5651973941138961,10.693896505026515,-0.044304980377374736,1.0666856731540137,-0.6219089751001284
1.556434993525912,10.482288146654465,-0.04331902550246611,1.0493979105664724,-0.6029666484214338
1.5478677078929794,10.274113218694339,-0.04235383082686278,1.0323513690347943,-0.584705308964974
1.5394914286500025,10.06932420151185,-0.04140896160290642,1.015538802790076,-0.56709323725123
1.5313021345123716,9.867874998455175,-0.040483979773402054,0.9989532277766798,-0.5501004589363868
1.523303902229102,9.669897212243317,-0.03949834305929602,0.9808246343418968,-0.5690161661563308
1.5154980872284756,9.475533565004834,-0.0385598069469651,0.9628118380429377,-0.5897944544851998
1.5078753751850464,9.284761215200533,-0.03766731348732814,0.9449116600000937,-0.6123176719747064
1.5004266686393328,9.097557944282823,-0.03681975196980587,0.9271210491770018,-0.6364710894440322
1.4931430969504818,8.913902131620809,-0.03601596491870753,0.9094370774431483,-0.6621426383660175
1.4860160251036043,8.733772730368884,-0.03525475355006677,0.8918569350761085,-0.689222655962477
1.4790370614758381,8.55714924419242,-0.034534882727594446,0.8743779266885255,-0.7176036364354057
1.4721980646577872,8.384011704766799,-0.03385508545291549,0.8569974675676694,-0.7471799872819337
1.4654911494203,8.214340649968207,-0.03321406692195609,0.8397130804182387,-0.7778477896543171
1.4589086919104823,8.04811710267619,-0.03261050817621967,0.8225223925019125,-0.8095045617320137
1.4524433341553895,7.885322550108995,-0.03204306937471026,0.8054231331700582,-0.8420490240709019
1.446087987946978,7.725938923613089,-0.03151039270940545,0.7884131317889904,-0.8753808658847891
1.4398358381775949,7.569948578828161,-0.031011104984423714,0.7714903160602963,-0.9094005111962778
1.4336803456915177,7.417334276147926,-0.03054381987634894,0.7546527107420334,-0.9440088837674809
1.4276152497148287,7.268079161395711,-0.03010713989054289,0.7378984367801176,-0.9791071696855979
1.4216345699232074,7.1221667466314,-0.029699658025670574,0.7212257108629992,-1.0145965764334666
1.4157326082050345,6.979580891003415,-0.029319959156057323,0.7046328454168431,-1.0503780872203319
1.4099039501755424,6.84030578155544,-0.028966621138863124,0.6881182490629301,-1.0863522092825406
1.404143466496619,6.704325913892749,-0.028638215650371224,0.6716804275639852,-1.1224187147869549
1.3984463140562906,6.5716260726071845,-0.02833330875291355,0.6553179852916711,-1.1584763728807652
1.3928079370618929,6.442191311352648,-0.028050461191062488,0.6390296272536795,-1.1944226713292192
1.3872240681015193,6.316006932454698,-0.027788228412671603,0.6228141617258095,-1.230153526066691
1.3816907292295415,6.193058465927891,-0.027545160307107942,0.6066705035422693,-1.265562976855632
1.3762042331338764,6.07333164776303,-0.02731980064954288,0.590597678106326,-1.3005428671014898
1.3707611844452812,5.956812397333046,-0.027110686236409425,0.5745948261935077,-1.3349825057090372
1.3653584812523363,5.843486793750593,-0.026916345693038458,0.5586612096310318,-1.3687683086864249
1.3599933168900329,5.733341050992472,-0.026735297929994635,0.5427962179501937,-1.4017834180078215
1.3546631820750656,5.626361491585119,-0.02656605021967743,0.5269993761233247,-1.4339072950347025
1.3493658674671722,5.5225345186213985,-0.026407095859256522,0.511270353513886,-1.4650152855717937
1.344099466743258,5.421846585851256,-0.02625691137988523,0.49560897418755107,-1.494978153400172
1.3388623802797417,5.324284165557096,-0.026113953255277482,0.4800152287540443,-1.5236615788933963
1.3336533195487117,5.229833713888262,-0.025976654055021583,0.46448928793430044,-1.5509256190926766
1.3284713123452803,5.138481633287288,-0.025843417979291617,0.4490315180754448,-1.5766241254090925
1.3233157089771783,5.05021423159301,-0.025712615701727018,0.43364249886732215,-1.6006041149572205
1.3181861895634097,4.9650176773513905,-0.025582578435958687,0.41832304354886735,-1.6227050914383212
1.3130827726069858,4.882877950803476,-0.0254515911282796,0.40307422193029274,-1.642758311530629
1.3080058250277669,4.803780789950718,-0.0253178846639089,0.3878973865972697,-1.660585992979003
1.3029560738657096,4.727711631020515,-0.025179626956663332,0.37279420270475894,-1.6760004611066455
1.297934619892953,4.654655542569174,-0.025034912770902504,0.35776668180866006,-1.6888032314421528
1.2929429534059318,4.584597152366385,-0.02488175209930804,0.34281722021920985,-1.6987840277729949
1.2879829725071161,4.517520566105976,-0.024718056888847945,0.32794864238489957,-1.7057197374989326
1.2830570042314473,4.453409276885505,-0.024541625867840505,0.31316424981979885,-1.7093733100926096
1.2781678289270828,4.392246064297996,-0.02435012717580489,0.29846787605528147,-1.709492610392565
1.2733187083665791,4.334012881891901,-0.024141078429230915,0.2838639480056555,-1.7058092472374755
1.2685134181474746,4.278690731696329,-0.023911823761812775,0.26935755395006905,-1.69803741086749
1.2637562850469684,4.2262595245017565,-0.023659507243249226,0.2549545179956544,-1.6858727713936974
1.2590522301342135,4.176697924670496,-0.023381041884298383,0.24066148031694717,-1.66899151809377
1.254406818631607,4.129983178484661,-0.023073073141766164,0.22648598154139327,-1.647049659093885
1.2498263177786475,4.086090925511648,-0.022731935387828663,0.21243654818874705,-1.6196827585135891
1.2453177643288842,4.044994993311889,-0.022353599109803488,0.19852277380884734,-1.5865063709687277
1.2408890438672548,4.006667177228998,-0.021933605506489783,0.1847553870200734,-1.5471175519890341
1.2365489849769429,3.9710770092761294,-0.02146698339662919,0.17114629250862884,-1.5010979916287268
1.2323074725823588,3.938191523672476,-0.020948140549210386,0.15770856352791945,-1.4480195555020947
1.228175586824449,3.90797503194484,-0.020370717029887315,0.14445635374845453,-1.387453343505755
1.2241657770328962,3.8803889283932627,-0.01972738088564066,0.13140468176732037,-1.3189838096454254
1.220292085463012,3.8553915578934195,-0.019009534813201247,0.11856902323110201,-1.242230026511751
1.2165704435973852,3.8329381930077524,-0.018206883843065975,0.10596462562555724,-1.1568767695695366
1.2130190767398767,3.8129811857318217,-0.017306784732019027,0.0936054471337344,-1.0627185483400248
1.2096590730580585,3.795470377679873,-0.01629325208616279,0.08150263338575432,-0.9597195411404787
1.2065152053214536,3.780353861599913,-0.015145425279886517,0.06966252741385687,-0.848090570302351
1.203617144277249,3.7675791648930144,-0.013835185162160658,0.058084439655139514,-0.7283789472178529
1.201001286528195,3.75709482938597,-0.012323392328380338,0.04675891541528672,-0.6015557419888531
1.1987135795957213,3.7488521177798404,-0.010553676996356544,0.035668200646022705,-0.46906647777366284
1.1968141203211602,3.742806063006107,-0.008440915749254745,0.02479234709132126,-0.3327900578144254
1.1953856259378288,3.738913949507875,-0.005844028084059172,0.01412878789100389,-0.19484230484949197
1.19455440992749,3.7371252827356045,-0.0024681320193290154,0.0037578798317076893,-0.057191002535598334
