x,y,v_x,v_y,omega
2.375,32.48,0.0,2.051282051282051,-6.285714285714286
2.3740232267788257,32.053336194788464,-0.009302602106423708,2.012182760256387,-5.988646885069035
2.37120313584647,31.63475801771927,-0.017555406773153367,1.974276068973987,-5.711833094557817
2.366748535121604,31.224021970939454,-0.024869362035092317,1.9374958051195068,-5.453413842139405
2.3608462984584415,30.82089787428392,-0.03134241570931394,1.9017813058856,-5.211738331739558
2.3536639127077312,30.425167775663304,-0.037061258106976004,1.867076776215489,-4.985336627630789
2.3453516870868243,30.036624986223472,-0.04210279542547059,1.833330742259092,-4.772896409522589
2.336044676384909,29.655073222034677,-0.046535401735623774,1.8004955833485043,-4.57324317355662
2.325864360487386,29.280325837227792,-0.05041998776459939,1.7685271290980162,-4.385323296618929
2.3149201154694325,28.912205136036686,-0.05381091716829008,1.737384310817284,-4.208189492501544
2.3033105056775254,28.550541753262372,-0.05675679513558535,1.707028858461878,-4.040988275943578
2.291124421483601,28.195174094348182,-0.059301149568459915,1.6774250359589975,-3.882949119981998
2.278442083527719,27.84594782762408,-0.061483021439938015,1.6485394090324372,-3.7333750474656595
2.2653359310837464,27.50271542240408,-0.0633374780264655,1.6203406406818677,-3.591634442133317
2.251871409551376,27.165335727550758,-0.06489606037706609,1.5927993103021214,-3.4571539006790064
2.2381076698898914,26.833673585893457,-0.0661871744942136,1.5658877531007303,-3.329411976523995
2.2240981909806017,26.50759948053087,-0.06723643416569042,1.5395799170191375,-3.2079336899679154
2.209891334369556,26.186989209588788,-0.06806696212998395,1.5138512348102457,-3.0922856990762364
2.1955308395474193,25.871723586458035,-0.06869965522369437,1.4886785092921502,-2.9820720419150217
2.1810808811915026,25.56169756318628,-0.06891899578503619,1.4639502837722025,-2.871251589496982
2.166598411803726,25.256810165600214,-0.06900928409855162,1.439739217047475,-2.765725024039493
2.152109156767887,24.956954867821278,-0.0689836210046763,1.4160255237042905,-2.665174038466175
2.1376362201556947,24.66202919331973,-0.06885387054001434,1.3927904239295004,-2.5693031751905817
2.123200331669666,24.371934510730323,-0.06863078170787365,1.3700160769219811,-2.4778379158857997
2.108820069370681,24.08657584307555,-0.06832409733008278,1.3476855197901627,-2.390522953696856
2.0945120607461734,23.805861689301803,-0.06794265147474905,1.3257826113883697,-2.30712062824237
2.0802911643810207,23.52970385714209,-0.06749445676480281,1.3042919806089257,-2.2274095061174757
2.0661706342362796,23.258017306414384,-0.06698678270892051,1.2831989787025284,-2.1511830916598242
2.052162268316002,22.990720001949615,-0.06642622605562946,1.2624896352476531,-2.0782486545209276
2.038276543304946,22.72773277541828,-0.06581877404966488,1.2421506174317438,-2.008426162135183
2.0245227365864964,22.468979195391867,-0.06516986136413934,1.2221691923436238,-1.941547306531409
2.0109090368972677,22.21438544503488,-0.06448442139042189,1.2025331920086468,-1.877454616114345
1.9974426447400524,21.96388020687671,-0.06376693248781756,1.1832309809262676,-1.8160006440797514
1.9841298635576532,21.717394554160535,-0.06302145972550897,1.1642514258944694,-1.7570472260364118
1.9709761825646976,21.474861848309246,-0.06225169258835283,1.1455838679273196,-1.7004648002084475
1.9579863520411154,21.2362176420873,-0.06146097906481299,1.1272180960912008,-1.6461317842963679
1.9451644518080136,21.001399588071976,-0.060652356488536466,1.1091443231023481,-1.5939340036976117
1.9325139535330007,20.770347352079167,-0.059828579463967954,1.0913531625434691,-1.5437641663375763
1.9200377774464121,20.54300253121718,-0.05899214517020764,1.0738356075706987,-1.4955213798494689
1.9077383439914726,20.319308576267872,-0.0581453163054078,1.0565830109941396,-1.4491107072735778
1.8956176208792928,20.09921071811776,-0.0572901419058274,1.0395870666259572,-1.404442757830598
1.8836771659730622,19.88265589798308,-0.0564284762487488,1.022839791799577,-1.3614333096653022
1.8719181663841717,19.66959270119205,-0.05556199602639869,1.006333510972119,-1.3200029617612745
1.8603414741257622,19.45997129430534,-0.05469221595845502,0.9900608403299077,-1.2800768124990165
1.8489556350096494,19.25391052642895,-0.05374434705214341,0.9724226632547754,-1.2728269225984188
1.837766319403553,19.051540214341895,-0.05282056348210775,0.954913642336221,-1.2681379424535189
1.8267684184595616,18.85283363498089,-0.05192135027019054,0.9375299706257135,-1.2658695320225029
1.8159567368833511,18.65776484755733,-0.051047045693718936,0.9202680048367874,-1.2658856313091449
1.8053260225176917,18.466308659953338,-0.05019785302684576,0.9031242580583723,-1.2680541439707258
1.7948709935540004,18.278440596587984,-0.049373851389262056,0.8860953930402431,-1.2722466333008597
1.7845863635527106,18.0941368676364,-0.04857500576588012,0.869178216022447,-1.278338029308642
1.774466864440416,17.913374339490225,-0.047801176255973216,0.8523696710840059,-1.2862063456720485
1.7645072676399591,17.73613050635251,-0.04705212660552026,0.8356668349894907,-1.2957324053915025
1.754702403478809,17.56238346286451,-0.046327532072100795,0.8190669125152567,-1.3067995740093543
1.7450471790111424,17.392111877665183,-0.04562698666758048,0.8025672322402413,-1.3192934992930352
1.735536594379948,17.22529496778708,-0.04495000981998663,0.7861652427893019,-1.3331018563040504
1.7261657578371508,17.061912473794592,-0.044296052492366386,0.7698585095201278,-1.3481140967919716
1.7169298995321856,16.90194463557195,-0.043664502793017215,0.7536447116478522,-1.3642212018622455
1.707824384172552,16.74537216866944,-0.0430546911082546,0.7375216398046277,-1.3813154368690248
1.6988447226536754,16.592176241116317,-0.042465894785807805,0.7214871940346724,-1.3992901074793138
1.689986582749797,16.442338450608666,-0.04189734239398785,0.7055393822286633,-1.418039315842462
1.6812457989526408,16.295840801979143,-0.04134821757892738,0.6896763190049061,-1.437457715779309
1.6726183815402136,16.152665684853538,-0.04081766253942644,0.6738962250484817,-1.4574402658779697
1.66410052495427,16.01279585139647,-0.0403047811362278,0.6581974269236128,-1.4778819793481661
1.65568861556173,15.876214394044709,-0.03980864164986572,0.642578357378867,-1.498677669443013
1.6473792388726456,15.742904723122123,-0.03932827919855966,0.6270375561695698,-1.5197216892061065
1.6391691862851787,15.612850544224482,-0.038862697824932624,0.6115736714270137,-1.5409076642425334
1.6310554614265131,15.486035835255617,-0.038410872257597324,0.5961854616097905,-1.5621282171450421
1.623035286157627,15.362444822988301,-0.03797174935084289,0.5808717980789169,-1.583274682131211
1.6151061063095007,15.242061959013743,-0.03754424920274068,0.5656316683454689,-1.6042368083644405
1.6072655972185745,15.124871894932504,-0.03712726594893664,0.5504641800472673,-1.6249024503416833
1.599511669130188,15.010859456626953,-0.03671966822617274,0.5353685657198818,-1.645157243635264
1.591842472540345,14.900009617440489,-0.03632029929614118,0.5203441884369304,-1.6648842641768775
1.5842564035485098,14.792307470072036,-0.03592797681657496,0.5053905484054718,-1.6839636691718265
1.5767521092973107,14.687738196974959,-0.035541492242464286,0.4905072906142984,-1.7022723176351184
1.5693284935790828,14.586287039027603,-0.0351596098358968,0.4756942136462404,-1.7196833684544635
1.5619847226942052,14.487939262217822,-0.034781065258174995,0.4609512797802362,-1.7360658538174465
1.554720231652287,14.39268012205578,-0.03440456371247459,0.4462786265249156,-1.7512842258038324
1.5475347308145553,14.300494825397678,-0.034028777599256065,0.43167657974272133,-1.7651978739568304
1.5404282130844564,14.21136848932779,-0.03365234363978033,0.41714566854194096,-1.777660611733924
1.5334009617636823,14.125286096706915,-0.033273859415211396,0.40268664213305844,-1.78852012993295
1.5264535592028217,14.042232447952134,-0.03289187925965192,0.3883004888648559,-1.797617415540194
1.519586896389916,13.9621921085656,-0.03250490943468863,0.3739884576735797,-1.8047861350204466
1.512802183636761,13.885149351879562,-0.03211140250011788,0.35975208219344607,-1.8098519819557388
1.5061009625423747,13.811088096431714,-0.031709750779752764,0.34559320778606817,-1.812631990266532
1.4994851194363392,13.739991837330855,-0.03129827880153809,0.33151402174592004,-1.81293381619195
1.492956900532739,13.671843570920664,-0.030875234566083744,0.3175170869225748,-1.8105549950073516
1.4865189290594856,13.606625712003087,-0.030438779464901016,0.3036053789591149,-1.8052821824552907
1.4801742246699727,13.544320002849393,-0.0299869766256951,0.2897823272665533,-1.7968903965274
1.4739262254970737,13.484907413216114,-0.029517777401915014,0.27605185971704804,-1.785142283208742
1.4677788132777112,13.428368030610116,-0.029029005639633048,0.2624184508162489,-1.7697874409820833
1.4617363420658864,13.37468094013385,-0.02851833923488943,0.24888717276722724,-1.7505618545317632
1.4558036711725415,13.323824093420953,-0.027983288320775207,0.23546374830798722,-1.727187509900771
1.4499862031362323,13.275774166490468,-0.02742116916788391,0.2221546034109143,-1.6993722936896491
1.4442899277609547,13.23050640687216,-0.026829072501425157,0.20896691676346518,-1.6668103209249872
1.438721473589763,13.187994471180541,-0.026203824367067058,0.19590866125193043,-1.629182894205668
1.4332881686658112,13.148210255573659,-0.025541936813426938,0.18298863024217937,-1.5861603761342518
1.4279981131441515,13.11112372340402,-0.024839544345235994,0.17021643804008246,-1.5374053645897934
1.422860267377621,13.07670273709029,-0.02409232009791254,0.15760247923354495,-1.4825777036023289
1.4178845606913049,13.0449129051025,-0.023295362628906517,0.1451578254120904,-1.4213420480803514
1.4130820284601189,13.015717460287394,-0.022443039572865937,0.1328940299698608,-1.3533789299994166
1.4084649887304483,12.989077192842679,-0.021528767376376805,0.12082280283695451,-1.2784005340990345
1.4040472750980681,12.96495047010908,-0.02054469578914807,0.10895550891159135,-1.1961726365087315
1.3998445507715338,12.943293385330431,-0.019481250177846673,0.09730244136126469,-1.1065442748481777
1.3958747410089276,12.9240600864307,-0.018326461846974958,0.08587183387427122,-1.009486459026573
1.392158639311182,12.907203338395536,-0.017064982893458647,0.07466862360347423,-0.9051401424939813
1.3887207699434372,12.892675358293676,-0.01567663013268392,0.06369309165233122,-0.7938710240419382
1.3855906317268085,12.880428911117505,-0.014134210025682757,0.052939738596921485,-0.6763236440721624
1.3828045221133165,12.870418536821187,-0.012400167245669886,0.04239715946323481,-0.5534592259635261
1.3804082993986957,12.862601547387971,-0.010421001465005533,0.03205035894836363,-0.4265522547523368
1.3784618763863796,12.856937990568198,-0.008116360557050967,0.021888277430431695,-0.29711495667342824
1.3770477788165254,12.853387715857352,-0.005351235346322453,0.01192386267288025,-0.16672436371255853
1.3762941376592586,12.85189790631507,-0.0018262994847898424,0.002264799634559349,-0.03676552867569241
