x,y,v_x,v_y,omega
2.375,32.48,0.0,2.6666666666666665,-6.775510204081632
2.373549430932512,31.926229211098068,-0.013814943499885442,2.607340846685046,-6.37616710322909
2.3693955829716153,31.384675254844492,-0.02574551327055985,2.550315879539479,-6.011846009282961
2.362908304015206,30.854871002122913,-0.036038095838102024,2.4954389082850903,-5.678512435910531
2.354409422967411,30.33637984342822,-0.04490362842661317,2.4425721269024776,-5.372689560705742
2.3441795907565313,29.828792744941627,-0.052523345010333615,2.3915907158269647,-5.091368881138523
2.3324640255667415,29.331725700006384,-0.059053466320998296,2.342381140699148,-4.8319371979582355
2.3194773609246435,28.84481750770899,-0.06462905407993612,2.2948397383236774,-4.592116556897964
2.3054077544734244,28.367727824347362,-0.0693671978364326,2.2488715317870325,-4.369914557361505
2.290420383921811,27.900135444359876,-0.07336966455988822,2.2043892299985677,-4.163583015729355
2.274660432320111,27.44173677563775,-0.07672511259915665,2.16131237687883,-3.971583406677327
2.2582556457393523,26.992244480657188,-0.0795109500747377,2.1195666229360266,-3.792557837268122
2.24131853134296,26.55138625999119,-0.0817949013194737,2.0790830976925387,-3.6253045629603573
2.223948251813086,26.11890375882315,-0.08363633229837447,2.0397978658125835,-3.468757251682229
2.2062322624348596,25.6945515803294,-0.08508737606568809,2.0016514531755316,-3.32196735592046
2.1882477293332974,25.27809639240882,-0.08619389156823608,1.9645884317823437,-3.184089073754176
2.1700627610063625,24.86931611635382,-0.08699628297400136,1.9285570544557873,-3.054366475585154
2.1517374801029043,24.467999187783036,-0.08753020182083963,1.8935089319325926,-2.9321224497018465
2.133324958123597,24.073943881574102,-0.08782715036303786,1.8593987462477266,-2.8167491810721907
2.1148720321955414,23.686957693706034,-0.08791500133272821,1.8261839953529484,-2.7076999271602773
2.0964200201449095,23.306856773895124,-0.08781844676853243,1.7938247647509415,-2.6044818946074595
2.078005347654644,22.93346540372262,-0.0875593864720909,1.7622835226062055,-2.506650053239258
2.0596600992564826,22.56661551563743,-0.08715726493896768,1.7315249353480142,-2.4138017505536085
2.0414125031969497,22.206146248796216,-0.08662936419944153,1.7015157012349735,-2.325572011784277
2.023287358777967,21.85190353819541,-0.08599105883848712,1.6722243997250952,-2.241629428735961
2.0053064135577774,21.503739733969688,-0.08525603849665428,1.643621354805565,-2.161672555582405
1.9874886967691034,21.16151324809215,-0.08443650234785978,1.6156785106948237,-2.0854267422843007
1.9698508144379967,20.82508822602187,-0.08354332937696644,1.5883693185459369,-2.0126413466820243
1.9524072109432509,20.49433424111351,-0.08258622771584939,1.561668632962244,-1.9430872750204637
1.935170401121736,20.169126009837015,-0.08157386582238885,1.5355526172901008,-1.8765548079686056
1.9181511764822474,19.84934312605922,-0.08051398788702645,1.5099986567841182,-1.8128516753475297
1.901358788625183,19.53486981281747,-0.07941351551358558,1.4849852788516378,-1.7518013479741372
1.8848246205804178,19.2256010832896,-0.07805475157941809,1.4604311928423388,-1.6870188720965091
1.8685763223962173,18.92143573560316,-0.07669094541296714,1.4363816422666236,-1.6253050002274074
1.8526145747515952,18.622269783662055,-0.0753256988215277,1.4128179000295924,-1.566477027152968
1.836939349224322,18.328003079293595,-0.07396216334298084,1.3897221415748207,-1.5103651984551907
1.8215499975995657,18.038539128508354,-0.07260309022612414,1.3670773897131645,-1.4568116464139818
1.806445331273815,17.753784918918267,-0.07125087478102729,1.3448674635257705,-1.4056694250868955
1.7916236918664792,17.47365075749457,-0.06990759576502664,1.323076930985626,-1.356801634241568
1.7770830140205718,17.19805011791839,-0.06857505038647219,1.301691064978024,-1.3100806230023618
1.7628208812592128,16.92689949684032,-0.06725478543599388,1.2806958024321635,-1.2653872651101101
1.7488345756642447,16.660118278422985,-0.06594812499227455,1.2600777063043416,-1.222610298602436
1.7351211220551066,16.397628606592313,-0.06465619509475463,1.2398239301782474,-1.181645723519277
1.7216773272686958,16.13935526447023,-0.06337994572820663,1.2199221852701756,-1.1423962519388116
1.7084998150728476,15.88522556050394,-0.06212017042272731,1.20036070964685,-1.104770805265668
1.695585057186121,15.635169220845484,-0.060877523736572736,1.1811282394813123,-1.0686840542369747
1.6829294008237232,15.389118287570184,-0.059652536857692534,1.1622139821882103,-1.0340559975918953
1.670529093142785,15.147007022354543,-0.05844563153219655,1.1436075912940693,-1.000811575774815
1.6583803029190067,14.90877181526302,-0.057257132503786515,1.1252991429109103,-0.9688803164183071
1.6464791397502787,14.674351098319601,-0.05608727862695753,1.107279113693079,-0.9381960086854167
1.634821671050644,14.443685263564237,-0.054936232798132756,1.0895383601675124,-0.9086964038468939
1.623403937069427,14.216716585316263,-0.0538040908325062,1.0720680993370002,-0.8803229397322904
1.6122219641450197,13.99338914638711,-0.0526908893999445,1.054859890464452,-0.8530204869282778
1.6012717763803637,13.773648768003191,-0.05159661312059042,1.0379056179538058,-0.8267371148065457
1.5905494059071934,13.557442943216778,-0.05052120090960287,1.0211974752501345,-0.8014238756502087
1.5800509018883748,13.344720773598297,-0.04946455165057308,1.0047279496877808,-0.7770346053143913
1.5697723383918814,13.135432909017869,-0.04842652926841261,0.9884898082210453,-0.7535257390058522
1.5597189781959375,12.929685040581983,-0.047319758312004766,0.9710137006921554,-0.7601285790205816
1.549893570676114,12.727594498785901,-0.046255551400599025,0.9536581259371965,-0.7689330727848197
1.540287237083416,12.529136334085852,-0.04523333995843134,0.9364196331109073,-0.7798136556391744
1.5308912269557098,12.334286306650238,-0.04425247078162916,0.9192949138949383,-0.7926484325580689
1.5216969350334415,12.143020857078522,-0.04331221419235306,0.9022807963118777,-0.8073188947266278
1.5126959165339864,11.955317078367301,-0.04241177151674478,0.8853742390330687,-0.8237096464817741
1.5038799009214445,11.771152689022319,-0.04155028193603292,0.8685723261572231,-0.8417081414659726
1.495240804298775,11.590506007219627,-0.04072682875605811,0.8518722624398364,-0.8612044268863686
1.4867707405400392,11.413355925923032,-0.039940445136663984,0.8352713689563122,-0.8820908948085585
1.4784620312722123,11.239681888868244,-0.03919011931882949,0.8187670791845402,-0.9042620394431137
1.4703072148084084,11.069463867326842,-0.038474799384064805,0.8023569354954636,-0.9276142194044686
1.4622990541274514,10.90268233756531,-0.0377933975774311,0.7860385860429576,-0.9520454239359685
1.4544305439884533,10.739318258915848,-0.03714479422254979,0.7698097820471475,-0.9774550421017817
1.4466949172634036,10.579353052376742,-0.036527841254115304,0.7536683754681571,-1.0037436339459935
1.4390856505656986,10.422768579660211,-0.035941365390694646,0.7376123170702333,-1.0308127026113805
1.4315964692480394,10.269547122605513,-0.03538417096796444,0.7216396548792661,-1.058564466394966
1.4242213518391553,10.11967136287399,-0.034855042449978946,0.7057485330399799,-1.0869016296942164
1.4169545339853837,9.973124361841126,-0.03435274663355968,0.6899371910825284,-1.1157271517663565
1.4097905119602254,9.829889540598206,-0.03387603455842441,0.6742039636119509,-1.1449440121833927
1.402724045802604,9.689950659972961,-0.033423643133208794,0.6585472804379929,-1.1744549718166073
1.3957501621426864,9.553291800474415,-0.032994296485052275,0.6429656671672159,-1.2041623281260567
1.3888641567727769,9.419897342062018,-0.03258670703789658,0.627457746284194,-1.2339676634624688
1.3820615970199823,9.289751943633007,-0.032199576322052725,0.6120222387539994,-1.2637715850103692
1.3753383239771022,9.162840522114497,-0.03183159551490236,0.5966579661841951,-1.2934734549117697
1.3686904546485104,9.03914823103807,-0.0314814457097802,0.5813638535912921,-1.3229711090088767
1.3621143840687377,8.918660438464443,-0.031147797907101978,0.5661389328241908,-1.3521605625317072
1.3556067874530369,8.80136270411381,-0.030829312718619842,0.5509823467056482,-1.3809357009320933
1.3491646224414942,8.687240755543662,-0.030524639772262333,0.5358933539624245,-1.4091879539295462
1.3427851315012698,8.576280463199918,-0.030232416801303116,0.5208713350256295,-1.4368059506875355
1.3364658445553903,8.468467814148745,-0.02995126839754857,0.5059157987950602,-1.4636751538823858
1.330204581911251,8.363788884275369,-0.02967980440378001,0.4910263904751997,-1.489677470263753
1.323999457567699,8.262229808711822,-0.029416617915762163,0.4762029006061915,-1.514690835139643
1.317848882986385,8.16377675022795,-0.02916028285865557,0.4614452754307105,-1.5385887680565409
1.3117515714210883,8.068415865288202,-0.028909351096550462,0.44675362875737756,-1.5612398967959533
1.30570654290812,7.976133267440826,-0.028662349026957645,0.43212825550333184,-1.5825074466865852
1.2997131300318376,7.8869149876650795,-0.028417773604303868,0.41756964712282,-1.6022486921567733
1.2937709845919874,7.8007469312558975,-0.028174087727602697,0.40307850915509597,-1.6203143674539586
1.2878800853142758,7.717614830773524,-0.027929714917268922,0.38865578115322563,-1.636548033578583
1.2820407467625718,7.637504194527523,-0.027683033194196894,0.3743026592848901,-1.6507853987782135
1.2762536296308504,7.560400250000406,-0.02743236806029308,0.360020621925756,-1.6628535905079862
1.270519752615902,7.486287881545895,-0.02717598446302483,0.3458114585933808,-1.6725703777046799
1.2648405060986194,7.415151561621471,-0.026912077606333025,0.3316773025916111,-1.6797433437122633
1.2592176678932134,7.346975274735939,-0.026638762445153466,0.3176206677467855,-1.684169012474781
1.2536534213612427,7.281742433213509,-0.026354061668853984,0.3036444896096825,-1.6856319340150976
1.2481503762326096,7.219435783801323,-0.026055891937175203,0.2897521714587403,-1.6839037402227808
1.2427115925312002,7.160037304086192,-0.025742048076247807,0.27594763535201944,-1.6787421892580499
1.237340608072373,7.103528087651696,-0.025410184864963842,0.262235378309834,-1.6698902274009446
1.2320414700886382,7.049888216919484,-0.02505779593251154,0.24862053342553034,-1.6570751122963117
1.2268187716571648,6.999096622709878,-0.02468218912913976,0.23510893523737386,-1.6400076631924658
1.2216776937613993,6.9511309297741235,-0.02428045749719839,0.22170718796030492,-1.6183817346640605
1.2166240540395776,6.905967287963836,-0.023849444615389258,0.20842273404243766,-1.591874054264277
1.2116643635874371,6.8635801894162505,-0.02338570254785407,0.19526391879170632,-1.5601446268684775
1.206805893641678,6.823942273296588,-0.02288543979271036,0.1822400442527152,-1.5228379963843057
1.2020567546549414,6.787024121466281,-0.02234445531906604,0.16936140175019912,-1.479585778590081
1.197425991309499,6.752794051236702,-0.021758052732767718,0.15663926710295278,-1.4300110491439177
1.1929236986070852,6.721217915522722,-0.021120925385457897,0.144085834934936,-1.3737354018397343
1.1885611666346911,6.692258926730709,-0.020426998161152544,0.1317140583223157,-1.3103897956330524
1.184351065439533,6.66587752914992,-0.019669203697496144,0.11953734720899342,-1.239630685346305
1.1803076874235208,6.642031355878586,-0.018839158359764623,0.10756906489893547,-1.161163348209416
1.1764472739655265,6.620675320214243,-0.017926684097323967,0.09582175095196692,-1.0747746664967885
1.1727884673607996,6.601761906134563,-0.01691909309055148,0.08430600218783468,-0.980377631048583
1.1693529512568934,6.585241732438821,-0.015800107899030427,0.07302898539065744,-0.8780689100694488
1.166166376682697,6.5710644574258374,-0.014548221379030377,0.06199268139964486,-0.7681979235016236
1.163259724249787,6.559180040132173,-0.013134182743921627,0.05119224520667846,-0.651439427757724
1.1606713458413687,6.549540236057734,-0.011517040193397636,0.04061541264510653,-0.5288503115271841
1.1584501258610402,6.5420999102808715,-0.009637435809730113,0.030244832848825103,-0.4018762986046579
1.1566607519498557,6.536817162383745,-0.00740422048726549,0.02006705188572399,-0.2722627901374204
1.155394151450185,6.533649803725975,-0.0046586414143606186,0.010098268664474833,-0.14182937885272137
1.154798424516279,6.5325384203971275,-0.0010149484323650065,0.00048633446741463103,-0.012135123524006947
