x,y,v_x,v_y,omega
2.375,32.48,0.0,3.7948717948717947,-5.061224489795919
2.3730372375587043,31.620815412403264,-0.017067499489525708,3.676298532056315,-4.61281717590222
2.36754315667532,30.788117174472667,-0.030707116887731208,3.5645557108184525,-4.224790297566431
2.3592296145016625,29.980404742153297,-0.04158455418755168,3.459030657176043,-3.886801568621001
2.3486713903625436,29.196309797824874,-0.050226090500437706,3.359186250027667,-3.5905793626020923
2.3363345853953263,28.434580285096416,-0.05705047443188516,3.264548643263272,-3.32945509816062
2.3225986019353617,27.694066975175723,-0.06239286000259072,3.1746975299601297,-3.0980125041930964
2.307773284484991,26.973712054114145,-0.06652294391367596,3.089258305357952,-2.8918218038881682
2.2921123807600625,26.272539346339308,-0.0696588276074445,3.0078956752927875,-2.7072363432654245
2.2758241806726414,25.589645879534515,-0.07197769489186931,2.930308383879317,-2.541235637985873
2.2590799747513164,24.9241945609618,-0.07362409572834555,2.8562248211008305,-2.391303266881823
2.2420208159641866,24.27540778340811,-0.07471641546408704,2.7853993315399643,-2.2553311626568964
2.224762953004703,23.642561815100173,-0.0753519580966445,2.71760908852905,-2.131544066535849
2.207402217025166,23.024981855568495,-0.07561096346454416,2.652651429137709,-2.0184395053827755
2.190017579335406,22.42203766086108,-0.0755597990551073,2.590341568318081,-1.9147398050929618
2.1726740489237786,21.833139658326452,-0.07525350887208825,2.5305106276351936,-1.8193535007136639
2.1554250416637952,21.25773548454665,-0.0747378586060294,2.4730039269717787,-1.7313441297689975
2.138314324756928,20.695306890726926,-0.07405098406237937,2.417679497547558,-1.6499048619913586
2.12137761815765,20.14536696854161,-0.07322472549656028,2.364406782324764,-1.5743377693228753
2.1046439178357303,19.6074576565405,-0.07228571208534966,2.3130654959457515,-1.5040368054198785
2.0881365925734534,19.08114749307235,-0.07125624671705774,2.26354462116861,-1.4384737660874056
2.071874295692626,18.566029586535873,-0.07015503050752975,2.215741522626832,-1.3771866571221496
2.055871724998517,18.061719777820294,-0.06899775813689588,2.16956116185645,-1.3197700156684697
2.04014025781732,17.56785497319866,-0.06779760865612203,2.124915400070819,-1.2658668240221553
2.024688482912177,17.084091628807688,-0.06656565138859598,2.081722377241988,-1.2151617272507633
2.0095226470014538,16.610104370282237,-0.06531118261769761,2.039905957761941,-1.1673753228167552
1.994647030349963,16.145584733186016,-0.06404200565613448,1.9993952343791057,-1.1222593351819787
1.9800642632880878,15.690240011653884,-0.06276466444712824,1.9601240832916218,-1.0795925238548665
1.965775593402373,15.243792204183954,-0.061484638906912484,1.9220307642730012,-1.0391772015801597
1.951781111430805,14.805977046830119,-0.06020650867193954,1.885057560542961,-1.0008362619441344
1.9380799425055963,14.376543125180202,-0.05893409067770249,1.8491504538041394,-0.9644106337900752
1.9246704082522585,13.955251057489079,-0.05767055500349438,1.8142588304664828,-0.9297570944469342
1.9115501643258117,13.5418727421922,-0.0564185226177826,1.7803352155933314,-0.8967463855968228
1.8987163172033352,13.136190663771718,-0.055180148012448645,1.747335031541311,-0.865261585212062
1.8861655234250723,12.737997251600635,-0.05395718918983728,1.7152163786420107,-0.8351966968248797
1.8738940739586476,12.347094286963156,-0.05275106703994266,1.6839398355969428,-0.8064554238025706
1.8618979659324157,11.963292353952806,-0.05156291579685626,1.6534682775365404,-0.778950101564603
1.8501729636282436,11.586410330393498,-0.05039362597855312,1.6237667099356856,-0.7526007650152294
1.8387146503280019,11.216274915320266,-0.049243880980071514,1.5948021167880688,-0.7273343320503558
1.8275184723610836,10.85272018990285,-0.0481141882974784,1.5665433216242295,-0.7030838869704564
1.8165797764937617,10.495587209002569,-0.04700490620097226,1.538960860117358,-0.679788050104266
1.8058938416281074,10.144723620825658,-0.04591626654384874,1.5120268631601268,-0.6573904220110521
1.7954559056328079,9.7999833123792,-0.04484839428484238,1.4857149494177784,-0.6358390923553943
1.7852785078152618,9.461227587249084,-0.04365071717207927,1.4599870082354203,-0.610684596402693
1.7753727002433055,9.12832323517269,-0.0424867399753667,1.434833444602792,-0.5868083951531464
1.7657308115136767,8.80114074428704,-0.041355770717058406,1.4102316935333163,-0.5641290820129475
1.7563453344799322,8.479555661035239,-0.040257073054631096,1.3861603347432143,-0.5425714179217958
1.7472089351578834,8.163448335229287,-0.039189877571881214,1.3625990200911373,-0.5220657906186703
1.7383144592371091,7.852703681173132,-0.038153391304415744,1.3395284064841158,-0.5025477275810156
1.7296549365750153,7.547210953643585,-0.03714680575726963,1.3169300937728132,-0.48395745670261886
1.7212235839949679,7.246863537630986,-0.03616930363444854,1.2947865672063055,-0.46623950949718124
1.7130138066631897,6.95155875083552,-0.035220064467971095,1.2730811440586065,-0.44934236224075425
1.7050191982791092,6.661197657999974,-0.034298269306642266,1.251797924076576,-0.43321811101049146
1.697233540279666,6.375684896236461,-0.03340310460155844,1.2309217434322213,-0.4178221770511162
1.6896508002288453,6.0949285105741495,-0.032533765405579194,1.2104381318922341,-0.4031130393139399
1.6822651295386797,5.818839799017951,-0.031689457987163785,1.1903332729442893,-0.38905199137453184
1.6750708606465259,5.54733316646535,-0.030869401944609628,1.1705939666435512,-0.375602920251343
1.6680625037550318,5.280325986880449,-0.03007283189446783,1.1512075949643001,-0.3627321049248046
1.6612347432254637,5.017738473171555,-0.029298998797428758,1.1321620894608724,-0.35040803259984143
1.6545824337015194,4.7594935542617165,-0.028547170976000794,1.1134459010594688,-0.3386012309688179
1.6481005960291577,4.505516758880805,-0.02781663487062242,1.0950479718180215,-0.32728411492049014
1.6417844130279962,4.25573610564361,-0.027106695574260545,1.0769577085054114,-0.31643084630686125
1.635629225161268,4.0100819990111205,-0.02641667717989557,1.0591649578640756,-0.30601720552675815
1.6296305261439796,3.7684871307621215,-0.025745922970439407,1.0416599834315594,-0.29602047381492147
1.6237839585225862,3.530886386629689,-0.025093795476460602,1.0244334438069982,-0.2864193252405272
1.6180853092540903,3.2972167577822162,-0.024459676423502736,1.0074763722579734,-0.2771937275211846
1.6125305053078027,3.0674172568517974,-0.023842966587694376,0.9907801575717571,-0.26832485084916063
1.607120747723306,2.8415296211317056,-0.023198403712276952,0.9734601530377462,-0.2774233452209137
1.6018555786500785,2.6196109393877833,-0.022585675185351903,0.956267514300703,-0.2888565958578335
1.596727656661494,2.401632355217828,-0.02200495080233902,0.9391984350032638,-0.3024965415429642
1.591729616639494,2.1875658697281466,-0.021456266780271342,0.9222492649070203,-0.31821928504454866
1.5868540991157989,1.977384306481735,-0.020939537773598353,0.9054165024530926,-0.33590479233360715
1.5820937769621595,1.7710612780937929,-0.020454567910223837,0.8886967878768415,-0.35543660415873746
1.5774413796464017,1.5685711543506429,-0.020001060922451866,0.8720868968461947,-0.3767015587387118
1.5728897152545696,1.3698890317347434,-0.019578629441306287,0.8555837345964138,-0.39958952438883777
1.56843169046437,1.1749907042443652,-0.019186803516949374,0.8391843305373154,-0.4239931409439354
1.5640603286413213,0.9838526354016928,-0.018825038422605453,0.8228858333120134,-0.44980756887949
1.55976878621636,0.7964519313475513,-0.018492721794450644,0.8066855062892059,-0.47693024506329335
1.5555503674921365,0.6127663149247908,-0.018189180155319513,0.7905807234739199,-0.5052606440928369
1.5513985380147117,0.4327741006554717,-0.01791368486576479,0.774568965824476,-0.5347000441889238
1.5473069366378245,0.25645417051953245,-0.01766545754195147,0.7586478179662852,-0.5651512966233959
1.5432693863982556,0.08378595044437276,-0.017443674976037517,0.7428149652959721,-0.5965185976584172
1.5392799043130396,-0.0852506125839767,-0.017247473591057102,0.7270681914722583,-0.6287072619662034
1.5353327102023009,-0.2506750728769944,-0.01707595345884703,0.7114053762931,-0.6616234964811578
1.531422234635319,-0.4125065079563015,-0.01692818190621188,0.6958244939617683,-0.6951741736106531
1.5275431260920078,-0.570763540112921,-0.016803196731276743,0.6803236117479611,-0.7292666026957155
1.5236902574272992,-0.725464357705107,-0.016700009048797742,0.6649008890536773,-0.763808298567999
1.519858731721981,-0.8766267362894951,-0.01661760578005718,0.6495545768975376,-0.7987067459939883
1.516043887600294,-1.0242680596837985,-0.01655495179982954,0.6342830178355611,-0.8338691587304955
1.5122413040920943,-1.1684053410641226,-0.01651099174973188,0.6190846463411831,-0.8692022318362744
1.5084468051156117,-1.3090552442057088,-0.016484651524030582,0.6039579896726178,-0.9046118857918862
1.504656463655826,-1.446234104983148,-0.0164748394306268,0.5889016692616201,-0.9400030008726223
1.5008666057132631,-1.5799579532546417,-0.016480447026442253,0.573914402664417,-0.9752791400960062
1.4970738140986084,-1.7102425352652162,-0.01650034962272897,0.5589950061231771,-1.010342258924756
1.4932749321500285,-1.8371033367158134,-0.016533406451879402,0.5441423977950409,-1.0450923997466193
1.4894670674525106,-1.9605556066595398,-0.016578460483060282,0.529355601715604,-1.079427368972713
1.4856475956419808,-2.0806143824029633,-0.016634337869370772,0.5146337525750619,-1.113242394394483
1.4818141643815248,-2.19729451560989,-0.016699847004161366,0.49997610139820403,-1.1464297602149458
1.4779646976028111,-2.3106106998276346,-0.016773777158563905,0.4853820222343754,-1.1788784169216333
1.474097400112977,-2.4205774996823664,-0.016854896666083214,0.4708510199807104,-1.21047356289648
1.4702107626758614,-2.527209382020544,-0.01694195061318255,0.45638273948173314,-1.2410961943626966
1.466303567686836,-2.6305207493091345,-0.01703365798703814,0.44197697607120234,-1.2706226199530766
1.4623748955726925,-2.7305259756483764,-0.017128708222902946,0.4276336877482711,-1.2989239358533957
1.4584241320624396,-2.8272394457985826,-0.0172257570836437,0.41335300921007223,-1.3258654571376414
1.454450976491648,-2.920675597677416,-0.017323421792804793,0.399135267997164,-1.3513061005835612
1.4504554513225516,-3.010848968847526,-0.017420275329775026,0.38498100304726235,-1.3750977139606406
1.4464379130848122,-3.097774247587573,-0.017514839781002153,0.37089098599661624,-1.3970843465536844
1.4423990649681961,-3.18146632922317,-0.017605578624354044,0.35686624561728475,-1.417101455577216
1.438339971328913,-3.2619403784898466,-0.01769088780419457,0.34290809583206044,-1.4349750432287787
1.4342620744067625,-3.3392118988081947,-0.017769085431896092,0.3290181678057454,-1.4505207195410725
1.4301672135913552,-3.413296809472861,-0.01783839991947257,0.31519844666963803,-1.4635426870977994
1.42605764762364,-3.4842115318913613,-0.017896956321528542,0.3014513134912347,-1.4738326453321011
1.421936080175259,-3.5519730861546535,-0.017942760620914443,0.28777959314606893,-1.4811686149053866
1.4178056893148494,-3.616599199375152,-0.017973681643516506,0.274186608771321,-1.485313687120116
1.4136701614501928,-3.6781084273819715,-0.017987430223062935,0.26067624346191104,-1.4860147102637644
1.4095337304322142,-3.73652029150459,-0.01798153515066386,0.24725300977827078,-1.4830009354057547
1.40540122262755,-3.791855432282631,-0.017953315324675978,0.23392212742207077,-1.4759826602313957
1.4012781089204385,-3.844135781974117,-0.017899847345861013,0.22068960902563942,-1.4646499335854144
1.3971705648074018,-3.8933847576386427,-0.01781792755010845,0.20756235327460917,-1.4486714193257226
1.3930855400243258,-3.939627476251644,-0.017704027085335347,0.19454824336020546,-1.4276935714612151
1.3890308395354478,-3.9828909926157223,-0.017554238035342323,0.18165624676218703,-1.4013403515653802
1.3850152182841684,-4.023204559549491,-0.017364207627957536,0.16889650918360344,-1.3692138359972474
1.3810484929674685,-4.060599907612108,-0.017129055995518953,0.15628043049131035,-1.3308962314183963
1.3771416754350714,-4.0951115379535,-0.016843270373151045,0.1438207029120997,-1.285954065729464
1.3733071344438155,-4.126777016031497,-0.016500564333422518,0.13153128037482897,-1.2339456779570506
1.3695587959423219,-4.155637244896589,-0.016093683505651598,0.11942723149551832,-1.1744336289007167
1.365912397700655,-4.181736683245688,-0.015614127291450824,0.10752440632273522,-1.1070043204533442
1.3623858233954207,-4.2051234542035445,-0.01505173623232711,0.09583881939776352,-1.0312979280082524
1.3589995566068245,-4.225849265316555,-0.014394061929379377,0.08438562506320368,-0.9470525692572391
1.355777320439364,-4.243969030983969,-0.013625383005059676,0.07317755465343387,-0.8541669837457723
1.3527470098159498,-4.259540065717211,-0.012725144155063874,0.06222274737474505,-0.7527847245961026
1.349942091239128,-4.272620727666769,-0.011665452165125966,0.05152213914317875,-0.64339760425086
1.3474037596719295,-4.283268496851086,-0.010406996245295203,0.04106715811175088,-0.5269531196866246
1.34518436230035,-4.291537783402191,-0.00889211133365635,0.03083968146308723,-0.4049264930584773
1.3433531458287093,-4.297478474740338,-0.007031510158871608,0.020818504086005725,-0.2792868209516833
1.3420073156300902,-4.301137891131468,-0.004671361133469313,0.01100250801080586,-0.15226955433340034
1.3413021940077328,-4.302575470522193,-0.001460131234855602,0.0014981823433094978,-0.025910787674184893
