x,y,v_x,v_y,omega
2.375,32.48,0.0,2.6153846153846154,-2.979591836734694
2.374484552852209,31.988126759768694,-0.005425759450428555,2.5622284396817263,-2.821695165566591
2.3730030207050157,31.506187674435004,-0.010169315783188871,2.5108145638308152,-2.6760431888286473
2.3706773503136302,31.033860571003704,-0.014311425178764665,2.461049682814456,-2.5413858319442926
2.3676151285511833,30.570840359282123,-0.017922488110149182,2.412847282675844,-2.4166250311438535
2.363911411065189,30.11683780306945,-0.021064011742422464,2.3661269932470095,-2.3007936278086363
2.359650294642619,29.671578406859123,-0.02378984533726314,2.3208140194933002,-2.1930375385375145
2.3549062727476127,29.2348014042411,-0.02614722724174805,2.27683863964379,-2.0926006398403945
2.3497454070456874,28.80625883623664,-0.02817767488378269,2.23413576040314,-1.9988119115487384
2.344226342300584,28.385714709481732,-0.02991774348572799,2.192644521227499,-1.911074466764916
2.338401187580022,27.9729442255705,-0.031399674625449764,2.1523079409959656,-1.8288561631887577
2.332316283043185,27.567733074033804,-0.03265195207809567,2.113072601495584,-1.7516815445713652
2.3260128685549875,27.169876782404923,-0.03369977937661604,2.0748883630189328,-1.6791249046229297
2.3195276678605903,26.77918011764931,-0.03456549109072405,2.0377081080927932,-1.6108043010825517
2.3128933999630465,26.39545653393548,-0.035268907830785914,2.0014875099475082,-1.5463763765069725
2.306139227601118,26.018527662322057,-0.03582764334741308,1.9661848228253997,-1.4855318659520762
2.299291151261841,25.6482228384485,-0.03625737075023898,1.931760691633062,-1.4279916911283652
2.292372355933768,25.284378664759046,-0.03657205375579069,1.8981779787822708,-1.3735035566173281
2.2854035167716287,24.926838604171476,-0.036784147950940045,1.8654016063500338,-1.3218389769813843
2.2784030689687125,24.57545260243489,-0.03690477629028225,1.8333984119298052,-1.2727906745978455
2.2713874463926675,24.23007673671022,-0.036943882404928574,1.802137016750936,-1.226170297207312
2.264371292911618,23.890572888161138,-0.03691036476400928,1.7715877048183282,-1.1818064118192413
2.2573676498024042,23.55680843656586,-0.03681219428035017,1.7417223119740868,-1.1395427380287002
2.250388122176296,23.2286559751567,-0.03665651757342165,1.7125141239118296,-1.099236589184801
2.2434430269673777,22.90599304406794,-0.03644974778361311,1.6839377822855919,-1.0607574943889198
2.236541524694524,22.5887018809264,-0.03619764456221228,1.655969198151691,-1.0239859781331924
2.229691736920979,22.27666918725574,-0.03590538463299983,1.628585472065781,-0.9888124776346432
2.222900851088743,21.969785909487598,-0.03557762412737683,1.6017648202304864,-0.9551363806743269
2.216175214192305,21.667947033481163,-0.03521855372986767,1.5754865061530396,-0.9228651690937676
2.20952041657261,21.37105139155041,-0.034831947530080044,1.549730777328547,-0.8919136550986376
2.2029413669533437,21.07900148108537,-0.034421206356932514,1.5244788065139703,-0.8622032992266473
2.1964423597039757,20.791703293932393,-0.03398939626799466,1.499712637201574,-0.8336616002983989
2.190027135194562,20.50906615576902,-0.03353928277846725,1.4754151329391942,-0.806221548924328
2.183702885553444,20.231003686676246,-0.03303176607540262,1.4515582259321176,-0.7783232415304678
2.1774756134792734,19.957432486751753,-0.03251846628429186,1.4281386153783302,-0.7516440149587544
2.1713462692384033,19.688270893087584,-0.03200094677749688,1.4051413179287355,-0.7261166041605829
2.1653155225303307,19.423440027628274,-0.03148059751800421,1.3825520026955802,-0.7016781554312823
2.159383793749089,19.162863676608413,-0.03095865281085354,1.3603569554082013,-0.6782698910363287
2.1535512820491522,18.906468176577967,-0.030436207188482493,1.338543044912295,-0.6558368027367782
2.147817990550743,18.654182306587046,-0.029914229636879064,1.3170976918342414,-0.6343273714356232
2.142183748982459,18.405937186134278,-0.02939357634505627,1.2960088392475315,-0.6136933104610519
2.13664823402647,18.16166617851249,-0.028875002139041726,1.2752649251923336,-0.5938893302628669
2.1312109876026852,17.921304799212592,-0.028359170742901823,1.2548548569118754,-0.574872922528845
2.1258714333027795,17.68479062907129,-0.027846663992946327,1.2347679866807517,-0.5566041619322739
2.1206288911623457,17.452063231871108,-0.027337990116884113,1.2149940891106212,-0.5390455239034767
2.1154825909394206,17.22306407612193,-0.02683359117706515,1.1955233398281417,-0.5221617169796007
2.110431684049846,16.997736460772543,-0.026333849765824775,1.176346295428519,-0.5059195284307113
2.1054752542941335,16.776025444618334,-0.025839095031150332,1.1574538746157919,-0.4902876819884034
2.10061232749646,16.557877779187272,-0.02534960810225069,1.1388373404480179,-0.47523670661753775
2.0958418801639334,16.343241844901577,-0.024865626976981043,1.1204882836119574,-0.4607388153739467
2.0911628472631185,16.13206759032596,-0.024387350926333446,1.1023986066576925,-0.4467677934824178
2.086574129200919,15.924306474326226,-0.023914944465238477,1.0845605091289776,-0.4332988948511945
2.0820745980880253,15.719911410973623,-0.023448540933640575,1.066966473529989,-0.4203087463126963
2.0776631033552526,15.518836717041282,-0.022988245727126308,1.0496092520736153,-0.4077752589461133
2.073338476786014,15.32103806194904,-0.022534139212228903,1.0324818541605159,-0.39567754589679455
2.0690995370218572,15.126472420022306,-0.022086279357841333,1.0155775345419227,-0.38399584616066934
2.064945093592328,14.935098024939176,-0.02164470411088866,0.9988897821225962,-0.3727114538499489
2.0608771220613824,14.747073582311383,-0.021176048846429443,0.9803148771173388,-0.40336485005694833
2.056894723414621,14.56256802067561,-0.020743936908955096,0.9618489295750362,-0.4354888346913305
2.052991036512828,14.38156090805687,-0.02034750416255377,0.9434890979906543,-0.46897691350562076
2.0491593691647987,14.204032341889537,-0.019985836343017087,0.9252326511391723,-0.5037245731669642
2.045393207159058,14.029962928395094,-0.019657974243721437,0.9070769645918199,-0.5396290520046929
2.041686222354924,13.85933376258641,-0.019362918431377687,0.8890195176048484,-0.5765891138389918
2.0380322799193493,13.692126408828273,-0.019099633522039645,0.8710578903755292,-0.6145048239405508
2.034425444790515,13.528322881884641,-0.01886705204463879,0.8531897616627061,-0.6532773261613761
2.030859987444224,13.367905628383348,-0.018664077916314973,0.8354129067719719,-0.6928086202597646
2.0273303890348373,13.210857508628713,-0.018489589550914166,0.8177251959084055,-0.7330013384174763
2.0238313459786768,13.057161778691643,-0.01834244261919929,0.8001245929028618,-0.773758519913908
2.020357774044581,12.906802072705371,-0.018221472476542187,0.7826091543210724,-0.8149833828800459
2.0169048120135544,12.759762385292873,-0.018125496271107433,0.7651770289683627,-0.8565790920035103
2.0134678249672358,12.616027054049248,-0.01805331474277357,0.7478264578066569,-0.898448520994366
2.01004240726325,12.475580741998666,-0.018003713720235313,0.7305557743047133,-0.9404940085487055
2.0066243852543457,12.338408419941228,-0.01797546532086004,0.7133634052472629,-0.982617106462362
2.003209819807649,12.204495348599508,-0.017967328854899756,0.6962478720340155,-1.0247183184494029
1.999795008680341,12.073827060468261,-0.017978051432549345,0.6792077925054363,-1.066696828108112
1.9963764888086888,11.94638934126305,-0.0180063682690535,0.662241883338907,-1.108450214349714
1.9929510385685711,11.822168210854539,-0.018051002679554378,0.6453489630664876,-1.1498741524607594
1.9895156800676121,11.701149903564676,-0.01811066575159118,0.6285279557741503,-1.190862098807467
1.9860676815317007,11.583320847688668,-0.018184055679057436,0.6117778955522338,-1.231304957007998
1.9826045598521818,11.468667644092282,-0.01826985673693103,0.5950979317781663,-1.2710907231952928
1.9791240833644141,11.357177043717439,-0.01836673787114784,0.5784873353254597,-1.310104107767607
1.9756242749337662,11.248835923809775,-0.018473350872515115,0.5619455058078487,-1.348226130775513
1.972103415431618,11.1436312626595,-0.018588328097467913,0.54547197998453,-1.3853336878228297
1.9685600476916507,11.04155011262112,-0.018710279691661096,0.5290664414720884,-1.4212990830656569
1.9649929810457918,10.942579571147803,-0.018837790264746156,0.5127287319312391,-1.4559895255810782
1.961401296549814,10.84670674954171,-0.018969414956073828,0.4964588639223709,-1.4892665850501758
1.9577843530209602,10.753918739082007,-0.019103674821335695,0.4802570356534547,-1.5209856023674895
1.954141794024316,10.664202574146557,-0.01923905145912809,0.4641236478776024,-1.5509950504649725
1.9504735559612312,10.577545191890785,-0.01937398078387096,0.4480593232357822,-1.5791358403446805
1.9467798774322318,10.493933387986981,-0.01950684583717499,0.4320649283831881,-1.6052405670840006
1.9430613100689378,10.41335376785845,-0.019635968513287076,0.41614159928557015,-1.629132690459746
1.9393187310549291,10.335792692764528,-0.019759600055225143,0.4002907701241291,-1.650625644906165
1.9355533575848567,10.261236220003912,-0.019875910156064238,0.38451420630341177,-1.6695218738844833
1.9317667635450226,10.189670036404259,-0.019982974473768084,0.3688140421140044,-1.6856117845554202
1.9279608987380135,10.121079384156008,-0.020078760336854896,0.35319282365706,-1.6986726201407576
1.9241381110198736,10.055448977928556,-0.020161110380406088,0.3376535576845279,-1.7084672498700169
1.9203011717722591,9.992762912080007,-0.02022772380501054,0.32219976703702685,-1.7147428804208393
1.9164533051961001,9.933004556642867,-0.020276134891398526,0.30683555335391777,-1.7172296989869498
1.9125982219905595,9.876156440646465,-0.020303688324819824,0.291565667660855,-1.7156394675816382
1.9087401580759629,9.822200121238268,-0.020307510776196556,0.2763955892675357,-1.709664102420464
1.90488391913876,9.771116037016359,-0.020284478036463657,0.26133161306835073,-1.6989742934354308
1.901034931931063,9.722883344025284,-0.02023117678140161,0.2463809447324455,-1.6832182503853368
1.8971993034638353,9.677479733062267,-0.02014385971573262,0.23155180224669014,-1.6620207083584448
1.8933838895185853,9.634881227391116,-0.02001839233953084,0.2168535206075439,-1.6349823935681775
1.889596374311819,9.595061960821827,-0.019850188784324534,0.20229665380601006,-1.601680250106842
1.885845363752541,9.557993937619216,-0.0196341328922853,0.1878930641162268,-1.5616688738056181
1.8821404956565562,9.523646778202494,-0.01936447864439694,0.17365598237557317,-1.5144838100411466
1.8784925717230878,9.49198745859643,-0.019034720655270242,0.1596000134777428,-1.4596476740205329
1.8749137183736702,9.46298005780147,-0.018637419864914438,0.14574104752182965,-1.3966804758897926
1.8714175872561243,9.4365855365918,-0.018163960319780053,0.1320960178431324,-1.325116108944485
1.8680196122459836,9.412761584784683,-0.01760419768170131,0.11868242223179429,-1.2445276957469913
1.8647373496356487,9.391462592575092,-0.016945935058666442,0.105517495763905,-1.15456531847934
1.8615909443073142,9.372639824644992,-0.016174121029063845,0.09261690350029703,-1.0550103268633026
1.8586037908842172,9.356241899237933,-0.015269599214063276,0.07999283762665005,-0.9458502232464523
1.8558035013062402,9.342215685129943,-0.014207133185695454,0.06765152140480225,-0.8273755273477463
1.8532233597662038,9.330507696169544,-0.012952251446264787,0.05559046765201457,-0.7002921920882169
1.8509045666017916,9.321065923086692,-0.011456097652813604,0.04379661743063181,-0.5658262911996305
1.8488998198348088,9.313841685815344,-0.009646499894370993,0.032247985425674836,-0.4257703505169274
1.8472794580653438,9.308790312972064,-0.0074099397842087855,0.0209243602930533,-0.28239188308398144
1.8461440106624378,9.305867507280329,-0.00454213814111808,0.009842015409409486,-0.1381203014482437
1.8456643313212742,9.305007941085247,-0.0005071180816568731,-0.0007939501980218401,0.004955766896659969
