x,y,v_x,v_y,omega
2.375,32.48,0.0,2.2564102564102564,-4.938775510204081
2.374378839765693,32.07754831163193,-0.006901780381187349,2.215275169901627,-4.717089087487379
2.372582776196367,31.682398597563818,-0.013054481500213343,2.1752772086329055,-4.509586158374627
2.3697398965953274,31.294351155321433,-0.018533069622452304,2.1363610385047314,-4.315047572331164
2.3659655313370647,30.913215894766125,-0.02340432213601827,2.0984751898875715,-4.132381108282172
2.361363637611619,30.53881167614292,-0.027727830368936432,2.061571683703577,-3.9606061409313957
2.3560280151113484,30.170965711193116,-0.03155686407851396,2.025605704627601,-3.798840417276995
2.3500433766219264,29.80951301950145,-0.03493911913728342,1.9905353141686992,-3.646288615995755
2.343486292944555,29.454295933435418,-0.03791736616684706,1.9563211976760837,-3.502232419154207
2.3364260286540453,29.105163646013654,-0.04053001483881299,1.9229264403435309,-3.3660218715580683
2.3289252827687035,28.761971796852137,-0.04281160610943024,1.8903163281177588,-3.237067840286483
2.3210408463795793,28.424582092013356,-0.044793242658617866,1.8584581700909073,-3.114835417356619
2.3128241875849564,28.09286195414952,-0.04650296617052261,1.827321139507277,-2.9988381334073577
2.304321972642237,27.76668419980701,-0.04796608874858702,1.7968761309650496,-2.8886328708543747
2.2955765310366747,27.44592674116135,-0.049205484646547275,1.767095631764487,-2.783815381997519
2.2866262711368934,27.130472309793095,-0.05024184757324426,1.7379536056606057,-2.6840163317221784
2.2775060522300414,26.820208200405688,-0.05109391805844358,1.7094253875327803,-2.5888977962589834
2.268247517979885,26.51502603263511,-0.0517786847210725,1.6814875876958864,-2.498150159373935
2.258879395708563,26.214821529314513,-0.052311562738062325,1.6541180047551998,-2.4114893556934773
2.2494277653503327,25.919494309741452,-0.05270655235338491,1.627295546056573,-2.328654417900275
2.239916301449473,25.628947696654514,-0.05297637987839118,1.6010001549093884,-2.249405290487618
2.2303664911630197,25.343088535764686,-0.053132623304421055,1.5752127438665156,-2.173520877814387
2.2207978308725695,25.061827026807435,-0.05318582436724845,1.5499151334362455,-2.100797298506277
2.2112280036999032,24.785076565187097,-0.05314558866237508,1.5250899956786068,-2.0310463219239474
2.201673039951929,24.512753593377592,-0.05302067520400615,1.5007208022047898,-1.9640939655650709
2.192147462285665,24.244777461325178,-0.052819076643369045,1.4767917761553917,-1.899779234967671
2.182664289991427,23.98107413602974,-0.052549504403724676,1.4532451715716896,-1.8361955409859618
2.173234179869437,23.721572073029538,-0.05222949695171607,1.430111083986101,-1.7752882962832122
2.1638657407274366,23.466198265255098,-0.05186427129273501,1.4073756690632322,-1.7169147562000364
2.1545666840357134,23.21488214414953,-0.05145858083752078,1.3850256765541835,-1.6609412302292295
2.1453439036041497,22.967555475679134,-0.05101675729096822,1.3630484175613384,-1.6072424147296158
2.1362035480808688,22.72415226203926,-0.05054274852326327,1.3414317339928261,-1.555700781541446
2.127151086958435,22.48460864867704,-0.05004015283710805,1.3201639700318784,-1.5062060172564653
2.118191370703196,22.248862836282534,-0.04951224999888182,1.2992339454626183,-1.4586545084414284
2.109328685560792,22.01685499742714,-0.04896202936116444,1.2786309307083927,-1.412948868597131
2.1005668035351297,21.788527197552725,-0.04839221536841524,1.2583446234517857,-1.36899750306375
2.09190902798842,21.56382332003752,-0.04780529070614214,1.2383651267171187,-1.3267142084641732
2.083358235265519,21.342688995085375,-0.047203517326086075,1.2186829283067209,-1.2860178036158447
2.074916912706192,21.12507153220352,-0.04658895555532878,1.199288881491661,-1.2468317891435519
2.066587193373425,20.910919856051322,-0.04596348147541444,1.1801741868661162,-1.2090840332948884
2.058370887794198,20.700184445457975,-0.04532880273821501,1.1613303752821964,-1.1727064817007138
2.0502695129806328,20.492817275421572,-0.04468647296806856,1.1427492917889497,-1.1376348890380905
2.0422843189739086,20.28877176191507,-0.04403790488442121,1.1244230805055282,-1.103808570745889
2.0344163131304085,20.0880027093368,-0.043384382265581035,1.10634417036415,-1.0711701731160073
2.0266662823489217,19.890466260454296,-0.04272707086204945,1.0885052616636344,-1.0396654602382507
2.0190348134192018,19.696119848700462,-0.04206702835706079,1.0708993133789553,-1.009243116416285
2.011522311655461,19.504922152690472,-0.04140521346228282,1.053519531176501,-0.9798545627974795
2.0041290179633373,19.316833052836614,-0.04074249422797807,1.036359356088602,-0.9514537870723907
1.996855024475293,19.13181358994624,-0.0400796556391821,1.0194124538044105,-0.9239971852014701
1.98970028887714,18.94982592569547,-0.03941740656251803,1.002672704537445,-0.8974434142184888
1.982664647537329,18.770833304878128,-0.03875638610204734,0.9861341934330515,-0.8717532552432086
1.975751758281557,18.59503560080875,-0.03805349451764316,0.9671736295600378,-0.8983174630641241
1.968962072364762,18.422641070525543,-0.03738746011341085,0.9483211513644971,-0.9262790879572397
1.9622890471628183,18.253630502997453,-0.036757264352630006,0.9295740433920328,-0.9555255922484271
1.9557263273937857,18.087985165777276,-0.036161844192177696,0.9109297034988655,-0.9859461249592325
1.949267752725764,17.925686784862393,-0.03560009656361683,0.8923856399998494,-1.0174312784225044
1.9429073646162869,17.7667175250325,-0.03507088243057497,0.8739394692211553,-1.0498728465297005
1.936639412457304,17.611059970591366,-0.03457303044701161,0.8555889134581204,-1.0831635835696205
1.930458359095641,17.458697106439363,-0.034105340238134246,0.8373317993419074,-1.1171969625980254
1.9243588857951424,17.309612299402616,-0.03366658532296213,0.8191660566219378,-1.1518669322491824
1.918335896703541,17.16378927974293,-0.033255515694829096,0.8010897173746179,-1.187067670863456
1.912384522884397,17.021212122770468,-0.03287086007343685,0.7831009156527079,-1.2226933367591633
1.9065001259722423,16.881865230478276,-0.03251132783939427,0.7651978875938515,-1.2586378134215175
1.9006783015073436,16.74573331311381,-0.03217561065947919,0.7473789720113516,-1.2947944483159997
1.8949148820052608,16.61280137059821,-0.03186238380810972,0.7296426114953208,-1.33105578395728
1.8892059398156393,16.483054673698415,-0.03157030718768318,0.7119873540579345,-1.3673132797771776
1.8835477898244728,16.356478744850552,-0.03129802604750008,0.6944118553627592,-1.403457023235402
1.8779369920543862,16.23305933852524,-0.031044171397905114,0.6769148815851361,-1.4393754285042788
1.872370354218404,16.112782421016316,-0.030807360113008844,0.6594953129584752,-1.474954920932712
1.8668449342841658,15.995634149523735,-0.030586194711861973,0.6421521480702048,-1.5100796053547987
1.8613580431077206,15.881600850389109,-0.0303792628041939,0.6248845089811752,-1.544630916154569
1.855907247198896,15.77066899632797,-0.0301851361827476,0.6076916472536956,-1.5784872468304172
1.8504903716838679,15.662825182486372,-0.030002369539787462,0.5905729509862923,-1.6115235566217088
1.8451055035350454,15.558056101130497,-0.02982949878046113,0.5735279529679007,-1.643610951567431
1.839750995143778,15.456348514756115,-0.029665038900287384,0.5565563400807828,-1.6746162371655937
1.8344254683178292,15.357689227379826,-0.029507481388035096,0.5396579641002,-1.704401439597258
1.8291278187931361,15.262065053745406,-0.02935529110855405,0.5228328540600168,-1.7328232922781563
1.8238572213582323,15.16946278614606,-0.029206902612599773,0.5060812303771476,-1.7597326843153376
1.8186131356999986,15.079869158526233,-0.02906071581221906,0.48940352095425144,-1.7849740672930472
1.8133953130913398,14.993270807484507,-0.028915090950655215,0.4728003795093876,-1.8083848167158225
1.8082038040551516,14.90965422975146,-0.028768342784769856,0.4562727064133574,-1.8297945444331136
1.8030389671548388,14.829005735662776,-0.028618733885372647,0.439821672349799,-1.8490243585096495
1.797901479079996,14.751311398087886,-0.028464466946215454,0.4234487451489611,-1.8658860673619815
1.7927923462170674,14.676556996208102,-0.028303675975213376,0.407155720181965,-1.8801813256576063
1.7877129179194122,14.60472795346551,-0.02813441622095503,0.39094475473574986,-1.8917007206157066
1.782664901719885,14.535809268925881,-0.027954652662680973,0.37481840681566364,-1.9002227991662963
1.7776503807627488,14.469785441217201,-0.027762246861055252,0.35877967883632644,-1.9055130392132649
1.772671833771747,14.406640384123264,-0.02755494192785202,0.34283206665187255,-1.9073227724265187
1.7677321579193048,14.346357332835026,-0.027330345321507236,0.32697961432856165,-1.9053880721559655
1.7628346950207598,14.288918739799715,-0.027085909106770296,0.31122697495268503,-1.899428629064238
1.7579832615511921,14.234306159073611,-0.026818907221757997,0.2955794775595866,-1.88914665012328
1.7531821830767482,14.182500118101071,-0.026526409160953186,0.2800431999130912,-1.874225835429809
1.7484363338164686,14.133479975943597,-0.02620524928659788,0.2646250462810807,-1.854330514305988
1.743751182218635,14.087223767219754,-0.025851990689331496,0.24933282842829652,-1.8291050608189798
1.7391328436696412,14.04370803146579,-0.025462882077266883,0.23417534661576045,-1.7981737640374464
1.7345881417882616,14.0029076284006,-0.0250338054936169,0.2191624652197045,-1.7611414068105586
1.7301246802492667,13.964795540841273,-0.024560211606325568,0.20430517432836143,-1.7175949178485759
1.7257509278158283,13.929342669001457,-0.024037037654102547,0.18961562389181294,-1.6671066176302478
1.721476320380866,13.896517622940777,-0.023458600512144656,0.17510711011573807,-1.6092397944197459
1.717311385548057,13.86628652445587,-0.02281845318573441,0.1607939841610118,-1.5435576393634503
1.7132678979807539,13.838612836252665,-0.02210918645096714,0.14669144031904718,-1.4696369528736268
1.7093590779750116,13.81345724539094,-0.021322146946168165,0.13281512481124266,-1.3870885054714794
1.7055998523498093,13.79077764012727,-0.02044702666719241,0.11918048922952679,-1.2955864453208175
1.7020072071415855,13.770529234014283,-0.019471253424181392,0.10580180091476558,-1.1949095316775915
1.6986006777790332,13.752664906023774,-0.01837907282640023,0.09269073231311066,-1.0849968475461917
1.695403047487471,13.73713583362073,-0.01715015263539904,0.07985451660960557,-0.9660191923571849
1.6924413636574553,13.723892481432742,-0.015757445475887,0.06729384103469863,-0.8384631330352118
1.689748444873703,13.71288594096566,-0.014163874343584047,0.055001053044005994,-0.7032157093464102
1.6873651655545179,13.704069444952193,-0.012317006980695915,0.042960013772282576,-0.5616227050367126
1.6853440646245215,13.697399519963742,-0.010139670019263016,0.031150263877164488,-0.415474903941296
1.6837556081078433,13.692835501049682,-0.007509846832715234,0.019561057390156823,-0.26686583259360835
1.68270169749764,13.6903340163373,-0.004200271058432387,0.008233217191864045,-0.11787889768448545
