x,y,v_x,v_y,omega
2.375,32.48,0.0,2.6153846153846154,-6.408163265306122
2.3740369151569607,32.01389178972375,-0.01070094270043719,2.563595498795871,-6.083481660483329
2.3712628017519117,31.556954436729573,-0.020122539577884208,2.513486201139451,-5.7828158151197835
2.3668949575440386,31.108894106021037,-0.028409062731816644,2.4649619178443114,-5.503804613634307
2.3611263196162926,30.669433320463007,-0.035686914243139564,2.4179356994671277,-5.244367005665212
2.3541284565563263,30.238309628527006,-0.04206711975648593,2.372327544266224,-5.002663415985579
2.3460541472926333,29.81527442318174,-0.047647427617880225,2.328063626236685,-4.777063228356212
2.337039611210767,29.40009188973131,-0.052514084402853684,2.285075634323687,-4.566117262343106
2.327206442719274,28.99253806432849,-0.0567433432804074,2.243300203485422,-4.368534377779332
2.3166632942750587,28.592399988024198,-0.060402750544203826,2.2026784221178235,-4.183161509429145
2.3055073444978893,28.199474943731982,-0.06355224697990294,2.1631554033512375,-4.008966566143779
2.2938255820161584,27.813569765522764,-0.06624511392821947,2.124679910084522,-3.845023732937158
2.2816959307969005,27.43450021132159,-0.06852878850797678,2.0872040254840782,-3.6905007973077026
2.269188238697072,27.062090391433962,-0.07044556815678223,2.050682862156242,-3.544648187550389
2.2563651476562656,26.69617224644515,-0.07203322118551457,2.0150743043860966,-3.4067894643402035
2.243282861197715,26.336585068959415,-0.07332551724282067,1.9803387787887201,-3.2763130502670164
2.2299918226082025,25.983175064414365,-0.07435268930732325,1.94643904948963,-3.152665017369386
2.216537315244071,25.635794946848293,-0.07514183696080137,1.913340034577836,-3.0353427816806944
2.2029599947930114,25.294303566038455,-0.07571727916208326,1.8810086410870406,-2.923889577634876
2.189296361955766,24.958565562884317,-0.07610086347397753,1.8494136161811228,-2.817889604876293
2.1755791828552034,24.628451050296974,-0.07631223764338792,1.8185254125671524,-2.716963756364263
2.161837863497114,24.3038353171857,-0.07636908855760154,1.7883160664469888,-2.620765850280512
2.1480987837690226,23.98459855341523,-0.07628735286563953,1.758759086558258,-2.528979299634518
2.1343855957467905,23.670625593849937,-0.0760814029369346,1.7298293530560869,-2.4413141630160426
2.1207194904645776,23.361805679810892,-0.0757642113098788,1.701503025155528,-2.357504527987468
2.107119436775789,23.05803223645318,-0.07534749634332893,1.673757456596853,-2.277306185401085
2.093602395477859,22.75920266472898,-0.074841851411446,1.646571118116414,-2.20049455867977
2.0801835114809575,22.46521814673976,-0.07425685966523955,1.6199235262083165,-2.1268628569864547
2.0668762864608405,22.175983463401536,-0.07360119611383588,1.593795177549699,-2.0562204253700753
2.053692734141335,21.89140682345369,-0.07288271854733602,1.5681674885374888,-1.9883912685299658
2.0406435200958235,21.611399702934897,-0.07210854862501347,1.5430227394490752,-1.9232127278832651
2.0277380877341558,21.335876694332924,-0.07128514428241038,1.5183440227950948,-1.8605342942306693
2.0149847719469456,21.06475536468809,-0.07041836446436825,1.494115195480822,-1.8002165405612225
2.002395731325127,20.797960917064053,-0.06945986466694906,1.4702675558973444,-1.7395927302753802
1.9899808464244786,20.535421027069898,-0.06848330089580999,1.446842332926631,-1.6815374578028146
1.9777430603451394,20.277060942106964,-0.06749209998573766,1.4238252777726355,-1.625912935810588
1.965684730885436,20.02280841907698,-0.06648933845541247,1.4012027558938518,-1.5725901678602965
1.95380769055677,19.772593616863087,-0.06547777630754129,1.3789617131494056,-1.5214482971739778
1.9421133008179847,19.526348994701756,-0.06445988745673918,1.3570896441987097,-1.472374010183683
1.9306025011041492,19.284009216055964,-0.063437887141435,1.3355745629767772,-1.4252609897096722
1.9192758531641885,19.045511057630527,-0.062413756635907355,1.3144049750836324,-1.380009413148493
1.9081335811680655,18.810793323198318,-0.06138926554323392,1.2935698519408694,-1.3365254915273665
1.8971756079964797,18.579796761931306,-0.06036599191883196,1.2730586065815188,-1.2947210457029086
1.886401588083569,18.352463990953368,-0.0593453404468433,1.2528610709511387,-1.254513116356841
1.8758109371452865,18.128739421852984,-0.058328558867406594,1.2329674746086308,-1.2158236047746767
1.8654028590923883,17.908569190912978,-0.05731675283146204,1.213368424724808,-1.1785789416903507
1.8551763703968847,17.69190109283206,-0.05631089934079933,1.194054887285345,-1.1427097817447205
1.8451303221539268,17.478684517729256,-0.05531185891428686,1.175018169412504,-1.1081507213425361
1.8352634200570699,17.268870391236693,-0.05432038660634539,1.156249902727068,-1.0748400379041487
1.8255742424833517,17.06241111750021,-0.053337141990524445,1.1377420276782795,-1.042719448697776
1.8160612568653671,16.859260524919385,-0.052362698209304614,1.1194867787753666,-1.011733887608063
1.8067228345102568,16.659373814470246,-0.05139755018080997,1.101476670659494,-0.9818312983491945
1.7975572640100401,16.462707510464515,-0.05044212204381966,1.0837044849597537,-0.9529624427678529
1.78856276337382,16.26921941360883,-0.04949677391418327,1.066163257881168,-0.9250807230045852
1.7797374909998913,16.07886855623663,-0.04856180801835406,1.0488462684766464,-0.8981420163931451
1.7710795555945555,15.891615159593467,-0.047637474263155295,1.0317470275584673,-0.8721045220774362
1.7625870251343216,15.70742059306447,-0.04672397529499757,1.0148592672081675,-0.8469286184159722
1.7542579349590879,15.526247335239525,-0.045821471096490415,0.9981769308467616,-0.8225767303253211
1.7460973139102092,15.348287317187687,-0.04485209611327355,0.9791566030625545,-0.8492620913829707
1.7381069750198581,15.173741123359093,-0.043929447112848824,0.9602455505884712,-0.8774033920765703
1.730278635081762,15.002589333477939,-0.04305210775488667,0.9414410036465918,-0.9068866062959173
1.7226042683045673,14.834813015477053,-0.04221863421394305,0.922740307474361,-0.937599591473709
1.7150761109215173,14.670393705076059,-0.04142755893105586,0.9041409192033661,-0.9694318391359733
1.7076866651595337,14.509313385884365,-0.040677393979873924,0.8856404051487933,-1.0022742280888064
1.7004287026349663,14.351554469955278,-0.039966634070876854,0.8672364385077117,-1.036018779177599
1.6932952672392787,14.197099778717515,-0.039293759214539356,0.8489267974674488,-1.0705584105424455
1.68627967757442,14.045932524209874,-0.03865723706167034,0.8307093637285734,-1.105786692272751
1.6793755289945762,13.89803629054376,-0.038055524936593275,0.8125821214504595,-1.1415975993348786
1.6725766953084151,13.753395015516421,-0.03748707157630659,0.7945431566310984,-1.1778852616086235
1.6658773301937853,13.611992972295308,-0.03695031858624791,0.7765906569368175,-1.214543709820893
1.6592718683751548,13.473814751090824,-0.03644370162075919,0.7587229120019119,-1.2514666161076782
1.6527550266128457,13.338845240730585,-0.03596565129378591,0.7409383142229709,-1.288547027867652
1.6463218045523607,13.2070696100435,-0.03551459382271472,0.7232353600779494,-1.3256770934918558
1.6399674854818185,13.078473288955955,-0.03508895140553223,0.7056126520059025,-1.3627477784632762
1.633687637045743,12.953041949195338,-0.034687142328640654,0.6880689008898414,-1.3996485702170003
1.6274781119641957,12.830761484487926,-0.03430758079966056,0.6706029291925197,-1.436267170035392
1.6213350488075549,12.71161799012831,-0.03394867649634957,0.653213674803222,-1.4724891701228342
1.6152548728791438,12.595597741786353,-0.033608833819326854,0.6359001956629577,-1.5081977138606197
1.609234297260473,12.482687173404546,-0.03328645083257192,0.6186616752460192,-1.54327313708448
1.6032703240770967,12.372872854023502,-0.03297991787161067,0.6014974289878141,-1.577592588055378
1.5973602460471148,12.266141463355979,-0.03268761579485439,0.584406911762429,-1.61102962360964
1.591501648379199,12.162479765909772,-0.03240791384865341,0.5673897265287331,-1.6434537787793786
1.585692411092813,12.061874583436879,-0.03213916711119031,0.5504456342812055,-1.6747301069720792
1.5799307118401207,11.964312765460054,-0.03187971347428128,0.5335745654612992,-1.7047186875950013
1.5742150293170516,11.869781157597885,-0.031627870115375205,0.5167766330072585,-1.7332740978145647
1.5685441473602704,11.778266567375177,-0.03138192940441501,0.5000521472450662,-1.760244844966465
1.5629171598375287,11.689755727166553,-0.031140154181603687,0.48340163285074167,-1.7854727559984258
1.5573334764512765,11.604235253876976,-0.030900772332310467,0.46682584814454786,-1.8087923202625684
1.5517928295896979,11.521691604913013,-0.030661970574118232,0.45032580701059,-1.8300299820191233
1.5462952823758043,11.442111029942733,-0.030421887358033015,0.43390280377029233,-1.849003379225863
1.5408412380842167,11.365479517879724,-0.03017860477071892,0.41755844137427583,-1.865520525651182
1.5354314511172502,11.291782738457922,-0.02993013930668612,0.40129466331240365,-1.879378934181075
1.5300670397574474,11.22100597768922,-0.029674431357789983,0.3851137896731597,-1.8903646805587169
1.5247495009435608,11.15313406641608,-0.029409333240948465,0.3690185578061845,-1.8982514089373073
1.5194807273522135,11.088151301089198,-0.02913259555180035,0.35301216804803665,-1.90279928387923
1.5142630271095132,11.02604135581944,-0.02884185158931391,0.3370983349492507,-1.9037538982758115
1.5090991465078893,10.966787184680484,-0.028534599539839993,0.321281344372497,-1.90084515377192
1.5039922961664076,10.910370913184867,-0.028208182032177672,0.30556611668991274,-1.893786140625274
1.49894618115243,10.856773717838124,-0.02785976256757325,0.28995827605168695,-1.8822720588870037
1.4939650356856893,10.805975692719436,-0.02748629817399349,0.27446422526707986,-1.8659792443131746
1.489053663183413,10.757955702182475,-0.02708450740685278,0.2590912251436039,-1.8445643932811775
1.4842174825937904,10.712691219076053,-0.02665083247784458,0.24384747603885118,-1.8176641251103378
1.4794625822310776,10.67015814843933,-0.026181393774518235,0.22874219770250914,-1.78489508306923
1.4747957827105322,10.630330637560306,-0.02567193423154227,0.21378570095333232,-1.7458548645965593
1.4702247111509994,10.593180874786931,-0.02511774976326591,0.19898944097303567,-1.7001241971488827
1.465757889672383,10.558678881813467,-0.024513599999137162,0.1843660365098996,-1.647270951973584
1.461404842531675,10.526792307696116,-0.023853590453175724,0.1699292314606627,-1.5868568300953743
1.457176228280887,10.497486238058798,-0.023131012333355527,0.15569376450955136,-1.5184478793932419
1.4530840065142367,10.470723040398344,-0.022338118407205714,0.1416750983843727,-1.4416304184392086
1.4491416537602344,10.44646227663101,-0.021465801081709486,0.12788894347487706,-1.3560344363556116
1.445364450886428,10.42466072722948,-0.020503119738359648,0.11435049431991266,-1.261367027549103
1.441769876567476,10.405272586543852,-0.019436594916663632,0.10107329107594856,-1.1574586781304828
1.4383781602372683,10.38824990247932,-0.0182491420856441,0.08806764297442435,-1.0443247264492619
1.435213077035903,10.373543336088456,-0.016918449040637048,0.07533865025737277,-0.9222420486332726
1.4323031126216925,10.361103287546058,-0.015414488895034736,0.06288411132484434,-0.791835286644881
1.4296832008558562,10.350881337093405,-0.01369564183647972,0.050693115926853625,-0.6541557633798046
1.4273973830581845,10.34283172218008,-0.011702333693205138,0.038747049776779494,-0.5107192537717014
1.4255031032369339,10.336912112690761,-0.009345219876246279,0.027026388993441675,-0.3634513988151956
1.4240790836811956,10.333081944967205,-0.006477219631958022,0.015531030157192292,-0.21448577925147305
1.4232446919238722,10.331292936356242,-0.00279379989385688,0.004346843297941388,-0.06579188852030435
