x,y,v_x,v_y,omega
2.375,32.48,0.0,3.128205128205128,-6.163265306122449
2.3730791450063835,31.7701645893926,-0.016703086901012406,3.044276703163551,-5.70694279703487
2.3676408796387434,31.079163703622648,-0.030586177165424555,2.9644266513577655,-5.301599358113356
2.3592809629907388,30.406096416317425,-0.0421087502085284,2.888332368687641,-4.9398920434507225
2.348498843878333,29.750131785829105,-0.05164880729064929,2.815707896428189,-4.615728497838422
2.335714560880918,29.11050108234186,-0.05951887094774358,2.746298220852224,-4.324023686926326
2.32128236371314,28.486491194560145,-0.06597849572858766,2.6798747163800725,-4.060509760661339
2.3055017611624047,27.87743898479009,-0.07124413514736995,2.6162314555334563,-3.821586151703928
2.288626532595866,27.28272641608217,-0.07549698282253312,2.5551821854049632,-3.604200464540927
2.270872116264389,26.701776315050527,-0.07888924614683285,2.4965578235658303,-3.4057531518640016
2.2524216953437373,26.13404866349042,-0.0815491966414432,2.4402043639133595,-3.2240207255380873
2.233431233034463,25.579037334006316,-0.08358525822181245,2.3859811098614556,-3.0570935221502187
2.2140336549777575,25.036267201616567,-0.08508933357562379,2.3337591717885506,-2.9033249794618654
2.194342336424915,24.505291576162662,-0.08613952340561751,2.283420179984533,-2.761290076503584
2.174454019938473,23.985689910341087,-0.08680235908518028,2.234855174985684,-2.629751113158779
2.1544512646657163,23.477065746020827,-0.08713464328661964,2.1879636451904987,-2.507629401560017
2.1344045087664894,22.97904486773467,-0.08718497322839731,2.1426526877325616,-2.3939817446029994
2.1143738111769825,22.491273637220612,-0.08699500581079214,2.098836273259278,-2.287980810174978
2.0944103266341796,22.01341748692336,-0.08660051195270925,2.056434598890763,-2.1888986905846926
2.0745575580797886,21.54515955365646,-0.08603225808547545,2.0153735164735407,-2.0960930778515907
2.0548524226796374,21.086199436330723,-0.0853167453941005,1.975584025489392,-2.0089955963516175
2.035326161329078,20.636252063895796,-0.08447683156728578,1.9370018217708724,-1.9271019218345442
2.016005116353051,20.19504666151137,-0.08353225518077391,1.8995668946154434,-1.8499633852979769
1.9969113979069502,19.76232580453396,-0.08250007913314669,1.8632231660576737,-1.77717981562351
1.9780634561500743,19.337844551230923,-0.08139506657881654,1.8279181670122269,-1.7083934193015913
1.959476573446872,18.921369646259343,-0.08023000040555181,1.7936027457840986,-1.6432835313362197
1.9411632885333814,18.51267878790869,-0.07901595536393147,1.7602308050911553,-1.581562100338295
1.9231337626727703,18.11155995293054,-0.07776253038051281,1.727759064284041,-1.5229697942930733
1.9053960962392507,17.717810773489294,-0.0764780473022668,1.696146843900722,-1.4672726326204812
1.887956602853489,17.331237961382243,-0.07516972126957282,1.665355870073626,-1.4142590657984921
1.87082004709635,16.95165677521139,-0.07384380705337444,1.6353500966294467,-1.3637374366686328
1.8539898509121742,16.578890526654526,-0.07250572498293878,1.6060955429954893,-1.3155337681268817
1.8374682730460261,16.21277012239012,-0.07116016950530393,1.5775601462602187,-1.2694898306506595
1.8212565652156267,15.85313363858754,-0.06981120293295329,1.549713625936105,-1.2254614503649734
1.8053551081769204,15.499825925188173,-0.06846233653405825,1.5225273601453473,-1.1833170243820261
1.7897635303852395,15.15269823748018,-0.06711660078490511,1.4959742720980542,-1.1429362151791767
1.774508369485238,14.811611927440303,-0.06553697225858632,1.469993641292187,-1.0974215566796695
1.7596131432320217,14.476433793401402,-0.0639867342911215,1.4445988286112947,-1.0542397838333883
1.7450709943004907,14.147031770907855,-0.06246673467871229,1.4197665843760532,-1.0132410673235621
1.730874898446416,13.823279005351424,-0.0609775770958518,1.3954748552450864,-0.9742870269979121
1.717017716627368,13.505053585693712,-0.05951965611325996,1.3717027069958918,-0.9372497193626593
1.7034922396036576,13.19223829526413,-0.058093187571179004,1.3484302532613568,-0.9020107264650857
1.6902912260156908,12.884720378325152,-0.05669823493287966,1.3256385896862775,-0.8684603348517882
1.6774074348005121,12.582391321213542,-0.055334732155631276,1.303309733023383,-0.8364967946787638
1.6648336526953187,12.28514664697109,-0.05400250354170194,1.2814265647370728,-0.806025650252657
1.652562717476683,11.992885722472813,-0.05270128096817288,1.2599727787262054,-0.7769591343267492
1.6405875374987664,11.705511577145511,-0.05143071883979733,1.2389328328155527,-0.7492156193832681
1.6289011080200135,11.422930732446272,-0.05019040706240269,1.2182919036995672,-0.7227191199245605
1.617496524743999,11.145053041339793,-0.04897988229424589,1.1980358450524111,-0.6973988404859089
1.6063669949448571,10.871791537076064,-0.047798637698292915,1.1781511485452398,-0.6731887646861423
1.595505846499845,10.603062290626735,-0.046646131388767643,1.1586249075358923,-0.6500272811605194
1.5849065351100602,10.338784276190061,-0.04552179373979644,1.139444783217773,-0.6278568426837328
1.5745626499542575,10.078879244221095,-0.04442503370196572,1.1205989730340926,-0.6066236551979273
1.564467917989367,9.823271601486354,-0.04335524425360404,1.1020761811810478,-0.5862773938187559
1.5546162070840281,9.571888297681031,-0.04231180709716862,1.0838655910391646,-0.5667709432080537
1.545001528147711,9.324658718182121,-0.041294096696893504,1.0659568393861278,-0.5480601599801843
1.535618036397292,9.08151458254315,-0.040301483741532605,1.0483399922571146,-0.5301036550551974
1.5264600318849015,8.842389848365617,-0.03933333810534003,1.0310055223301278,-0.5128625940897198
1.5175219593951057,8.607220620209372,-0.03838903137114684,1.0139442877241835,-0.4963005143094979
1.5087984078057215,8.375945063228716,-0.03746793897132433,0.9971475121075966,-0.48038315623876915
1.5002920005545914,8.148606044068327,-0.03650081973415557,0.9797135240697147,-0.4831636445584091
1.4920035666609608,7.9252616316427655,-0.035572518471326205,0.9624118013699497,-0.48849946375505726
1.483924179911079,7.705881869047545,-0.034683018484168805,0.9452383081537115,-0.4962520625906871
1.4760449331825085,7.4904377079810125,-0.033832170459922636,0.9281891793813459,-0.5062876265170179
1.4683569675311532,7.278900970423926,-0.03301970476925332,0.9112607124193964,-0.5184767405399973
1.4608514985666072,7.071244312180582,-0.03224524274853731,0.8944493592618603,-0.5326940671600837
1.453519840340341,6.867441188140834,-0.03150830704508149,0.8777517193446469,-0.548818037939293
1.4463534269540053,6.66746581913036,-0.030808331096969645,0.8611645329203573,-0.5667305573217639
1.4393438320793304,6.4712931602236345,-0.030144667813246775,0.8446846749642011,-0.5863167174001193
1.4324827865666259,6.2788988704004325,-0.02951659751461848,0.8283091495853763,-0.6074645223757067
1.4257621943056282,6.090259283432129,-0.028923335189709125,0.8120350849216001,-0.6300646215073346
1.4191741464903398,5.905351379888906,-0.028364037117147467,0.7958597284977257,-0.6540100493807
1.4127109344284492,5.724152760162923,-0.027837806899291523,0.7797804430325538,-0.6791959723595844
1.4063650610258693,5.546641618405854,-0.027343700949229884,0.7637947026810785,-0.7055194401002006
1.4001292510677994,5.372796717281737,-0.026880733468768937,0.7479000897025296,-0.7328791410218615
1.3939964604094797,5.202597363437956,-0.026447880951402377,0.7320942915477316,-0.7611751606303618
1.3879598841823846,5.036023383598277,-0.02604408624072902,0.7163750983625297,-0.7903087415849748
1.382012964114989,4.8730551011822385,-0.02566826217140665,0.7007404009073745,-0.82018204438553
1.3761493950613828,4.713673313354775,-0.025319294816473433,0.6851881888966658,-0.8506979075323388
1.3703631308258923,4.557859268408663,-0.02499604636170427,0.6697165497651657,-0.8817596059783169
1.3646483893674712,4.405594643380297,-0.024697357624567,0.6543236678727871,-0.9132706066490225
1.3589996574639347,4.256861521796139,-0.02442205023227193,0.6390078241633702,-0.9451343197518226
1.3534116949131347,4.111642371443107,-0.024168928470335922,0.623767396297791,-0.9772538445293252
1.347879538345899,3.9699200220508644,-0.023936780809975283,0.6086008592869443,-1.0095317080337152
1.3423985047240132,3.831677642767435,-0.023724381119465666,0.593506786655934,-1.041869595406825
1.3369641945957225,3.6968987193016183,-0.02353048956132316,0.5784838521772667,-1.074168070044654
1.3315724951811916,3.5655670305961493,-0.023353853173728623,0.5635308322181184,-1.1063262819035982
1.3262195833611488,3.437666624884244,-0.02319320613099236,0.5486466087549599,-1.1382416620678337
1.320901928643576,3.3131817949688376,-0.023047269673989196,0.5338301731181405,-1.169809601542113
1.3156162961858742,3.192097052548192,-0.02291475169733103,0.5190806305396332,-1.2009231120608568
1.3103597499534958,3.074397101393373,-0.022794345975524155,0.5043972055892276,-1.231472466512305
1.305129656100688,2.9600668091618125,-0.02268473100541429,0.48977924859827054,-1.2613448163655607
1.299923686664836,2.8490911776066383,-0.02258456843677631,0.4752262431858375,-1.2904237832593264
1.2947398236730667,2.7414553109129365,-0.022492501056870503,0.4607378150202784,-1.3185890216659277
1.2895763637683995,2.6371443818590876,-0.02240715028806192,0.44631374196970724,-1.345715749286545
1.2844319234730146,2.5361435954634395,-0.02232711315006677,0.4319539658185409,-1.3716742415698389
1.279305445218317,2.4384381497326046,-0.0222509586299117,0.4176586057539437,-1.3963292864866514
1.2741962042856705,2.3440131930774264,-0.022177223393102463,0.4034279738563122,-1.4195395954542158
1.2691038168182251,2.252853777904825,-0.02210440675859605,0.38926259286194775,-1.4411571661085176
1.264028249083501,2.1649448098277517,-0.022030964847701052,0.37516321650389767,-1.4610265925092674
1.2589698281887085,2.0802709918602886,-0.021955303802669694,0.3611308527784014,-1.4789843183815945
1.2539292544766847,1.998816762879958,-0.021875771954059535,0.34716679052883154,-1.4948578292299761
1.2489076158603885,1.920566229543855,-0.021790650796342903,0.33327262978509864,-1.5084647797165518
1.243906404388901,1.8455030907392747,-0.02169814460789524,0.31945031634168625,-1.5196120537426372
1.238927535378826,1.773610553533775,-0.021596368523191127,0.30570218109744735,-1.5280947564479501
1.2339733694932113,1.704871239466165,-0.021483334829979984,0.2920309847078636,-1.5336951401932488
1.2290467382075023,1.6392670798927895,-0.021356937219663807,0.2784399681040993,-1.5361814710212114
1.2241509731712477,1.5767791989804323,-0.021214932660811557,0.2649329093946461,-1.5353068488266648
1.2192899400592452,1.5173877828310864,-0.021054920487036128,0.25151418755619204,-1.5308080045700894
1.214468077612458,1.461071933156017,-0.020874318180679866,0.23818885309659601,-1.522404112877956
1.2096904427064679,1.407809503921193,-0.020670333175754816,0.224962705467089,-1.5097956805297859
1.2049627624677608,1.3575769195167666,-0.020439929769523756,0.21184237631052788,-1.492663603889202
1.2002914947084706,1.3103489733432063,-0.020179789876477408,0.19883541650305028,-1.4706685360091063
1.1956838983049318,1.26609860638343,-0.01988626580646916,0.18595038314718745,-1.4434507737178124
1.1911481156638317,1.2247966665368182,-0.019555322377009427,0.1731969198668207,-1.4106309761380353
1.1866932701989483,1.1864116515150052,-0.01918246427415148,0.1605858194532924,-1.3718121722896688
1.182329582940663,1.1509094413611152,-0.018762642319632927,0.1481290514501008,-1.3265837248342027
1.178068514281709,1.1182530317488606,-0.018290128627794437,0.1358397277869069,-1.2745282124732846
1.1739229398566096,1.0884022869466392,-0.017758344633938355,0.12373196614543991,-1.215232599837893
1.1699073743635826,1.0613137426753312,-0.017159616174992183,0.11182059273548736,-1.1483055978068186
1.1660382649081413,1.036940505010186,-0.01648481387232361,0.10012060435274281,-1.0734037611687726
1.1623343880009596,1.015232312302924,-0.015722811407517884,0.0886462887538966,-0.9902695079597865
1.1588174045394328,0.9961358509561506,-0.014859653475322398,0.07740989687023098,-0.8987845254675058
1.1555126593832457,0.9795954352698288,-0.013877260926305892,0.06641980474996169,-0.7990411177505763
1.1524503636373444,0.9655541567993247,-0.012751397733705566,0.055678268906597564,-0.6914302747600611
1.1496673819873204,0.9539555372606365,-0.011448442701286555,0.045179292299375326,-0.5767359146576274
1.147209999584958,0.9447455027200995,-0.009920099927950874,0.03490796457486106,-0.45620722359084676
1.145138387249137,0.937874004374784,-0.00809392038353629,0.02484419494963383,-0.3315569484475176
1.1435345548704268,0.9332945521397882,-0.005852448126987502,0.014977128832942312,-0.20481588007720486
1.1425204071754236,0.9309567464855562,-0.0029662274817355136,0.00535161598647442,-0.07798751262567352
