x,y,v_x,v_y,omega
2.375,32.48,0.0,3.7948717948717947,-4.326530612244898
2.3738632875318086,31.768532144964077,-0.011965394402015144,3.6942635212957806,-4.00677190520354
2.3706460501204556,31.07572630506483,-0.021900262559593216,3.5984295302752614,-3.7227212571749155
2.3657025446685385,30.400709070280556,-0.030136636934273486,3.5070150464012735,-3.4692598184816115
2.3593295171078648,29.742671026157264,-0.03694786370439479,3.419701207528125,-3.242130865469774
2.351776274043124,29.10086038124808,-0.04255995802972261,3.33620031783171,-3.0377754650436826
2.343252824905158,28.474577420787725,-0.04716055921202161,3.256251897540474,-2.853202896695207
2.3339364981991975,27.86316965085908,-0.050906037692828005,3.179619364866285,-2.6858877740681235
2.323977343639858,27.266027524744015,-0.05392716819495596,3.1060872258186247,-2.53368783908362
2.3135025627949353,26.682580664014775,-0.05633368280422927,3.0354586765944003,-2.3947778793948533
2.3026201582871484,26.112294503010332,-0.05821794359352743,2.9675535445050176,-2.267596306539864
2.2914219513320093,25.5546672979066,-0.05965791909214659,2.902206509218456,-2.150801738855428
2.2799860863220887,25.00922745151961,-0.06071960732807333,2.839265558013038,-2.0432375373854814
2.2683791170426777,24.475531112914,-0.06145901666572318,2.7785906378354834,-1.9439026991827544
2.256657750256019,23.95316001729154,-0.06192379161489719,2.7200524739798704,-1.851927859405709
2.2448703075831387,23.441719536848034,-0.0621545523101598,2.663531530688634,-1.7665554194216386
2.2330579549165006,22.940836917568777,-0.06218600207550177,2.6089170933035435,-1.687123023068839
2.221255739313017,22.45015968047604,-0.062047846382221036,2.5561064550410704,-1.6130497622120497
2.2094934659133267,21.969354168794688,-0.06176555782504221,2.505004194236307,-1.5438246167651042
2.197796441502634,21.49810422497856,-0.06136101491909603,2.455521530143975,-1.4789967316607007
2.1861861065575794,21.036109983629213,-0.06085303713411053,2.407575747217589,-1.4181672099762679
2.1746805737703543,20.583086768110547,-0.060257834310364626,2.361089679294709,-1.3609821622261287
2.1632950879170245,20.138764080173033,-0.05958938519836659,2.315991246363345,-1.307126800235969
2.1520424193946144,19.70288467319433,-0.058859757142792714,2.272213037622989,-1.2563204027257364
2.1409332016751783,19.275203700754943,-0.05807937674600865,2.2296919354231637,-1.2083120108163892
2.1299762212237123,18.85548793322731,-0.05725725958521467,2.188368775394082,-1.1628767367474206
2.1191786670280273,18.44351503588811,-0.056401205632518235,2.148188038702726,-1.1198125893905182
2.1085463457352196,18.0390729027865,-0.05551796587072182,2.1090975728931856,-1.0789377366412474
2.0980838674352116,17.64195904123091,-0.05461338465567859,2.0710483382182936,-1.0400881382264564
2.087794806340312,17.251980002308606,-0.05369252160642313,2.033994176753327,-1.003115493479406
2.0776818399512234,16.868950853335374,-0.052759756173456816,1.9978916019122632,-0.9678854576811717
2.0677468697506334,16.492694688557933,-0.05181887751696578,1.9626996062713349,-0.9342760880216675
2.0579911260061006,16.12304217480636,-0.05087316189916987,1.9283794858504808,-0.9021764863963344
2.0484152588787388,15.759831129124994,-0.049925439441478585,1.8948946792165522,-0.8714856113647929
2.0390194177104144,15.402906125703446,-0.048978151804043524,1.8622106199576454,-0.842111235847969
2.029803320089371,15.052118129689696,-0.04803340210167571,1.830294601239743,-0.8139690306853493
2.0207663120638397,14.70732415569858,-0.047092998167076364,1.7991156512983324,-0.7869817571393789
2.011907420678208,14.368386949035276,-0.04615849010272653,1.7686444188416817,-0.7610785539211715
2.0032253998409772,14.035174687837433,-0.04523120292075558,1.738853067451409,-0.7361943064033082
1.9947187703931701,13.707560704504168,-0.04431226495090021,1.709715178161894,-0.7122690874489843
1.9863858551261782,13.385423224927742,-0.04340263259638355,1.6812056594847118,-0.689247660777341
1.9782248093958867,13.06864512417588,-0.04250311193299863,1.653300664219084,-0.6670790390477771
1.970233647892603,12.757113697391787,-0.04161437757525131,1.625977512455594,-0.6457160899186899
1.9624102680515245,12.45072044478578,-0.040736989172945215,1.59921462023922,-0.6251151842492119
1.9547524705243169,12.149360869689104,-0.03987140585029242,1.5729914334099928,-0.6052358813915809
1.947257977077216,11.852934288727472,-0.03901799885603187,1.5472883661861292,-0.5860406471879325
1.9399244462335818,11.56134365325067,-0.03817706265590798,1.522086744095988,-0.5674946008561322
1.9327494869378878,11.274495381225837,-0.03734882466718554,1.4973687509022773,-0.5495652874394245
1.9257369777894118,10.992300031814928,-0.03646706110624777,1.4731086113178053,-0.5304163981154377
1.918890028944492,10.714671272057632,-0.03560608462975014,1.4492993861274153,-0.5121090841812428
1.9122047219947924,10.44152490660727,-0.034765567472350406,1.425925513350087,-0.4945966659518914
1.9056772033554041,10.172779632011451,-0.03394515504752599,1.4029721139743319,-0.47783554279544
1.89930368885877,9.908356910530404,-0.03314447123283355,1.3804249542472242,-0.4617849576721535
1.8930804674114585,9.648180850885609,-0.03236312294939216,1.3582704104348469,-0.4464067820845674
1.8870039038393942,9.392178095487001,-0.031600704124967724,1.3364954358663093,-0.4316653194647867
1.881070441031262,9.14027771372118,-0.030856799118530235,1.3150875300896958,-0.41752712523557334
1.8752766014759537,8.892411100914277,-0.03013098567418857,1.2940347099829437,-0.40396084196755006
1.8696189882778482,8.648511882611686,-0.029422837463764215,1.2733254826758913,-0.39093704821928743
1.8640942857231633,8.40851582384306,-0.0287319262697621,1.252948820151733,-0.3784281197927942
1.858699259461408,8.172360743064981,-0.028057823853975688,1.2328941354069922,-0.36640810226629195
1.8534307563579078,7.939986430495711,-0.027400103551290956,1.2131512600589953,-0.3548525937811196
1.8482857040663203,7.711334570576721,-0.026758341623314193,1.1937104232987992,-0.34373863716191294
1.8432611103639018,7.486348668314246,-0.0261321184021432,1.1745622320956863,-0.33304462054034517
1.838354062286868,7.264973979271314,-0.025521019250845565,1.1556976525667724,-0.32275018573402015
1.8335617250984644,7.047157442996426,-0.024924635363928114,1.1371079924320402,-0.3128361437047205
1.8288813411182105,6.832847619689659,-0.02434256442821584,1.1187848844813002,-0.30328439648514016
1.824310228437135,6.621994629920341,-0.023774411162052107,1.1007202709852162,-0.29407786502135014
1.819845779540629,6.414550097222914,-0.023219787748538296,1.0829063889876955,-0.28520042243033517
1.8154854598577401,6.210467093409026,-0.022678314176609496,1.0653357564216666,-0.2766368322186685
1.8112268062532664,6.009700086444482,-0.0221496185020588,1.0480011589945846,-0.26837269105036327
1.807067425476852,5.81220489074957,-0.02163333703914566,1.0308956377939746,-0.2603943756896758
1.8030049925813811,5.61793861979028,-0.021129114492127437,1.0140124775669523,-0.2526889937785999
1.7990372493213123,5.426859640836476,-0.020636604034914952,0.9973451956310029,-0.24524433813938815
1.7951662223487905,5.239124595117612,-0.020111048307417723,0.9788131803570477,-0.27927987671503385
1.7913910789773233,5.054900473488491,-0.01962730297118483,0.9603880999494934,-0.3147060104666537
1.7877039848585945,4.874167221367056,-0.01918421406806539,0.9420671855393127,-0.35141921647491337
1.7840973280480275,4.696905300175789,-0.018780594464219803,0.9238477743687744,-0.3893178456949564
1.7805637249072466,4.523095667493994,-0.01841522807031729,0.9057273064922122,-0.4283018982887596
1.7770960252438799,4.352719757802731,-0.018086873649331175,0.8877033218368502,-0.4682728017729687
1.773687316764521,4.185759463754422,-0.01779426823865495,0.8697734576190335,-0.50913319103747
1.770330928911865,4.022197117899804,-0.017536130210357742,0.8519354461138109,-0.5507866892785866
1.767020436152774,3.862015474805034,-0.017311161990599407,0.8341871127785203,-0.5931376888718457
1.7637496607802987,3.705197693491357,-0.01711805245650762,0.816526374733873,-0.6360911311823417
1.7605126752894455,3.5517273201287765,-0.016955479026157783,0.7989512396090623,-0.679552284275339
1.7573038043837674,3.4015882709136527,-0.01682210945466465,0.7814598047606769,-0.7234265174453283
1.7541176266676315,3.254764815057907,-0.016716603346766428,0.7640502568787387,-0.7676190714275917
1.750948976077294,3.111241557814708,-0.016637613393629163,0.7467208719970589,-0.8120348230916243
1.7477929431027044,2.9710034234616955,-0.016583786338892393,0.729470015929387,-0.8565780433396035
1.7446448758512723,2.834035638158433,-0.016553763676184063,0.7122961451575927,-0.9011521468444288
1.74150038100468,2.7003237125891317,-0.016546182077419605,0.6951978082034538,-0.9456594321595105
1.7383553247202528,2.5698534242952498,-0.016559673548129237,0.6781736475216305,-0.9900008106151585
1.7352058335294158,2.4426107995946644,-0.01659286530278752,0.6612224019582051,-1.0340755222826812
1.7320482952874383,2.3185820949750813,-0.01664437934960481,0.6443429098268935,-1.0777808371356221
1.728879360231035,2.197753777838461,-0.016712831770430134,0.6275341126638441,-1.1210117393662948
1.7256959422035052,2.0801125064608534,-0.01679683167725258,0.6107950597320295,-1.1636605926232753
1.7224952201110564,1.96564510901732,-0.016894979822209666,0.5941249133577932,-1.2056167837201357
1.7192746396788166,1.8543385615047647,-0.017005866832943722,0.577522955195411,-1.2467663421259563
1.7160319155809336,1.7461799643757736,-0.0171280710395098,0.5609885935308264,-1.286991532282867
1.71276503402617,1.6411565176737781,-0.0172601558527376,0.5445213717533447,-1.3261704155044352
1.7094722558887065,1.539255494433494,-0.017400666646879396,0.5281209781443909,-1.3641763778914757
1.7061521204835686,1.44046421207997,-0.017548127091413887,0.5117872571558512,-1.400877620360644
1.7028034500974356,1.344770001524303,-0.01770103486788149,0.49552022237747045,-1.4361366065201346
1.6994253553987302,1.2521601736131878,-0.017857856697436256,0.4793200714237453,-1.4698094637535355
1.696017241866118,1.1626219825423405,-0.01801702259322032,0.46318720300621957,-1.5017453325001278
1.6925788173921075,1.076142585789487,-0.018176919238469025,0.4471222364975165,-1.531785658368019
1.6891101012387177,0.9927090000599996,-0.018335882376159924,0.431126034339205,-1.559763421416855
1.6856114345455078,0.912308052666571,-0.018492188078680402,0.41519972769690117,-1.5855022967471515
1.6820834926171666,0.8349263276822114,-0.01864404274596578,0.3993447458226912,-1.6088157405047625
1.678527299248859,0.7605501061126567,-0.01878957165727175,0.38356284964629705,-1.6295059956573463
1.67494424338335,0.6891652992290958,-0.01892680587440265,0.3678561701806461,-1.6473630125807088
1.6713360984354193,0.6207573740847607,-0.019053667261708172,0.3522272523912971,-1.6621632808355296
1.6677050446674144,0.5553112701101135,-0.019167951348868516,0.33667910523657374,-1.6736685708550727
1.6640536950564435,0.492811305543146,-0.01926730771398585,0.32121525862623823,-1.6816245880944063
1.6603851251608241,0.433241072308455,-0.019349217503057604,0.3058398280546859,-1.6857595482335688
1.656702907573976,0.37658331781996424,-0.019410967621659354,0.2905575876136056,-1.6857826913410778
1.6530111516524266,0.3228198120626473,-0.01944962102623092,0.27537405193710557,-1.6813827670479928
1.6493145493278356,0.2719311982337871,-0.019461982390518072,0.2602955673140699,-1.6722265440478026
1.645618427971499,0.22389682523539278,-0.019444558202497388,0.24532941161640515,-1.6579574289952426
1.6419288114906339,0.17869456047210974,-0.019393510017137135,0.23048390168133218,-1.6381943270838608
1.6382524911262537,0.13630058182674532,-0.01930459908159958,0.21576850511197493,-1.6125309465006612
1.63459710783762,0.09668914851865651,-0.01917311974612229,0.2011939507626648,-1.5805358521586177
1.6309712487725858,0.059832352043876824,-0.018993817780555367,0.18677232791921794,-1.541753725789459
1.6273845612611075,0.02569985091960092,-0.018760787603426723,0.1725171575995046,-1.4957085109827417
1.623847889239491,-0.005741402947840868,-0.018467338939903842,0.15844340942621363,-1.441909441824016
1.6203734393664981,-0.03452743201199837,-0.018105817617916294,0.14456742282809068,-1.379861408049661
1.616974987918605,-0.06069747088208999,-0.017667355517798185,0.13090667054130212,-1.3090817345006458
1.6136681458350344,-0.08429413570416244,-0.017141508519789784,0.1174792749542202,-1.2291262643059135
1.610470709652203,-0.10536346667463903,-0.016515714457381512,0.10430315631395992,-1.1396285733794667
1.6074031431764064,-0.12395475991532123,-0.015774458972055438,0.09139466727213148,-1.0403569395206185
1.6044892628565273,-0.1401200785776453,-0.01489796544772538,0.0787665818049821,-0.9312935896924929
1.6017572458217901,-0.1539133197363114,-0.013860108602140151,0.06642543039151928,-0.812738037208679
1.5992411555416064,-0.16538874792949088,-0.012625052241897628,0.054368550589281,-0.6854277685709576
1.5969833131991404,-0.17459905876266646,-0.01114170925774417,0.0425820897599061,-0.5506507217698768
1.5950381190479332,-0.1815934322507644,-0.009334018649700517,0.03104289432534183,-0.4102930620412185
1.593478700488945,-0.18641691288759432,-0.007080913550175548,0.019730586062330673,-0.26673318666321855
1.592410889959658,-0.18911473603839113,-0.004159197284424336,0.008667552367077544,-0.1224890508615884
