x,y,v_x,v_y,omega
2.375,32.48,0.0,4.0,-2.36734693877551
2.37418163295463,31.652590725334186,-0.007793971860666688,3.8800883301505977,-2.1655789412675084
2.371886346559264,30.84967490224877,-0.014065898571390003,3.7667290325676483,-1.9899718900081855
2.368403592717778,30.06993379336533,-0.019103185633239855,3.659376766322251,-1.8362099026098784
2.3639686042743495,29.312156886062404,-0.023134799542267923,3.5575461603722847,-1.7008079551577961
2.3587733095623613,28.57523016421985,-0.026344197714764865,3.460803571461554,-1.580932123248114
2.352974857141047,27.858125966644323,-0.028879158678701458,3.3687602149720233,-1.474262626101437
2.346702317674455,27.159894172430896,-0.030859312431702354,3.2810663965844373,-1.378888608289741
2.340061985113876,26.479654504028243,-0.03238195004999948,3.1974066358217796,-1.2932266694976888
2.3331415941118663,25.816589777787136,-0.033526535683426256,3.1174955188554287,-1.2159573159377808
2.3260136934213325,25.169939962299964,-0.03435823279784929,3.0410741524509954,-1.1459750450093416
2.3187383579582366,24.538996929005155,-0.03493067637449054,2.967907117023369,-1.0823488793213427
2.311365379663204,23.923099798856367,-0.03528816453058393,2.897779836774613,-1.0242909669283002
2.303936045350694,23.32163080445191,-0.03546740035046343,2.8304963004106827,-0.9711314502428854
2.296484585577272,22.73401159970745,-0.03549888320593838,2.7658770781079616,-0.9222982379319948
2.2890393601727648,22.159699959551638,-0.035408025408416005,2.7037575900426414,-0.8773006350433225
2.2816238319941267,21.598186820699826,-0.0352160524833743,2.6439865894984327,-0.8357160268927181
2.2742573696100643,21.048993621676704,-0.03494073212674402,2.586424829769402,-0.7971789934010342
2.266955911215754,20.511669906195102,-0.034596966866686334,2.5309438891029963,-0.7613723680617168
2.259732515526124,19.98579115897595,-0.034197277796456926,2.477425132031801,-0.7280198607346717
2.252597820266371,19.47095684728743,-0.033752200867854736,2.425758788811251,-0.6968799441557163
2.2455604248416123,18.966788645028842,-0.03327061270127665,2.375843137461021,-0.6677407664155359
2.238627210575942,18.472928819197918,-0.03275999935272769,2.327583775214441,-0.6404159001278552
2.231803609376389,17.989038761149615,-0.032226678738250976,2.2808929681027337,-0.6147407768709602
2.225093829655438,17.514797647252763,-0.031675985270809615,2.2356890690101223,-0.5905696852193756
2.2185010467264137,17.04990121543841,-0.0311124235770401,2.1918959958884567,-0.5677732341439715
2.212027563583885,16.594060645759193,-0.030539796827996315,2.1494427629612507,-0.5462362021588613
2.2056749469301247,16.147001534483355,-0.02996131416019505,2.1082630587134,-0.5258557074062096
2.1994441424571374,15.708462952463627,-0.029379680820637747,2.0682948652840074,-0.5065396457181368
2.1933355727014288,15.278196579577937,-0.02879717399563569,2.0294801145797132,-0.48820535321148345
2.1873492202239375,14.855965907959497,-0.028215706742375782,1.9917643770244815,-0.4707784576461079
2.181484698405313,14.44154550753754,-0.02763688200642802,1.955096579375115,-0.4541918889912969
2.1757413117672426,14.034720348113463,-0.027062038356148062,1.9194287484732313,-0.4383850246949286
2.1701181074180296,13.635285172814335,-0.026492288779215042,1.8847157781851251,-0.42330294926927353
2.164613918962537,13.243043918308341,-0.025928553654047337,1.850915217110065,-0.40889581117921814
2.1592274040028614,12.857809177644889,-0.025371588819053225,1.8179870749228313,-0.39511826278831286
2.153957076178596,12.47940170200426,-0.0248220095072844,1.7858936454641208,-0.3819289714005216
2.148801332547752,12.107649938015165,-0.024280310786462648,1.7545993449082224,-0.36929019132264024
2.14375847698605,11.742389597629604,-0.023746885039277122,1.7240705635256974,-0.3571673884374174
2.138826740179056,11.383463257838443,-0.023222036932089678,1.69427552972347,-0.34552891007934905
2.1340042966951094,11.030719987772628,-0.02270599624835736,1.6651841851890674,-0.3343456940913629
2.1292892795541682,10.684015000968067,-0.02219892890346334,1.6367680700924672,-0.3235910118494808
2.12467979264646,10.343209330780255,-0.021700946408042134,1.609000217410507,-0.3132402408051381
2.120173921303037,10.00816952712076,-0.021212114005512005,1.581855055537077,-0.30327066273641134
2.1157697412765892,9.678767372854313,-0.020732457674940516,1.5553083184290926,-0.2936612844405989
2.1114653263537746,9.354879618344683,-0.020261970161391203,1.5293369626149973,-0.28439267805827895
2.107258754788814,9.03638773277175,-0.0198006161715674,1.503919090460561,-0.27544683860699026
2.1031481147213293,8.723177670962947,-0.019348336852096068,1.4790338791470967,-0.26680705663245274
2.0991368637175767,8.415139893198148,-0.018854053659832226,1.454659242422411,-0.2570057375676959
2.0952279865817034,8.112168904926605,-0.018373347634198352,1.4307787411161088,-0.2476637016484096
2.091418666216506,7.8141628262894045,-0.017905893939111798,1.4073743887620027,-0.23875390686756914
2.0877061544593287,7.521023466404792,-0.017451360891147204,1.3844290387105143,-0.23025120551302478
2.084087773238863,7.232656152157709,-0.017009412637099305,1.3619263350712296,-0.22213219048056965
2.0805609152138063,6.948969566934501,-0.0165797114110582,1.3398506670545642,-0.21437505571287588
2.077123043975483,6.669875598617558,-0.016161919430113806,1.3181871264401253,-0.2069594693169895
2.073771693884973,6.395289196209319,-0.015755700479510408,1.2969214679240695,-0.1998664580762759
2.0705044696053716,6.125128234504693,-0.015360721230976121,1.2760400721199763,-0.19307830221586494
2.0673190453812724,5.859313386276284,-0.014976652331875404,1.255529911007743,-0.18657843940641144
2.064213164110175,5.597768001477952,-0.014603169297622298,1.2353785156430308,-0.18035137710165047
2.0611846362442163,5.34041799301005,-0.014239953235319921,1.2155739459560435,-0.17438261240274333
2.0582313385551188,5.087191728623939,-0.013886691422748917,1.1961047624831054,-0.1686585587284697
2.05535121279056,4.838019928574994,-0.013543077763522217,1.176959999887784,-0.16316647864637684
2.052542264246071,4.592835568662043,-0.013208813136377761,1.1581291421403301,-0.1578944222873074
2.0498025602730676,4.351573788317623,-0.012883605654128572,1.1396020992350981,-0.1528311708253765
2.0471302287405884,4.11417180343771,-0.012567170845674474,1.1213691853355063,-0.14796618455840316
2.044523456465664,3.8805688236617506,-0.012259231772654224,1.1034210982450705,-0.14328955517083589
2.0419804876250076,3.6507059738343415,-0.011959519090739728,1.0857489001112188,-0.1387919618030569
2.0394996221587376,3.4245262193986825,-0.011667771064210868,1.068343999276023,-0.13446463058822758
2.0370792141751624,3.2019742954892507,-0.01138373354127032,1.0511981331947564,-0.1302992973510842
2.0347176703641923,2.9829966395071175,-0.011107159896537249,1.034303352349366,-0.12628817319278066
2.032413448425697,2.7675413269760263,-0.010837810946275051,1.0176520050895828,-0.12242391271241845
2.0301650555180184,2.5555580104909694,-0.010575454841142785,1.0012367233395456,-0.11869958463965881
2.0279710467309355,2.346997861583503,-0.01031986694059638,0.9850504091125268,-0.1151086446740992
2.0258321203554663,2.141951180442348,-0.010050860444827944,0.9677751255651597,-0.1375960527043356
2.0237469160097645,1.9405206717538057,-0.009808228561855146,0.9506106714685864,-0.16182552705276812
2.021709903302141,1.7426833799440473,-0.009591892463129123,0.933554012433878,-0.1876936657682836
2.019715577969514,1.5484169746172611,-0.009401682133317046,0.9166022287736195,-0.2150996911460929
2.01775848018876,1.3576997269510471,-0.00923734435005801,0.8997525109046124,-0.24394523282189626
2.0158332112793733,1.1705104870190084,-0.009098550025053742,0.8830021551147889,-0.27413411677179844
2.0139344489268174,0.9868286619655109,-0.008984900951668337,0.8663485596804386,-0.30557215939918064
2.012056961046852,0.8066341949602567,-0.00889593600038217,0.8497892213219842,-0.3381669659033276
2.010195618402827,0.6299075448626397,-0.008831136799855444,0.8333217319886564,-0.3718277321326812
2.0083454060803545,0.45662966652755443,-0.008789932937978362,0.816943775964534,-0.40646504912805886
2.0065014339168874,0.28678199168577123,-0.008771706714090865,0.800653127290553,-0.4419907095579164
2.0046589459775035,0.12034641033283577,-0.00877579747051939,0.7844476474992795,-0.4783175152385419
2.0028133291625876,-0.04269474743904311,-0.008801505528676347,0.7683252836615047,-0.5153590849166804
2.0009601210280983,-0.20235872923183962,-0.008848095752175367,0.7522840667460937,-0.5530296614701783
1.9990950168946657,-0.3586623778213678,-0.008914800756707359,0.7363221102970322,-0.5912439176533812
1.997213876317915,-0.5116221483931582,-0.009000823783774694,0.7204376094342994,-0.6299167594777348
1.995312728989078,-0.6612541256035129,-0.009105341252768174,0.7046288401881028,-0.6689631262737434
1.9933877801321942,-0.8075740405370766,-0.009227505003267909,0.6888941591791777,-0.7082977864274554
1.9914354154619842,-0.9505972876353326,-0.009366444236828027,0.6732320036613381,-0.7478351277221972
1.9894522057648092,-1.0903389416741405,-0.009521267164837244,0.6576408919463298,-0.7874889411434776
1.9874349111640397,-1.2268137748732144,-0.009691062366302338,0.6421194242353502,-0.8271721969208358
1.9853804851306405,-1.3600362742260046,-0.009874899856546143,0.6266662838864359,-0.866796811483782
1.9832860782998982,-1.490020659145081,-0.010071831864809786,0.6112802391523902,-0.9062734038986509
1.9811490421559592,-1.6167808995262476,-0.010280893315560542,0.5959601454301159,-0.9455110402277838
1.978966932647312,-1.7403307343436865,-0.010501102004888066,0.5807049480692771,-0.9844169641105243
1.9767375137985332,-1.8606836908995703,-0.010731458459673604,0.565513685796277,-1.0228963117054977
1.9744587613866331,-1.9778531048641526,-0.010970945463184237,0.5503854948187766,-1.060851808953965
1.9721288667542356,-2.0918521412572133,-0.011218527226315465,0.5353196136865892,-1.098183448923123
1.9697462408366975,-2.2026938165389893,-0.01147314817881065,0.5203153889970006,-1.1347881467646255
1.967309518486241,-2.3103910219985693,-0.011733731349345886,0.5053722820466358,-1.1705593695761585
1.9648175631833438,-2.414956548651027,-0.011999176297293773,0.4904898765482291,-1.2053867381819876
1.9622694722341505,-2.5164031138812746,-0.012268356552166267,0.4756678875493884,-1.239155597552207
1.959664582562721,-2.614743390103726,-0.012540116509067514,0.4609061717120569,-1.2717465522615805
1.9570024772186874,-2.7099900357428055,-0.012813267719825733,0.4462047391362856,-1.303034963051069
1.9542829927345913,-2.8021557288808765,-0.013086584509660562,0.431563766940577,-1.3328904002053386
1.951506227483077,-2.8912532039682475,-0.01335879883809266,0.4169836148439129,-1.3611760491093978
1.9486725512025176,-2.977295292045227,-0.01362859431009446,0.4024648430320672,-1.3877480630157941
1.9457826158809182,-3.060294964990092,-0.01389459922894706,0.3880082326332961,-1.4124548577695846
1.942837368212493,-3.1402653843800863,-0.01415537856557743,0.37361480917618717,-1.4351363430458028
1.9398380638696198,-3.2172199556363807,-0.014409424699882573,0.35928586945521707,-1.4556230846196971
1.936786283865581,-3.2911723882192874,-0.014655146767153352,0.3450230122867374,-1.473735392412178
1.9336839533213028,-3.3621367627476957,-0.014890858416446984,0.33082817369807965,-1.4892823296772928
1.930533362993135,-3.4301276060369688,-0.01511476375658062,0.3167036671521202,-1.5020606399395833
1.9273371939697732,-3.4951599751816005,-0.015324941227816927,0.3026522294634268,-1.5118535904620012
1.9240985460062952,-3.557249551950825,-0.015519325091022428,0.28867707310062785,-1.5184297345926097
1.9208209700341377,-3.616412748912026,-0.0156956841676198,0.2747819455774774,-1.5215416009808564
1.917508505470845,-3.67266682883934,-0.015851597387550306,0.2609711965874013,-1.5209243263723369
1.914165723057159,-3.7260300390873553,-0.015984425599934782,0.24724985339369793,-1.51629426195792
1.910797774078587,-3.7765217626859453,-0.01609127895789151,0.2336237046881251,-1.507347603240299
1.9074104469949487,-3.824162687898884,-0.016168978981522433,0.22009939257794192,-1.493759123289805
1.9040102327221955,-3.8689749978172756,-0.016214014092317954,0.20668451140673189,-1.4751811338072311
1.9006044001145757,-3.9109825811206065,-0.016222486932633198,0.19338771052975198,-1.4512428645183644
1.897201083629027,-3.9502112642648513,-0.016190051024972486,0.18021879560591422,-1.4215505491902771
1.8938093857958596,-3.9866890637905783,-0.016111833100432283,0.16718881892484042,-1.3856886505185528
1.890439498101643,-4.020446454794943,-0.015982335415915826,0.15431014302149548,-1.343222866723516
1.887102845433192,-4.051516647306791,-0.015795309045523648,0.14159645232945425,-1.293705867423134
1.8838122617098563,-4.079935855531204,-0.015543583557670987,0.1290626736173714,-1.2366871392100551
1.880582208376993,-4.10574353460818,-0.015218829136265792,0.11672474616332207,-1.171728916572847
1.8774290541087444,-4.128982544400138,-0.014811211513721822,0.10459915661723711,-1.0984309446511582
1.8743714451418882,-4.149699178866072,-0.014308873884907406,0.0927021240106792,-1.0164677025497935
1.8714308140402944,-4.1679429732567925,-0.01369713660646117,0.08104829875808726,-0.9256424349833956
1.8686321050882737,-4.183766174643921,-0.012957234365165929,0.06964885730980341,-0.8259621357503748
1.8660048446771056,-4.197222750092607,-0.012064293360245256,0.05850900410623879,-0.7177347806108598
1.8635847689795766,-4.208366849693078,-0.010984046616221406,0.04762527780300842,-0.6016814352041071
1.8614163715013614,-4.217250817006182,-0.009667357938208766,0.036983934702767514,-0.47903716747579017
1.8595570560367607,-4.22392328673169,-0.008040408391321785,0.02656339601637521,-0.35158480968400635
1.8580845251235774,-4.228428909232527,-0.005983695543758752,0.016347294467776365,-0.22153610860170617
1.8571130921439858,-4.230814044238777,-0.0032680471190170706,0.006368277020303131,-0.09117652225431266
