x,y,v_x,v_y,omega
2.375,32.48,0.0,3.7948717948717947,-3.224489795918368
2.3742380291073975,31.80556706429817,-0.00846634325113721,3.698827490704051,-2.9980408958666342
2.372075826285861,31.148035617716793,-0.015558132543709887,3.607077471311242,-2.795569166168856
2.368741488915955,30.506659607327308,-0.021490060455252567,3.5193226441275116,-2.613807841383963
2.3644277307954873,29.880744303500347,-0.02644058532771801,3.4352918428387182,-2.4500133387516754
2.3592978024187325,29.26964157312357,-0.03055861885844793,3.3547384946809786,-2.301870495241654
2.353490328556012,28.672745708141647,-0.03396886850511384,3.2774377828959733,-2.1674168163733567
2.347123278873948,28.089489728367532,-0.03677612796226642,3.203184214594176,-2.044981567303207
2.3402972407556066,27.519342091926966,-0.03906874001930343,3.1317895236343434,-1.9331365272681138
2.333098127741901,26.961803758060068,-0.040921404577421834,3.063080852664531,-1.8306559657828876
2.325599429410311,26.416405556062465,-0.04239746577358339,2.9968991695310803,-1.7364839523657873
2.317864087049197,25.88270582144424,-0.04355078268323769,2.933097881782509,-1.6497075301095894
2.309946062708777,25.36028826631675,-0.04442726554364774,2.871541619634073,-1.569534602256335
2.3018916560200107,24.84876005588087,-0.04506614210931409,2.8121051629867995,-1.4952756254560944
2.2937406127494935,24.347750066909338,-0.045501005340875825,2.7546724922524373,-1.4263283921000816
2.2855270607813294,23.8569073074601,-0.045760683194279936,2.6991359460724187,-1.3621653306212584
2.277280302613491,23.37589947985886,-0.04586996311503583,2.645395471719147,-1.3023228670305322
2.269025488164771,22.90441167134883,-0.04585019742630027,2.5933579561700886,-1.2463924807252156
2.260784187430513,22.44214515880467,-0.04571981073211715,2.5429366276538734,-1.194013158419346
2.2525748790853,21.988816315609157,-0.04549472643691429,2.4940505189629683,-1.1448650061752152
2.244413368340844,21.54415561024608,-0.045188726279269516,2.4466239850712213,-1.0986638242118445
2.236313145096318,21.107906687412537,-0.04481375421546265,2.4005862686348234,-1.055156484915229
2.228285691563202,20.679825523530724,-0.044380173930271744,2.3558711078297345,-1.0141169831890284
2.220340747026078,20.25967964947149,-0.043896987593327406,2.312416381717331,-0.9753430514412486
2.212486536150353,19.84724743411082,-0.043372022136946804,2.2701637889567614,-0.9386532502507623
2.2047299662162954,19.442317423045232,-0.04281208824147443,2.22905855621645,-0.9038844609936669
2.1970767978051957,19.044687727407307,-0.04222311632629778,2.189049173093796,-0.8708897191363272
2.189531792755111,18.654165458261904,-0.041610273119090685,2.1500871507440364,-0.839536337072971
2.182098842614106,18.270566202536834,-0.04097806178096462,2.1121268017567307,-0.8097042737385391
2.1747810803269747,17.89371353685884,-0.040330408076050255,2.0751250391098726,-0.7812847151095862
2.1675809774797736,17.52343857603337,-0.039670734670626887,2.039041192284258,-0.7541788353942875
2.1605004290812206,17.159579553232163,-0.039002025313294574,2.003836838840226,-0.7282967134285259
2.153540827569633,16.801981429241035,-0.038326880371016635,1.9694756499501123,-0.7035563827164295
2.1467031274893174,16.450495528376315,-0.03764756496581888,1.9359232485467743,-0.6798829968238586
2.139987902073529,16.104979198906577,-0.036966050765167215,1.9031470788947509,-0.6572080945679694
2.1333953927959723,15.765295496019345,-0.03628405231879103,1.8711162865189426,-0.6354689517390244
2.1269255528042383,15.431312885554174,-0.03560305870047473,1.8398016075385186,-0.6146080080184358
2.12057808502214,15.10290496688592,-0.03492436110061948,1.8091752665531982,-0.5945723593819525
2.114352475600238,14.779950213487616,-0.034249076920515355,1.779210882316854,-0.5753133076499327
2.108248023301859,14.462331729833103,-0.03357817083925422,1.749883380511065,-0.5567859600096472
2.102263865333233,14.149937023417099,-0.03291247325658705,1.7211689130000938,-0.5389488723219815
2.0963990000589425,13.842657790776201,-0.032252696457748996,1.6930447830099005,-0.521763730865189
2.0906523069859557,13.540389716489774,-0.03159944879766103,1.6654893757281772,-0.5051950678850166
2.0850225643497144,13.243032284225862,-0.03095324716057557,1.6384820938708282,-0.4892100069331006
2.0795084645928217,12.950488598975166,-0.030314527916010053,1.6120032978035501,-0.4737780345002485
2.074108627989824,12.662665219686726,-0.029683656561745188,1.5860342498457953,-0.4588707949016125
2.068821614639561,12.379472001582897,-0.029060936218952775,1.5605570624189822,-0.4444619057581447
2.063645935018831,12.100821947489326,-0.028446615122491303,1.5355546497318031,-0.4305267917525676
2.058580059267061,11.826631067568368,-0.02784089323050584,1.511010682723307,-0.41704253462635266
2.053622425350806,11.556818246892423,-0.02724392806122125,1.4869095470094298,-0.4039877376335782
2.048774557082043,11.291305539290768,-0.026621274925034338,1.4632316485645172,-0.39045250527538244
2.0440375061730416,11.030017605910018,-0.026012624063868575,1.4399676112216033,-0.37748463056855913
2.039408771507588,10.772881185945597,-0.02541776110783668,1.4171037217164297,-0.3650540066090822
2.0348858920320314,10.51982543536182,-0.024836455287236485,1.3946268403255297,-0.3531324253545334
2.030466449426627,10.270781826378013,-0.02426846255059235,1.3725243706056784,-0.34169343869270297
2.026148070251655,10.025684052231206,-0.023713528282424186,1.3507842310255096,-0.33071223103609404
2.0219284276359857,9.784467936887221,-0.023171389669463624,1.329394828352109,-0.32016550237532043
2.0178052425675133,9.54707134939553,-0.022641777758006198,1.3083450326666686,-0.31003136083321425
2.0137762848377077,9.313434122605113,-0.02212441923983379,1.287624153893527,-0.30028922385817947
2.0098393736861624,9.083497975978435,-0.021619037999558555,1.2672219197362369,-0.2909197272814036
2.0059923781855007,8.857206442259123,-0.021125356452238113,1.2471284549227715,-0.2819046415392331
2.002233217402104,8.6345047977658,-0.020643096696614946,1.2273342616696985,-0.2732267944304401
1.998559860363844,8.41533999610013,-0.020171981506273855,1.2078302012821984,-0.2648699998392183
1.994970325862229,8.199660605071543,-0.019711735178333113,1.1886074768132198,-0.2568189919093947
1.9914626821130548,7.987416746654368,-0.01926208425693783,1.1696576167109418,-0.24905936420426772
1.9880350462967216,7.778560039805367,-0.018822758146765515,1.1509724593890784,-0.2415775134303267
1.9846855839968174,7.5730435459809975,-0.018393489629946917,1.1325441386594752,-0.23436058734245427
1.9814125085532825,7.370821717204258,-0.017974015298217835,1.1143650699709495,-0.22739643648354593
1.9782140803444779,7.171850346540651,-0.01756407591072208,1.0964279374024533,-0.220673569443257
1.9750886060107138,6.976086520851812,-0.017163416686658106,1.0787256813624262,-0.21418111134918505
1.9720344376302352,6.783488575703721,-0.01677178754088096,1.0612514869496834,-0.20790876532956376
1.9690499718572902,6.594016052314156,-0.016388943269619018,1.0439987729343823,-0.20184677670978446
1.9661336490306882,6.407629656431212,-0.016014643692625622,1.0269611813205541,-0.19598589972604138
1.9632839522601908,6.224291219041465,-0.01564865375734544,1.0101325674543933,-0.19031736655835652
1.9604994064971277,6.043963658812519,-0.015290743610021943,0.9935069906449936,-0.18483285850238856
1.9577816127693153,5.866828225120301,-0.014906964476782816,0.9746644948240781,-0.22731356569168826
1.955129140278419,5.693075400010965,-0.014564952088731473,0.9559224508351991,-0.27087177240510657
1.95253459482907,5.522687324819373,-0.014263330681812916,0.9372783846269225,-0.3154107726934692
1.9499908310800738,5.355646577747052,-0.0140007109736998,0.9187299161766298,-0.36083505966332335
1.9474909547413861,5.191936157137011,-0.013775692789498984,0.900274757268266,-0.4070501153439454
1.9450283243261586,5.031539465118907,-0.013586867379696053,0.8819107095995691,-0.45396220062698733
1.9425965525117577,4.874440291565033,-0.013432819446978718,0.8636356632212556,-0.5014781443400641
1.9401895071608781,4.720622798296919,-0.01331212889612778,0.8454475953133628,-0.5495051304832108
1.93780131205154,4.570071503481099,-0.013223372318738477,0.827344569306873,-0.5979504826163662
1.9354263473628637,4.422771266150907,-0.013165124222111227,0.8093247343619119,-0.6467214443362139
1.9330592499620454,4.278707270788779,-0.013135958009203107,0.7913863252172773,-0.6957249547210758
1.9306949135369542,4.137865011900537,-0.013134446714032251,0.7735276624298664,-0.7448674175522072
1.9283284886182,4.000230278509434,-0.013159163494347537,0.7557471530268148,-0.7940544630377995
1.9259553825344473,3.8657891384932093,-0.013208681880683203,0.7380432915978914,-0.8431907006710779
1.9235712593451588,3.734527922681906,-0.013281575778077771,0.7204146618610257,-0.8921794617448303
1.9211720397958978,3.606433208627827,-0.013376419213710165,0.7028599387398653,-0.9409225299200455
1.9187539013428234,3.4814918039513216,-0.01349178582045082,0.6853778909990995,-0.9893198581045212
1.9163132782951313,3.3596907291572045,-0.013626248042794095,0.6679673844910812,-1.037269269736565
1.91384686212698,3.241017199806148,-0.013778376047777418,0.6506273860761975,-1.0846661423874342
1.9113516020139483,3.1254586079132203,-0.013946736319242167,0.6333569682896691,-1.1314030713919732
1.908824705653399,3.013002502431622,-0.014129889909083872,0.6161553148392221,-1.1773695109880864
1.9062636404333304,2.903636568663245,-0.014326390313897944,0.5990217270316337,-1.2224513901902911
1.9036661350205186,2.7973486064186375,-0.014534780939564982,0.5819556312417931,-1.2665307003390054
1.9010301814460815,2.6941265067268354,-0.014753592109737233,0.5649565875559953,-1.309485050954192
1.8983540377751957,2.593958226870008,-0.014981337566771516,0.5480242997420709,-1.3511871901791142
1.8956362314577118,2.4968317634881423,-0.015216510405273664,0.5311586267231035,-1.3915044857281442
1.8928755634680337,2.402735123464719,-0.015457578368924916,0.514359595759377,-1.4302983618547835
1.8900711133560875,2.311656292264594,-0.015702978430477535,0.4976274175753618,-1.4674236874384068
1.8872222453467167,2.22358319934931,-0.015951110562531373,0.4809625037055597,-1.5027281098616345
1.8843286156427466,2.138503680242021,-0.016200330592693993,0.4643654863754283,-1.5360513289325997
1.8813901811075415,2.0564054347528575,-0.016448942020694635,0.44783724128192803,-1.567224304726136
1.8784072095265838,1.9772759808051283,-0.01669518665661236,0.4313789136928281,-1.5960683929188335
1.8753802916748556,1.9011026032217373,-0.016937233918145812,0.4149919483448677,-1.6223944010412767
1.8723103554482026,1.8278722967388,-0.017173168600221164,0.3986781236877585,-1.6460015591658614
1.8691986823530533,1.7575717024085762,-0.01740097690143692,0.38243959109250314,-1.6666763990378928
1.8660469266907207,1.6901870364358302,-0.017618530457814675,0.3662789197157861,-1.684191536759442
1.8628571378210992,1.625704010361023,-0.01782356809353534,0.3501991477820574,-1.698304356171699
1.8596317859473137,1.564107741361429,-0.018013674948523847,0.33420384110232687,-1.7087555935269458
1.8563737919297072,1.5053826512911535,-0.018186258580438035,0.31829715967850575,-1.7152678295953498
1.8530865617172125,1.4495123529303129,-0.01833852155839344,0.3024839332197375,-1.717543904046363
1.8497740260806523,1.3964795217750599,-0.018467429958941024,0.2867697462830565,-1.7152652803031423
1.8464406864518894,1.346265751596171,-0.01856967702731256,0.2711610334823633,-1.708090409343171
1.8430916678244325,1.2988513919607492,-0.018641641055545152,0.255665184688971,-1.6956531714405667
1.8397327798700687,1.254215366008836,-0.018679336215162462,0.2402906592211866,-1.6775615205420713
1.836370587696633,1.2123349670980623,-0.018678354600789437,0.2250471064540839,-1.6533965241100987
1.8330124940541053,1.1731856336228788,-0.0186337969828512,0.2099454877146199,-1.6227120925277325
1.8296668353564847,1.1367407026085807,-0.018540188546266514,0.19499819022200743,-1.585035842057412
1.8263429947371632,1.10297114492284,-0.018391373890639454,0.18021911739733107,-1.53987175600612
1.8230515366849827,1.071845288658544,-0.01818038224469809,0.16562372998374403,-1.4867056306677613
1.8198043699376045,1.0433285431737929,-0.017899248281728078,0.15122899762461037,-1.425014755120956
1.816614948782573,1.0173831454601476,-0.017538764551955317,0.13705319919368159,-1.3542839209748374
1.8134985286548324,0.9939679642306452,-0.01708812575627169,0.12311548113411801,-1.2740307205843742
1.8104725014657115,0.9730384166264336,-0.016534398567294314,0.10943504780157384,-1.1838441373160093
1.8075568520069036,0.9545465780296318,-0.015861706530570573,0.09602982549623382,-1.0834414375666195
1.8047748032087343,0.938441594065953,-0.015049946782424438,0.08291444076686569,-0.9727486576380487
1.8021537617729027,0.9246705236262898,-0.014072735837926034,0.07009745300718218,-0.8520078830578319
1.799726748441976,0.9131797215224644,-0.01289407895014662,0.057578125924218876,-0.7219067284853612
1.7975346237054055,0.9039167423448156,-0.01146286256730403,0.045343864938559734,-0.5837069057159254
1.7956296740584297,0.8968323901243593,-0.009703244621316845,0.03337115973319439,-0.4393159788584153
1.794081802149528,0.8918817260065666,-0.00749533214425846,0.021636219353378106,-0.29120755192086967
1.7929911823329825,0.8890208195091418,-0.004622665817356098,0.010151630618027332,-0.14208144174774068
1.7925286650582493,0.8881856172766653,-0.000516415013011774,-0.000871605812734268,0.005725465532550822
