x,y,v_x,v_y,omega
2.375,32.48,0.0,2.871794871794872,-7.877551020408164
2.3733528879327133,31.912168350269763,-0.016471120672867195,2.8065216255074534,-7.402262461760814
2.368640799055919,31.357129152948406,-0.030649768095077336,2.743870347706127,-6.969765769654188
2.361291533094305,30.81437620459393,-0.042842891521058385,2.6836591358386244,-6.575000117484955
2.3516760378988484,30.283437793648243,-0.053312060433511575,2.625724973618249,-6.2136239971335385
2.340116726132192,29.763873196438134,-0.0622810572330534,2.5699209984828366,-5.881896399078762
2.3268944181846125,29.255269669328676,-0.06994202224273875,2.516114272611746,-5.576580448065732
2.3122541694019527,28.757239847269467,-0.07646046558385829,2.4641839479803505,-5.294864689934736
2.2964101845286176,28.26941947820245,-0.0819793831494944,2.4140197426898102,-5.0342983770426875
2.279549980434537,27.791465437390872,-0.08662265779131215,2.3655206654259784,-4.792737945643654
2.2618379261002097,27.32305397690565,-0.09049788555195762,2.318593939426233,-4.568302507515305
2.2434182639441826,26.863879174144053,-0.0936987360083167,2.2731540881897607,-4.359336650988646
2.22441769708474,26.413651549989673,-0.0963069325861081,2.2291221533540346,-4.164379205785614
2.204947611724997,25.97209683251561,-0.09839392101132302,2.1864250213865777,-3.98213690161844
2.185105991580569,25.538954846325513,-0.10002228043295547,2.1449948405144057,-3.811462063730534
2.1649790714220316,25.11397851097395,-0.10124692115242116,2.1047685130011913,-3.6513336549090747
2.1446427688485343,24.696932934598607,-0.10211610458254845,2.0656872507522777,-3.500841104262732
2.124163926941464,24.28759459107563,-0.10267231448815567,2.0276961844774486,-3.359170466568347
2.1036013951598145,23.88575057078618,-0.10295300332834133,1.990744018417105,-3.2255925384611146
2.0830069714942754,23.491197896539617,-0.10299123332704553,1.954782724048488,-3.099452623847859
2.0624262253099213,23.103742897403066,-0.10281622851649903,1.9197672673170227,-2.9801616942083875
2.0418992173327344,22.723200634186764,-0.10245385125536755,1.8856553648460066,-2.867188732627519
2.021461130758463,22.349394371170845,-0.10192701448734483,1.8524072653131967,-2.760054085559484
2.0011428253923045,21.982155089361346,-0.10125603917424136,1.8199855527817748,-2.65832367508799
1.9809713249918364,21.62132103715679,-0.10045896483044023,1.7883549692638052,-2.5616039480752635
1.9609702465247616,21.266737314810563,-0.09955181984030721,1.7574822541984498,-2.469537458086465
1.9411601788200044,20.918255489504524,-0.09854885720726635,1.7273359988619126,-2.3817989921181724
1.9215590170469317,20.57573323821786,-0.09746276052346164,1.6978865140047368,-2.298092167575755
1.9021822585715058,20.239034015892866,-0.09630482423079505,1.6691057092452057,-2.2181464361333036
1.883043264984185,19.908026746673983,-0.09508511164241232,1.6409669829436127,-2.1417144404716906
1.8641534944511418,19.582585536234852,-0.09381259368802111,1.6134451214477206,-2.068569677748085
1.8455227079903156,19.262589403416058,-0.09249527092023899,1.5865162067402103,-1.9985044302651438
1.8271591528023898,18.947922029578173,-0.09114028095902106,1.5601575316386156,-1.931327929392592
1.8090697253818777,18.638471524234248,-0.08975399324609806,1.5343475218006686,-1.8668647235213447
1.791260116785045,18.334130205666582,-0.0883420927222301,1.5090656638759712,-1.8049532248427418
1.7737349421308715,18.034794395356908,-0.08690965381950555,1.4842924392207821,-1.745444413159539
1.7565163914612356,17.740370810982675,-0.08527585287685288,1.4599434045215651,-1.6828010020964177
1.7396235764881531,17.450769404502154,-0.08365229685397146,1.4360706602836089,-1.6230177534365104
1.7230542112392984,17.16589663308885,-0.08204135563457672,1.4126570538494816,-1.565930094858339
1.706805569056986,16.885662304693213,-0.08044506618854508,1.3896862301068529,-1.5113847257238375
1.6908745454313687,16.609979423245257,-0.07886517006762973,1.3671425843726894,-1.4592387217319822
1.6752577137530347,16.338764042944547,-0.07730314671571166,1.345011218634422,-1.4093587202616782
1.659951374773538,16.071935130994536,-0.07576024307925454,1.3232779008656779,-1.3616201782810682
1.6449516004711984,15.809414438191798,-0.0742374999441409,1.3019290271617,-1.3159066956029333
1.6302542729394536,15.551126376829224,-0.07273577537330786,1.2809515864640348,-1.272109397058705
1.6158551188446721,15.296997905416234,-0.07125576557450695,1.2603331276658511,-1.230126367861275
1.6017497399384042,15.04695841975878,-0.06979802348817153,1.2400617289086762,-1.1898621370416704
1.5879336400544863,14.80093964997804,-0.06836297535100792,1.2201259688987156,-1.1512272043874103
1.5744022489732987,14.558875563079521,-0.06695093546086682,1.2005149000864632,-1.1141376067901765
1.5611509434929993,14.32070227071415,-0.06556211934212634,1.1812180235672591,-1.078514520335209
1.548175066010013,14.086357941800127,-0.06419665548773663,1.1622252655729868,-1.0442838948414344
1.5354699408778578,13.855782719699192,-0.0628545958338151,1.1435269554363743,-1.0113761178956897
1.5230308887839887,13.628918643663603,-0.06153592510487654,1.125113804919528,-0.9797257057216217
1.5108532393582892,13.4057095742909,-0.06024056915211869,1.1069768888075007,-0.9492710184884383
1.4989323422037384,13.18610112274255,-0.05896840239338972,1.089107626675984,-0.9199539979005074
1.4872635765192692,12.97004058349998,-0.05771925445130351,1.0714977657497249,-0.891719925119251
1.4758423594666148,12.757476870447501,-0.056492916075237945,1.0541393647750603,-0.8645171972568317
1.4646641534167437,12.548360456086382,-0.05528914442347284,1.037024778836145,-0.8382971208493389
1.4537244721970621,12.342643313697764,-0.05410766777334438,1.0201466450500494,-0.8130137208678475
1.44301888644774,12.140278862284656,-0.052948189719877005,1.00349786908101,-0.7886235639608052
1.4325430281840736,11.94122191413468,-0.051810392916785825,0.9870716124187662,-0.765085594742464
1.4223028522146124,11.745618026404355,-0.0505913667778283,0.9689672648844749,-0.7802177944621248
1.4123013638785982,11.553623351510158,-0.049423516582314794,0.9509794840574768,-0.7972720858923392
1.402528452032238,11.365214897229901,-0.048305601881286436,0.9331050587451046,-0.8161259286396361
1.3929742583283597,11.180370300284356,-0.047236335157497075,0.9153409107103418,-0.8366598421680365
1.3836291860591348,10.999067800255727,-0.04621438753475128,0.8976840895759439,-0.8587571284398209
1.3744839079094464,10.821286214478405,-0.04523839396213198,0.8801317681972791,-0.8823036023967192
1.36552937272215,10.647004913809859,-0.044306957910832875,0.8626812384881779,-0.907187329125455
1.3567568113692787,10.476203799192326,-0.043418655617880414,0.845329907687163,-0.9332983665772919
1.3481577418167114,10.30886327891816,-0.042572039907793326,0.828075295054497,-0.9605285127286836
1.3397239734639161,10.144964246513354,-0.04176564362015866,0.8109150289935734,-0.988771056079361
1.3314476108350826,9.984488059154664,-0.04099798266817809,0.7938468445933226,-1.017920528385202
1.3233210566932214,9.827416516536179,-0.04026755875043253,0.7768685815915461,-1.0478724585158847
1.3153370146446377,9.673731840100775,-0.03957286173540361,0.7599781827624764,-1.078523126311474
1.307488491297532,9.523416652550985,-0.03891237173565388,0.7431736927354233,-1.1097693152874457
1.2997687980353685,9.376453957551924,-0.0382845608859799,0.7264532572551711,-1.1415080630038954
1.2921715524630415,9.23282711953652,-0.03768789483728959,0.7098151228988782,-1.173636407871396
1.2846906795817732,9.092519843519764,-0.0371208339753927,0.6932576372686737,-1.2060511311126862
1.2773204127471034,8.955516154824494,-0.036581834371304814,0.6767792496840076,-1.238648492535579
1.2700552944632706,8.821800378615777,-0.03606934846702347,0.6603785124031692,-1.2713239586975713
1.262890177066767,8.691357119134526,-0.03558182549801123,0.6440540824093388,-1.3039719219560804
1.2558202233518876,8.564171238513275,-0.035117711650782826,0.6278047238031641,-1.336485408799376
1.2488409071917084,8.440227835047828,-0.03467544995100855,0.6116293108512854,-1.3687557757416822
1.24194801420917,8.319512220787843,-0.03425347987437615,0.595526831748583,-1.4006723909411167
1.2351376425548264,8.20200989829685,-0.03385023666905859,0.5794963931613364,-1.4321222995610157
1.2284062038504238,8.087706536417805,-0.033464150374968395,0.5635372256291218,-1.4629898707438884
1.2217504243608277,7.976587944863361,-0.03309364452099149,0.5476486899153087,-1.493156423903548
1.215167346461026,7.8686400474308655,-0.032737134477025656,0.5318302844096304,-1.5224998318664027
1.20865433047004,7.763848853619731,-0.0323930254328358,0.5160816537017109,-1.5508940982102837
1.202209056929716,7.662200428403377,-0.0320597099704041,0.5004025984618258,-1.5782089059630255
1.1958295294136247,7.5636808598787155,-0.03173556519050849,0.4847930867847808,-1.6043091346403773
1.1895140779598137,7.468276224482761,-0.03141894934760195,0.4692532671747767,-1.6290543424342756
1.1832613632310975,7.375972549427917,-0.0311081979395588,0.4537834833736546,-1.652298210223731
1.1770703815181074,7.286755771964351,-0.030801619190342317,0.43838429126201295,-1.6738879439943286
1.1709404707136806,7.200611695028922,-0.03049748885392688,0.42305647809227287,-1.6936636322514884
1.1648713174026268,7.117525938785246,-0.030194044256610975,0.40780108434447726,-1.711457555144201
1.1588629652287832,7.0374838874979275,-0.029889477481826087,0.39261942852869164,-1.7270934423470443
1.152915824721982,6.960470631115964,-0.029581927586186996,0.3775131352909525,-1.7403856773742614
1.1470306847916492,6.886470900865824,-0.029269471717141577,0.3624841672104368,-1.7511384470559346
1.14120872612192,6.8154689980747705,-0.028950114980151365,0.3475348607001104,-1.7591448365849063
1.1354515367363673,6.747448715361205,-0.02862177887537524,0.3326679664355531,-1.7641858731165807
1.1297611300400199,6.682393249244885,-0.028282288088099322,0.3178866947276574,-1.766029524758915
1.1241399656941848,6.620285103151094,-0.02792935537025156,0.30319476621024327,-1.7644296674762918
1.1185909737384574,6.561105979718889,-0.027560564187021932,0.2885964681117953,-1.759125040729729
1.113117582448281,6.504836661288792,-0.027173348714741037,0.27409671618918685,-1.7498382246981203
1.107723750511706,6.451456877462654,-0.026764970651010495,0.25970112207217644,-1.7362746892507888
1.1024140042350505,6.400945158732515,-0.026332492115543324,0.2454160652292208,-1.7181219897141302
1.097193480658653,6.353278675418313,-0.02587274364843215,0.23124876791280657,-1.6950492200700806
1.092067977703714,6.308433061614682,-0.02538228590095639,0.2172073701234848,-1.6667068850085138
1.087044012815449,6.266382224639578,-0.024857362981694234,0.2033009996275441,-1.6327274244446435
1.0821288920734464,6.227098141770064,-0.024293844438331626,0.18953982906758837,-1.592726726193655
1.0773307924979558,6.19055064808288,-0.023687151316573455,0.1759351078042557,-1.5463071056922342
1.0726588614350077,6.1567072223229715,-0.02303215931290924,0.16249914979483243,-1.4930624299755897
1.0681233386830087,6.125532782347602,-0.022323068207081107,0.14924524995887847,-1.4325863320918308
1.0637357097914133,6.096989508389438,-0.021553220708871695,0.13618748962277585,-1.3644848142925465
1.0595089032873293,6.07103672173842,-0.020714844331968848,0.12334037688739967,-1.2883949712091542
1.0554575513498528,6.047630858854323,-0.01979867504279613,0.11071825195356784,-1.2040120326192358
1.0515983439953656,6.026725596010152,-0.018793398502075353,0.0983343764881367,-1.1111272832993464
1.0479505231629043,6.008272194901441,-0.017684809822536812,0.08619963459899102,-1.009679308326102
1.0445365881870299,5.992220148258678,-0.016454539936207758,0.07432083182863561,-0.899819693558831
1.0413833227963365,5.978518190554677,-0.015078113970726063,0.06269874521138837,-0.7819904641770177
1.0385233154541895,5.967115671725022,-0.013521959450743953,0.05132644308515116,-0.6570023448659099
1.0359972553980203,5.957964119504478,-0.011738641110947577,0.04018907912027398,-0.5260891226365253
1.0338575355375217,5.951018456056715,-0.009658557494038222,0.029267555357356853,-0.3908963940164567
1.0321744399783896,5.946236603644575,-0.007172398097282114,0.01855096876403494,-0.25335277052804317
1.0310492626029921,5.943574184622996,-0.004079375656692332,0.008073221451768843,-0.1153840317857305
