x,y,v_x,v_y,omega
2.375,32.48,0.0,2.1538461538461537,-2.0
2.3747569997260682,32.095738378782336,-0.0027000030436880353,2.115727415239002,-1.9136109097997949
2.3740538808280864,31.71825071311763,-0.005112429156108746,2.0785799810354817,-1.832482380633028
2.372939894825276,31.34736595110825,-0.007265193097339993,2.042361819068727,-1.7561840894751422
2.371459531766531,30.982920388495042,-0.009183285333158429,2.007033321078046,-1.6843281051784618
2.3696530162092975,30.624757248580412,-0.010889109747213573,1.972557122417835,-1.6165641011620644
2.3675567462687193,30.272726293092543,-0.012402778481436073,1.9388979385585003,-1.552575173599935
2.365203682918346,29.926683461141234,-0.013742369856045347,1.9060224164560269,-1.4920741805636903
2.3626236957333826,29.586490533738356,-0.014924154421322885,1.873898999131501,-1.434800530484196
2.3598438704257294,29.252014821634354,-0.015962793441490163,1.842497802024071,-1.3805173590637305
2.3568887828027565,28.923128874464048,-0.016871513480434985,1.8117904998682322,-1.3290090427807504
2.3537807431689486,28.599710209405444,-0.017662260228536834,1.781750223005126,-1.2800790046924109
2.350540014664774,28.28164105773944,-0.018345834262294164,1.7523514621727203,-1.2335477746067796
2.3471850085866794,27.96880812785972,-0.01893201104986689,1.7235699809352782,-1.1892512710712746
2.34373245934468,27.661102383424492,-0.01942964719456741,1.6953827350117003,-1.1470392771730231
2.340197581379987,27.358418835467138,-0.019846774635358208,1.6677677978477716,-1.1067740860071775
2.3365942100766337,27.060656347394225,-0.020190684290791093,1.6407042918512553,-1.0683292949531298
2.33293492845139,26.76771745189805,-0.020468000434140078,1.6141723247729214,-1.0315887306987288
2.3292311811897495,26.479508178898968,-0.020684746917417902,1.5881529307724591,-0.9964454893457343
2.3254933774077333,26.19593789371131,-0.020846406216098255,1.5626280157570438,-0.9628010779795272
2.3217309833555944,25.916919144697097,-0.020957972140998968,1.5375803066231009,-0.9305646458455448
2.3179526061368803,25.64236751973477,-0.021023996955825325,1.512993304069424,-0.8996522947882459
2.3141660693917396,25.37220151088706,-0.02104863354573496,1.4888512386829487,-0.8699864599126814
2.3103779580093735,25.106343084175123,-0.02104149292499991,1.4651312803385543,-0.8407565716438243
2.306593746515986,24.844716834384172,-0.021005301445976208,1.4418270506720052,-0.8127632317409913
2.3028184123773583,24.58724917435859,-0.020942855649884174,1.4189247273900065,-0.7859402531362915
2.2990564517926417,24.333868952606373,-0.02085670640252482,1.396411069856874,-0.7602256572862907
2.2953119219098164,24.084507351389497,-0.02074918118442042,1.3742733881084055,-0.735561363806168
2.2915884792230825,23.83909779021475,-0.020622404223734434,1.3524995138332339,-0.7118929060554031
2.287889414520289,23.59757583438395,-0.02047831469619401,1.3310777731756493,-0.6891691702524347
2.284217684710423,23.359879108287775,-0.020318683191208355,1.3099969612262974,-0.6673421559451043
2.2805759418272933,23.125947213150354,-0.020145126621340232,1.2892463180783817,-0.6463667558850373
2.276966559475415,22.895721648952957,-0.019959121732862597,1.2688155063371536,-0.6262005535508366
2.2733916569572385,22.669145740284442,-0.01976201735798801,1.2486945899796718,-0.606803636740027
2.269853121296941,22.446164565883954,-0.019555045534208868,1.2288740144701706,-0.5881384258056925
2.2663526273546117,22.226724891657682,-0.019339331602783942,1.2093445880439526,-0.5701695152529235
2.2628916562055728,22.010775106966562,-0.01911590338653632,1.190097464079625,-0.5528635275345185
2.25947151194249,21.798265163995676,-0.018885699536602574,1.1711241244857822,-0.5361889779965732
2.2560933370426373,21.589146520028898,-0.018649577128430454,1.1524163640339595,-0.5201161500241435
2.252758126428967,21.3833720824641,-0.01840831857902072,1.133966275574912,-0.5046169795264146
2.2494667403413526,21.180896156415155,-0.01816263795002435,1.1157662360800489,-0.4896649479808887
2.2462199161233247,20.98167439475707,-0.01791318669473121,1.097808893454215,-0.47523498332805364
2.2430182790196973,20.78566375047989,-0.017660558901125896,1.080087154070015,-0.46130336807269756
2.23986235207158,20.592822431225613,-0.01740529607795789,1.0625941709775342,-0.44784765400628584
2.2367525651872144,20.403109855890435,-0.01714789152610422,1.0453233327466704,-0.4348465830173119
2.2336892634598655,20.21648661318202,-0.01688879433332915,1.0282682529023761,-0.42228001350389005
2.2306727147974525,20.03291442202837,-0.016628413026811638,1.0114227599159449,-0.4101288519456226
2.2277031169227377,19.852356093741307,-0.01636711891446768,0.9947808877180807,-0.39837498923042053
2.224781491236036,19.67499672751282,-0.01609538871555064,0.9758787370428558,-0.435356680527379
2.2219058412247263,19.50103043700443,-0.015856278076778894,0.9570800463836897,-0.4735332419880832
2.2190703761633848,19.330438831036382,-0.01564888927145956,0.938382242150226,-0.5128036005704595
2.2162694705749204,19.163203972673607,-0.01547228393369953,0.9197828507694793,-0.5530680181215358
2.213497671174858,18.999308361442814,-0.015325487178104603,0.9012794962393359,-0.5942278755787357
2.210749703109643,18.838734915958703,-0.015207491324287475,0.8828698980285371,-0.6361854575326249
2.2080204755581168,18.681466956896884,-0.01511725924822638,0.8645518693249817,-0.6788437362136641
2.205305086761598,18.52748819025031,-0.015053727379759211,0.8463233156369585,-0.7221061539353787
2.202598828544768,18.376782690805044,-0.015015808362795379,0.8281822337548777,-0.765876402988179
2.1998971903868227,18.22933488576952,-0.01500239339215356,0.8101267110842696,-0.8100582019312456
2.197195863100085,18.08512953848915,-0.015012354238262112,0.7921549253643028,-0.8545550671737511
2.194490742171498,17.94415173217527,-0.015044544968262368,0.7742651447898973,-0.8992700786704355
2.1917779308211167,17.806386853573805,-0.015097803369304457,0.7564557285597465,-0.9441056384792776
2.1890537428309504,17.671820576494476,-0.015170952076989208,0.7387251278772784,-0.9889632208397102
2.1863147051972156,17.5404388451162,-0.015262799408954556,0.7210718874368729,-1.0337431123273708
2.183557560659365,17.412227856977857,-0.015372139900493723,0.703494647433612,-1.0783441405245384
2.1807792701601,17.287174045556092,-0.015497754535784936,0.6859921461415777,-1.1226633895128155
2.1779770152920506,17.165264062323146,-0.01563841066476381,0.668563223113371,-1.166595900344854
2.175148200788957,17.046484758167338,-0.015792861591830003,0.6512068230622556,-1.210034354483492
2.172290457122037,16.93082316404689,-0.015959845818393912,0.6339220004983028,-1.252868738008056
2.169401643265881,16.81826647073392,-0.016138085916674243,0.6167079252013455,-1.2949859841773725
2.1664798497027427,16.7088020074894,-0.016326287007083436,0.5995638886266618,-1.3362695917059435
2.1635234017395737,16.602417219491105,-0.016523134805904886,0.5824893113543806,-1.3765992158529334
2.160530863218711,16.499099643815228,-0.01672729320368379,0.565483751710931,-1.4158502291428001
2.1575010407108848,16.398836883747272,-0.016937401327718513,0.5485469157107865,-1.4538932482323714
2.1544329882883178,16.30161658116923,-0.01715207003413358,0.5316786684896722,-1.4905936231142545
2.1513260129862966,16.207426386736756,-0.01736987776610167,0.5148790474267041,-1.525810884505397
2.1481796810739247,16.11625392752188,-0.01758936570470135,0.4981482771830672,-1.5593981449206782
2.14499382526903,16.028086771752672,-0.017809032127462193,0.481486786919232,-1.5912014485880974
2.141768553048661,15.942912390230681,-0.018027325876635785,0.46489522999177246,-1.6210590650456003
2.1385042562255707,15.860718113948682,-0.018242638824367618,0.44837450647487187,-1.6488007210021045
2.135201621982937,15.78149108736488,-0.018453297204892763,0.4319257889007054,-1.6742467648952413
2.1318616455847184,15.705218216713803,-0.018657551664204797,0.4155505516668082,-1.697207258607464
2.1284856450080096,15.631886112648314,-0.01885356585478233,0.3992506046164245,-1.7174809911160638
2.125075277777228,15.561481026410632,-0.01903940337612393,0.3830281313578171,-1.7348544096058494
2.1216325603186816,15.493988778623187,-0.019213012829945798,0.36688573294713867,-1.74910046499154
2.1181598901991556,15.429394679672981,-0.019372210720346263,0.35082647761070285,-1.7599773712093871
2.114660071664975,15.367683440538546,-0.019514661881657024,0.3348539572163628,-1.7672272815239594
2.111136344960547,15.30883907278071,-0.019637857056433467,0.31897235120402395,-1.7705748911560366
2.1075924199804046,15.252844776295973,-0.019739087167374,0.3031864986263878,-1.7697259847923679
2.1040325149004677,15.199682813328273,-0.019815413720810846,0.28750197879248574,-1.764365961479829
2.1004614005487943,15.149334367175236,-0.019863634631117774,0.271925200685697,-1.7541583902173197
2.096884451423302,15.1017793840462,-0.01988024454101574,0.25646350074805335,-1.7387436804300016
2.0933077044592436,15.056996396691652,-0.019861388392966653,0.2411252476358286,-1.7177379971045368
2.0897379269174015,15.014962328820406,-0.01980280651639301,0.22591995093357975,-1.690732617469151
2.086182695145621,14.975652280095733,-0.019699768725609232,0.2108583682294371,-1.6572940245334846
2.0826504865280273,14.939039292873183,-0.019546993692098745,0.19595260091001857,-1.6169651765677702
2.079150787788628,14.90509410413722,-0.019338547856783725,0.18121616282292308,-1.5692686002296294
2.075694224143134,14.87378488978781,-0.019067714870926136,0.16666399661495557,-1.5137122546427537
2.0722927159020306,14.845077014193112,-0.018726821141337422,0.1523123988816917,-1.4497995364190186
2.068959672531804,14.818932806650814,-0.01830699408339909,0.1381787960327164,-1.3770453740111392
2.0657102397305342,14.795311399134587,-0.017797814819598207,0.12428128748091753,-1.2950011085560122
2.062561624167821,14.774168677337368,-0.017186802543880143,0.11063784359929826,-1.203291725591739
2.059533535447103,14.75545741939742,-0.016458627686319782,0.09726502240012957,-1.1016697561527924
2.0566488092034514,14.739127720384463,-0.015593886132034185,0.08417607774385254,-0.9900901618594341
2.0539343148894202,14.725127814259924,-0.014567161801646243,0.0713784347510338,-0.8688082898622623
2.051422316814298,14.713405380654475,-0.013343927921931077,0.058870827531716484,-0.7384957526587925
2.0491525690975223,14.703909303971905,-0.011875491153357868,0.046641135607947345,-0.6003529071864586
2.047175649218689,14.696591534647556,-0.010090285278120132,0.034667412440373385,-0.4561692020300149
2.045558623380055,14.691408001879143,-0.007876668484482714,0.022927396097566104,-0.3082514575457867
2.0443963228529856,14.688315833281123,-0.005037781816286566,0.011430032769322144,-0.15913022394224993
2.0438447887030655,14.687256210534951,-0.0010903754050506928,0.00034355329926438055,-0.011036882338002013
