x,y,v_x,v_y,omega
2.375,32.48,0.0,3.8974358974358974,-5.918367346938775
2.373578977043009,31.78756593679327,-0.01578914396656907,3.796275915972165,-5.492024316970963
2.369550277249198,31.112915823327395,-0.02897418707577356,3.6998364558709183,-5.112069168742739
2.363345366099928,30.45523153695523,-0.03996927013833648,3.607766726042008,-4.77200813233912
2.3553275897177204,29.8137548212567,-0.0491171341084136,3.5197523372749626,-4.466418731986299
2.3458038081255865,29.18778118975763,-0.056702661359740655,3.435510234936985,-4.190748910450176
2.335033845357641,28.576654659891815,-0.06296359161743587,3.354784541349837,-3.941158179301814
2.3232382067136994,27.979763171489306,-0.06809905998191115,3.2773431075669133,-3.7143910922094756
2.3106044115543822,27.396534575502802,-0.07227644178827947,3.2029746256164806,-3.507675792381179
2.297292213394572,26.826433102194756,-0.07563687109850216,3.1314861889173597,-3.318642163312708
2.2834379208258193,26.268956235834754,-0.07829971299874984,3.0627012150826474,-3.1452554157606847
2.2691579881595243,25.723631936648808,-0.08036620551564012,2.996457664761203,-2.985761910229524
2.2545520101841534,25.190016161406742,-0.08192243865514903,2.932606504595095,-2.8386447375893575
2.239705228572909,24.66769064240394,-0.08304180146978685,2.8710103732138186,-2.7025871267034214
2.2246906364313497,24.156260891246085,-0.08378700010309617,2.811542417428991,-2.576442163866886
2.209570750880096,23.655354399185832,-0.0842117282441639,2.7540852721293843,-2.459207627934256
2.1943991104105094,23.16461901008735,-0.08436205475124554,2.69853016229817,-2.350004991499725
2.179221543264776,22.683721445631264,-0.08427758020134593,2.6447761094361213,-2.248061830143125
2.164077244693466,22.212345965286012,-0.08399240392432142,2.5927292277333467,-2.152697031666349
2.148999694186865,21.750193145990117,-0.08353593503791125,2.5423020977766124,-2.063308315175863
2.1340174383170862,21.296978768510787,-0.0829335746262994,2.4934132075492816,-1.979361663134103
2.119154760399071,20.85243279914406,-0.0822072911294254,2.445986452080996,-1.9003823436359097
2.1044322545718455,20.41629845685955,-0.08137610695085616,2.3999506844135494,-1.825947259372148
2.089867318953424,19.9883313572158,-0.08045651103160585,2.355239311628145,-1.7556784072412952
2.0754745801048435,19.568298725417627,-0.07946280950817695,2.3117899305737883,-1.6892372708404972
2.0612662590490545,19.155978671784535,-0.07840742444503399,2.2695439986827988,-1.6263199990301327
2.0472524874477305,18.75115952367339,-0.07730114890301004,2.228446535885469,-1.5666532489145595
2.0334415811788196,18.353639208568957,-0.07615336519600178,2.1884458541638026,-1.509990592085219
2.0198402774279516,17.963224683638366,-0.07497223203586251,2.1494933117316304,-1.4561093997492511
2.0064539404659327,17.57973140755369,-0.07376484531990544,2.1115430892091993,-1.4048081361423392
1.993286740498779,17.202982850831134,-0.0725373765373548,2.0745519854858694,-1.3559040009736116
1.9803418093188156,16.832810041325452,-0.07129519212890457,2.0384792312439397,-1.3092308710307057
1.9676213759330317,16.469051141861343,-0.07004295660203073,2.003286318357288,-1.2646374988503655
1.9551268848801266,16.1115510572864,-0.06878472176357966,1.9689368435865502,-1.2219859328275757
1.9428590995556365,15.76016106849804,-0.067524004064087,1.9353963651729864,-1.1811501285305166
1.9308181925330838,15.41473849123436,-0.06626385174205512,1.9026322710901258,-1.1420147255003943
1.9190038245882701,15.07514635762982,-0.06500690320031922,1.8706136578491999,-1.1044739675992066
1.9074152138953666,14.741253118724718,-0.06375543783194333,1.839311218874159,-1.0684307481505673
1.896051196660549,14.412932366285002,-0.06251142033269645,1.8086971415671131,-1.0337957638015134
1.8849102802859343,14.090062572438995,-0.061276539385244924,1.7787450122774,-1.0004867633007546
1.8739906900087835,13.772526845771832,-0.06005224147198672,1.7494297284688753,-0.9684278793100574
1.863290409834453,13.460212702638962,-0.058839760465018286,1.7207274174519014,-0.9375490329971258
1.8528072184731168,13.15301185256838,-0.05764014354982678,1.6926153611101287,-0.9077854025473007
1.842538720897119,12.850819996718695,-0.05645427396126224,1.6650719261085818,-0.8790769479163999
1.8324823760556501,12.55353663844815,-0.05528289094394683,1.6380764991196881,-0.8513679851602328
1.822635521214354,12.261064905129015,-0.05412660729267872,1.6116094266485064,-0.8246068045444961
1.812995393327808,11.973311380413612,-0.05298592478005227,1.5856519590781988,-0.7987453273842062
1.8035591478012587,11.690185946223266,-0.05186124773716351,1.5601861985923295,-0.7737387972031878
1.7943238749533093,11.411601633790344,-0.05075289501783085,1.535195050662366,-0.749545501357054
1.785286614452534,11.13747448313718,-0.04966111054633757,1.510662178817245,-0.7261265197406944
1.7764443679673347,10.867723410424258,-0.04858607262254335,1.4865719624374394,-0.7034454976145796
1.7677997459020454,10.60227138281548,-0.047465283658449924,1.462895010993401,-0.679876024225344
1.7593545376853337,10.34104392452052,-0.04637036319390356,1.4396323033950686,-0.6572944953098409
1.7511041277243948,10.083967709445371,-0.045300858594305354,1.4167700863288055,-0.6356484737215362
1.7430439839951062,9.830971835142627,-0.044256293953344496,1.394295183701687,-0.6148888310734586
1.735169661780966,9.581987721666493,-0.04323617509265621,1.3721949660331438,-0.5949695054913471
1.7274768065711077,9.336949015763853,-0.04223999390577076,1.3504573217739577,-0.5758472794809262
1.7199611562281905,9.095791500067154,-0.04126723212664441,1.329070630411568,-0.5574815760453344
1.7126185425234115,8.8584530069792,-0.04031736459311988,1.3080237372323784,-0.5398342713790755
1.705444892124001,8.62487333696227,-0.03938986206699706,1.2873059296223948,-0.522869522633995
1.6984362271081364,8.39499418096451,-0.03848419366483329,1.2669069147971845,-0.506553609403283
1.6915886650730725,8.168759046735278,-0.03759982894698932,1.2468167988609247,-0.4908547877035737
1.6848984188942435,7.946113188798588,-0.03673623970666462,1.227026067102294,-0.4757431553548044
1.6783617961860382,7.727003541869582,-0.035892901495615886,1.2075255654422334,-0.4611905277642953
1.671975198508738,7.511378657513809,-0.03506929491883031,1.1883064829552386,-0.44717032321700134
1.665735120360654,7.299188643862568,-0.034264906726549485,1.169360335391886,-0.43365745685936113
1.659638147989687,7.0903851082100715,-0.03347923072864078,1.1506789496358378,-0.42062824264076754
1.6536809580543097,6.88492110232982,-0.032711768553329044,1.132254449033611,-0.40806030254540016
1.6478603161602388,6.68275107035819,-0.031962030269680634,1.114079239540031,-0.3959324825088763
1.642173075295784,6.483830799103199,-0.031229534890927557,1.0961459966265226,-0.3842247744696618
1.6366161741859682,6.288117370645516,-0.03051381077369308,1.0784476529032798,-0.37291824405511903
1.63118663558296,6.095569117107328,-0.029814395926396096,1.0609773864099168,-0.3619949634470577
1.625881564508116,5.906145577472511,-0.029130838238540478,1.0437286095324814,-0.3514379490122233
1.6206981464589383,5.719807456348892,-0.028462695641211098,1.0266949585077187,-0.3412311033197809
1.6156336455925202,5.536516584570155,-0.027809536207877336,1.009870283478244,-0.33135916120094516
1.610685402895494,5.356235881541277,-0.027170938203528033,0.9932486390648304,-0.3218076395358316
1.6058564636151544,5.179149643743649,-0.026483942689131564,0.9743762253532426,-0.361335658114014
1.601146755736424,5.005451267635639,-0.025846144852316722,0.9556057314024479,-0.4020110660025852
1.5965475754556837,4.835122634461673,-0.025255858267021206,0.9369346371971645,-0.4437331030859868
1.5920505227525699,4.668146070219638,-0.024711393989799806,0.9183605210476595,-0.4864023670844893
1.5876475016505247,4.504504328177234,-0.02421106269959129,0.8998810572012637,-0.5299205919143322
1.5833307201178508,4.344180571786723,-0.02375317655233922,0.8814940138044243,-0.5741904268089572
1.5790926896591602,4.1871583579348055,-0.023336050766446462,0.8631972512168943,-0.6191152152146943
1.5749262246444395,4.033421620463859,-0.022958004952671286,0.844988720682521,-0.6645987724472792
1.570824441420723,3.8829546538996595,-0.0226173641997331,0.8268664633641479,-0.7105451610600994
1.5667807572495365,3.7357420973190756,-0.022312459924564248,0.8088286097534342,-0.7568584628305158
1.562788889111884,3.5917689182889703,-0.022041630493796965,0.7908733794699666,-0.8034425462163174
1.5588428524215807,3.451020396804555,-0.021803221620685282,0.7729990814679631,-0.8502008280695673
1.5549369596871907,3.3134821091518525,-0.021595586539203397,0.7552041146731973,-0.8970360283188986
1.5510658191627569,3.179139911614282,-0.021417085954504672,0.7374869690775956,-0.9438499162427075
1.5472243335278901,3.0479799239381045,-0.021266087766237163,0.7198462273243625,-0.9905430468535542
1.5434076986386767,2.9199885124648794,-0.021140966558356955,0.7022805668225636,-1.037014485797164
1.5396114023922827,2.795152272831519,-0.02104010284602074,0.6847887624369784,-1.0831615210363812
1.535831223750126,2.6734580121295757,-0.020961882066831004,0.667369689806844,-1.1288793594398159
1.532063231967102,2.5548927304049194,-0.02090469330010257,0.6500223293560077,-1.174060806225233
1.528303786077645,2.4394436013668326,-0.020866927693864574,0.6327457710671828,-1.2185959250174598
1.5245495346934521,2.327097952161367,-0.02084697657494616,0.6155392201046496,-1.2623716760682657
1.5207974161725684,2.2178432420474685,-0.020843229212649445,0.5984020033831168,-1.3052715299500603
1.5170446592253297,2.111667039795364,-0.020854070201111723,0.5813335771958207,-1.347175053775479
1.5132887840294826,2.0085569996048065,-0.020877876419412487,0.5643335360326117,-1.387957466710745
1.5095276039347834,1.9085008353153512,-0.020913013521689013,0.5474016227390971,-1.427489161242923
1.5057592278466632,1.8114862926516189,-0.020957831901871282,0.5305377401912776,-1.4656351863322437
1.5019820633892849,1.717501119212578,-0.021010662068999264,0.5137419646869378,-1.502254688235457
1.498194820960739,1.6265330318750344,-0.02106980935928685,0.4970145612857832,-1.5372003044331748
1.4943965188074064,1.538569681236428,-0.02113354789996333,0.48035600136539525,-1.5703175057472938
1.4905864892609588,1.4535986126705502,-0.021200113727234033,0.4637669826999051,-1.6014438814155953
1.4867643863003508,1.3716072235103738,-0.021267696946187332,0.4472484524131796,-1.6304083616326608
1.4829301946228521,1.2925827158044356,-0.02133443280379827,0.43080163320836107,-1.657030371919118
1.4790842404330888,1.2165120440159356,-0.021398391526905192,0.4144280533305361,-1.6811189137187448
1.4752272041877545,1.1433818569461458,-0.02145756675458855,0.3981295807782328,-1.7024715659538134
1.4713601355667243,1.0731784330654683,-0.021509862367968948,0.3819084623404075,-1.720873403052471
1.4674844709796022,1.005887608326283,-0.021553077488941294,0.3657673680949841,-1.7360958264306203
1.4636020539612957,0.94149469541264,-0.0215848893811305,0.3497094420565943,-1.7478953089041238
1.4597151588624913,0.879984393255036,-0.02160283393892002,0.3337383596945607,-1.7560120555204355
1.4558265183028918,0.8213406855088756,-0.021604283389961617,0.3178583930405664,-1.7601685905546298
1.4519393549296518,0.7655467265714293,-0.021586420757149352,0.3020744840421594,-1.7600682899689297
1.448057418114879,0.7125847136090151,-0.021546210518103345,0.28639232665131786,-1.7553938930308657
1.4441850263408966,0.6624357430082561,-0.02148036474836733,0.2708184578015533,-1.7458060482822026
1.4403271161703148,0.6150796496921451,-0.021385303813653854,0.2553603568219018,-1.730941980955041
1.4364892988960163,0.5704948279154713,-0.021257110345219692,0.2400265518078097,-1.710414416076125
1.4326779262399398,0.5286580325721921,-0.021091474722294053,0.22482672978418988,-1.6838109609254066
1.4289001668615309,0.4895441608591007,-0.020883629482250154,0.20977184480572128,-1.650694252400774
1.4251640960168481,0.4531260155728347,-0.020628268792003916,0.19487421393057056,-1.6106033237123563
1.4214788015934883,0.4193740537102215,-0.020319447023104974,0.18014758454289007,-1.5630568609152427
1.4178545111275769,0.388256127890358,-0.019950447042575738,0.16560714678895172,-1.507559330046437
1.4143027466085996,0.3597372341169276,-0.019513603168283804,0.15126945069362155,-1.4436113930087744
1.4108365174307598,0.33377928847040295,-0.019000054363271755,0.13715216760110918,-1.3707266276296477
1.4074705676408477,0.31034096853051807,-0.018399387746861985,0.12327360950869734,-1.2884573370338808
1.4042217031108377,0.28937767356083555,-0.017699107031027277,0.10965189015444994,-1.1964331152270324
1.4011092397631537,0.2708416804519018,-0.01688381905435099,0.09630358883373748,-1.09441657475087
1.3981556392014733,0.2546825962987427,-0.015933964964318575,0.0832417906458149,-0.9823805396876887
1.3953874389465621,0.2408482209386591,-0.014823815645804792,0.07047349113290602,-0.860608490970084
1.392836651115698,0.22928590387227388,-0.013518271363798238,0.05799669849363129,-0.7298121868492133
1.3905429181094218,0.21994434901989024,-0.01196765092816133,0.04579835542176788,-0.5912431282500531
1.3885569454025481,0.21277548103639532,-0.010098712481543426,0.03385573328371562,-0.44674598969042356
1.3869463540541458,0.20773524508940966,-0.007796746945150193,0.022146888349479362,-0.29867110417455894
1.385807476356201,0.2047803930335732,-0.0048574496986824485,0.010684801159838286,-0.14955637348575654
1.3853018185731156,0.20384921615007556,-0.0007609701133744293,-0.00033839134323193285,-0.00158997299950428
