x,y,v_x,v_y,omega
2.375,32.48,0.0,2.2051282051282053,-6.163265306122449
2.374255153312993,32.086676956151486,-0.008276074300074262,2.1651278376330603,-5.891135838838352
2.3721002273974787,31.700454249287315,-0.015667546983420537,2.126235571968811,-5.636105453940614
2.3686865968327493,31.321137443649643,-0.022261681513574626,2.088395601783099,-5.396721864706427
2.3641507819365417,30.9485417749393,-0.028136261777619985,2.051556272776252,-5.1716833496053916
2.358616049751402,30.58249144187798,-0.033360762501708156,2.015669650127317,-4.959820468102245
2.352193819246832,30.222818970413993,-0.03799735421574046,1.9806911439169863,-4.76008033315557
2.3449848981068997,29.86936464096858,-0.04210176956128121,1.9465791832542518,-4.571513033255431
2.337080574094603,29.521975970640266,-0.0457240527975762,1.9132949315048202,-4.393259869951693
2.3285635804028253,29.18050724353142,-0.048909210444397076,1.8808020363712483,-4.224543135296398
2.319508951454249,28.844819083388497,-0.05169777787311636,1.8490664096612082,-4.0646572006859305
2.309984783172795,28.514778063597785,-0.054126314143036196,1.818056032457819,-3.9129607266952826
2.3000529097188376,28.190256350285942,-0.056227835345382234,1.7877407821182008,-3.7688698345260554
2.289769506982268,27.871131374865662,-0.058032195060944806,1.75809227810715,-3.631852105091233
2.2791856317004897,27.557285532862654,-0.05956641918103657,1.7290837441485036,-3.5014212926585917
2.268347703863963,27.248605906278165,-0.06085500122481836,1.7006898845680607,-3.3771326572507467
2.257297939051145,26.94498400709477,-0.061920163362043666,1.6728867730251733,-3.2585788343454283
2.246074736466185,26.646315539833665,-0.06278208758195827,1.6456517520982343,-3.145386172382334
2.23471302771115,26.35250018132769,-0.06345912080731905,1.6189633424125631,-3.0372114785986803
2.223244590689221,26.063441376093838,-0.06396795721411863,1.5928011601858267,-2.933739122133215
2.211698332489178,25.779046145877068,-0.06432380056413417,1.5671458422227438,-2.8346784504384392
2.200100544630745,25.499224912099976,-0.06454050897401038,1.5419789775227033,-2.7397614810498676
2.1884751336433514,25.22389133009315,-0.06463072421924991,1.5172830447753909,-2.6487408358635087
2.1768438295981154,24.9529621341031,-0.0646059873944868,1.4930413551140516,-2.5613878894185036
2.165226863699664,24.686363257015437,-0.06447141147719303,1.4691683903043942,-2.4750533148029623
2.153641129860491,24.42402317551968,-0.06425896451361532,1.4457214040929205,-2.3923887011916984
2.1420999631866775,24.165866525638357,-0.06397622075098369,1.4226858168106504,-2.3131963688470782
2.130615394829297,23.911820509602393,-0.06363009433102158,1.4000476947000657,-2.237291319770424
2.119198265475874,23.661814782930925,-0.0632268984847868,1.3777937127607034,-2.164500290696156
2.1078583286974766,23.415781347962195,-0.06277239905296388,1.355911120225169,-2.094660886694105
2.0966043451199115,23.173654453382255,-0.062271862919982005,1.334387708440877,-2.027620787663765
2.0854441682875535,22.935370499336585,-0.06173010188399549,1.3132117809554205,-1.9632370208265877
2.074384822999601,22.700867947744488,-0.061151512426586195,1.2923721256234617,-1.90137529304788
2.0634325768196646,22.47008723746701,-0.06054011179493109,1.2718579885707388,-1.8419093774610706
2.052593005389344,22.242970704007657,-0.05989957076418836,1.2516590498665054,-1.7847205494347216
2.0418710521138297,22.0194625034504,-0.05923324340819182,1.2317654007697174,-1.7296970674260008
2.0312710827316556,21.799508540362716,-0.05854419417151949,1.2121675224267467,-1.6767336947113445
2.0207969352307664,21.58305639941245,-0.0578352225050284,1.1928562659095496,-1.6257312583826424
2.0104519655283575,21.370055280466204,-0.05710888529951559,1.1738228334931835,-1.5765962423514597
2.0002390892918958,21.16045593695457,-0.05636751732783566,1.155058761080509,-1.5292404114197427
1.9901608202428127,20.95421061730523,-0.05561324988419881,1.1365559016899383,-1.483580463757678
1.9802193052521204,20.751273009259496,-0.05484802779015993,1.1183064099293152,-1.4395377093818085
1.9704163565082327,20.55159818690116,-0.054073624919703044,1.100302727385521,-1.3970377724525918
1.9607534810112075,20.35514256023859,-0.05329165838057682,1.0825375688652685,-1.3560103154133307
1.9512319076241669,20.161863827192207,-0.052503601475428756,1.0650039094278638,-1.316388783174436
1.941852611891507,19.971720927849702,-0.05171079555412768,1.0476949721555129,-1.2781101657106064
1.9326163388144342,19.784674000860704,-0.05091446085779042,1.0306042166111136,-1.241114777585777
1.9235236237571567,19.600684341851338,-0.050115706445293236,1.0137253279374272,-1.2053460530533548
1.9145748116414911,19.41971436374701,-0.04931553928432348,0.9970522065551193,-1.1707503554989331
1.9057751223229946,19.241963686589138,-0.04845878647674898,0.97795531742121,-1.1884937244535885
1.8971265390117764,19.06764018612461,-0.04763658364789779,0.9589724655180117,-1.2078828530615422
1.8886229126348286,18.896723599307485,-0.04684815387374479,0.9401007213389336,-1.2287959275737539
1.880258239713526,18.729194179108905,-0.04609265636295163,0.9213372808675139,-1.2511132725912109
1.8720266733420279,18.565032672245792,-0.04536919220924917,0.9026794620559412,-1.2747170887990429
1.8639225331752027,18.404220297503503,-0.044676809644363255,0.884124701747278,-1.2994911940276062
1.8559403145132212,18.246738724572815,-0.04401450882209984,0.8656705530381305,-1.325320766555597
1.8480746965647321,18.092570053322028,-0.04338124616110974,0.8473146830817376,-1.3520920895628805
1.8403205499658535,17.94169679342454,-0.042775938270876154,0.8290548713348127,-1.379692295625516
1.832672943628042,17.794101844261455,-0.04219746548258553,0.8108890082550096,-1.4080091101222267
1.8251271509842735,17.649768475017133,-0.04164467500373044,0.7928150944596518,-1.4369305923900269
1.8176786556998104,17.50868030488333,-0.041116383712527384,0.7748312403603989,-1.466344873426583
1.8103231569111888,17.370821283284535,-0.04061138060548883,0.7569356662928999,-1.4961398888877873
1.8030565740549083,17.2361756700333,-0.04012842890874126,0.7391267031652481,-1.5262031060705934
1.79587505134564,17.104728015319544,-0.03966626786090405,0.7214027936542873,-1.5564212435030063
1.7887749619626327,16.97646313943204,-0.03922361417250888,0.7037624939845979,-1.5866799816848767
1.7817529120023456,16.851366112103605,-0.03879916316401745,0.6862044763314031,-1.6168636634345015
1.7748057442552532,16.72942223136316,-0.038391589581453923,0.6687275318957786,-1.6468549821967786
1.7679305418652296,16.61061700176877,-0.037999548085474025,0.6513305747085332,-1.6765346565587993
1.7611246319309695,16.494936111884478,-0.03762167340630643,0.6340126462280716,-1.7057810890985403
1.7543855891105973,16.382365410851268,-0.037256580153383095,0.6167729208075889,-1.7344700075624768
1.747711239292981,16.272890883887946,-0.03690286226457575,0.599610712118216,-1.762474086229815
1.7410996634023541,16.166498626540843,-0.036559092075723824,0.5825254806273938,-1.7896625451769177
1.7345492014067525,16.063174817482242,-0.036223818986513646,0.5655168422459507,-1.8159007250089538
1.7280584566055353,15.962905689635516,-0.0358955676936798,0.5485845782732425,-1.8410496344822704
1.7216263002769863,15.865677499380055,-0.035572835956864106,0.5317286467874329,-1.8649654683084784
1.7152518767738116,15.7714764935609,-0.03525409185618669,0.514949195647632,-1.8874990923213861
1.7089346091623367,15.680288873995952,-0.03493777049353451,0.4982465772962251,-1.9084954931173554
1.7026742055105744,15.5921007591377,-0.03462227008160303,0.4816213655732452,-1.927793189272046
1.6964706659412228,15.506898142505925,-0.0343059473556393,0.46507437477982144,-1.945223601325206
1.6903242905783018,15.424666847462873,-0.03398711223237024,0.4486066812540941,-1.9606103779570663
1.6842356885308318,15.345392477852542,-0.033664021628407766,0.432219647749586,-1.973768676220672
1.6782057880740335,15.269060363971256,-0.033334872336018256,0.4159149509313511,-1.984504394436088
1.672235848208476,15.195655503278022,-0.03299779283684233,0.399694612326817,-1.9926133575232872
1.6663274718009933,15.125162495191205,-0.032650833912966366,0.38356103308227674,-1.9978804563302968
1.660482620538885,15.057565469254904,-0.03229195788823702,0.3675170328766154,-2.000078745152911
1.6547036319620578,14.992848005897006,-0.031919026298732604,0.35156589332224886,-1.9989685054932849
1.6489932388779736,14.930993048946643,-0.03152978574664654,0.3357114061262256,-1.9942962896587928
1.6433545915139292,14.87198280903976,-0.031121851631624214,0.3199579261724792,-1.9857939657485508
1.6377912828237493,14.815798657030083,-0.03069268937037432,0.30431042949059406,-1.9731777968778896
1.6323073774466244,14.762421006557965,-0.03023959259768045,0.28877457575517557,-1.9561476035016458
1.6269074449223522,14.711829185039313,-0.029759657672010904,0.2733567744520481,-1.934386080302425
1.621596597911548,14.664001292562755,-0.02924975355914495,0.2580642530652565,-1.9075583709356432
1.6163805363697215,14.618914048585733,-0.028706485794484198,0.2429051244571996,-1.8753120485964208
1.6112655989086808,14.576542626987383,-0.028126152661525884,0.22788844885781978,-1.837277712845222
1.6062588229913244,14.536860481092521,-0.027504690864654412,0.21302428330732184,-1.7930705000228035
1.6013680162146846,14.499839161902482,-0.026837606653566264,0.19832370769311017,-1.7422929244655037
1.5966018418473946,14.465448135193778,-0.026119886316324,0.18379881129249637,-1.6845396310216882
1.5919699231670528,14.433654606688002,-0.02534587679858538,0.16946261654945038,-1.619404857283477
1.5874829732467761,14.404423369537483,-0.024509122315599922,0.15532890734522004,-1.5464936850899695
1.58315296006333,14.377716695312639,-0.023602135278243848,0.14141191737527162,-1.465438502745483
1.5789933217417214,14.353494298793795,-0.02261606829518802,0.12772582172299457,-1.3759224696752017
1.5750192543111157,14.331713417953967,-0.02154023648931875,0.1142839653861981,-1.277712073601215
1.571248105846455,14.312329062118948,-0.02036141311802465,0.10109776611402346,-1.1707008582620195
1.5676999282486705,14.295294489249258,-0.019062782412911223,0.08817526577140533,-1.0549655883379605
1.5643982641595469,14.280561968236377,-0.01762237413290699,0.07551941214948499,-0.9308336367079773
1.5613712870373657,14.268083845834113,-0.01601070500243942,0.06312639232013073,-0.7989549597297767
1.5586534802801346,14.257813839234238,-0.014187147855683854,0.05098479212291804,-0.6603624983852943
1.5562881767131227,14.249708266028723,-0.012094002888894482,0.039077132382804594,-0.5164917905096036
1.554331626761472,14.243726518193437,-0.009645441018336148,0.02738673245369795,-0.3691191560297197
1.552860423437414,14.239829198950481,-0.006701262582309027,0.015916814690269995,-0.2201785326604064
1.5519895963551615,14.237969041377479,-0.002974593887158929,0.004751602787527292,-0.0714466415314016
