x,y,v_x,v_y,omega
2.375,32.48,0.0,2.923076923076923,-4.816326530612245
2.373838853872534,31.873374508360524,-0.011058534547293056,2.8543087115847317,-4.508855016914497
2.370526717400978,31.280894096989215,-0.02048562232467118,2.7883618729039097,-4.230747188322901
2.365381975991059,30.701986005342583,-0.028511914912654607,2.7250485237306745,-3.9783615975926008
2.358678299233994,30.136115078907697,-0.03533262563082064,2.664198394696821,-3.748592042334495
2.350651451288188,29.582780304998963,-0.041113545281613435,2.6056565949101755,-3.538777712874754
2.3415049565552595,29.041511779399467,-0.04599592836532759,2.549281744132653,-3.346630252742591
2.3314148332387306,28.511868034429792,-0.05010048417304308,2.4949443984356825,-3.1701742004897393
2.3205335637882105,27.993433672775332,-0.05353065345095847,2.4425257125591826,-3.007698093548605
2.308993437502118,27.485817261977402,-0.056375311178493114,2.3919162950401103,-2.8577141224307825
2.2969093742343984,26.988649452713307,-0.05871100565692997,2.3430152217608,-2.718924682751091
2.2843813174415124,26.501581290444918,-0.06060382094198688,2.295729180795284,-2.5901945227473484
2.2714962684021662,26.02428269513302,-0.06211093181369128,2.249971726937091,-2.4705274532529193
2.258330020366085,25.556441087809457,-0.06328190662517406,2.205662628525406,-2.3590467957419703
2.244948640904,25.097760146104733,-0.06415980253754196,2.162727292471964,-2.2549789068953485
2.231409742280313,24.647958673519014,-0.06478208911662238,2.1210962559634834,-2.1576392460254907
2.2177635728247043,24.206769569431522,-0.06518142950821915,2.0807047353459316,-2.066420552756808
2.2040539567089086,23.773938888667203,-0.065386343023171,2.0414922243142657,-1.9807827826640905
2.190319104983188,23.34922498095714,-0.06542176865035505,2.003402134829199,-1.9002445127238226
2.1765923169927133,22.932397701900733,-0.06530954554464365,1.9663814752318156,-1.82437557993507
2.162902588218798,22.523237688108853,-0.06506882373074203,1.9303805608813278,-1.752790758005204
2.149275138048558,22.12153569011543,-0.06471641598582469,1.8953527533417651,-1.6851443106460002
2.135731868869285,21.72709195741879,-0.0642671000072577,1.8612542247214676,-1.6211252873992557
2.122291766130973,21.33971567067687,-0.0637338784528542,1.8280437442491844,-1.5604534502668819
2.10897124755803,20.959224416650713,-0.06312820319422119,1.7956824845713888,-1.5028757377470219
2.095784468467483,20.585443701983557,-0.062460169096701205,1.7641338455919804,-1.4481631879553067
2.082743589124302,20.218206502330638,-0.061738681790739866,1.7333632939596226,-1.3961082549575188
2.069859009200683,19.85735284372724,-0.060971603196107865,1.7033382165489317,-1.3465224627494075
2.0571395736776417,19.50272941340846,-0.06016587797571569,1.6740277864870612,-1.2992343498852978
2.04459275391131,19.15418919757976,-0.05932764360839182,1.6454028404529613,-1.2540876648959574
2.032224807064349,18.811591143888798,-0.058462326362666774,1.6174357661276118,-1.2109397786030758
2.020040916659478,18.474799846571003,-0.0575747251122954,1.5901003988038018,-1.1696602844391373
2.008045316634694,18.143685252437535,-0.056669084647550744,1.5633719262768284,-1.1301297620850392
1.9962414009577347,17.818122386048742,-0.05574915989492072,1.5372268012354777,-1.092238683280121
1.9846318205820865,17.49799109257092,-0.05481827225410842,1.511642660458065,-1.055886441651934
1.973218569291069,17.18317579695256,-0.05387935908891531,1.4865982501929735,-1.0209804909476357
1.9620186094826633,16.873567808705783,-0.052786924800664284,1.4620492569192167,-0.9832582337989259
1.951046825868425,16.569062416703197,-0.05170625247779385,1.4380020954863708,-0.9473190225947647
1.9403006180178681,16.26955617176016,-0.050638584194178785,1.4144383325425212,-0.9130569760490879
1.929777146274558,15.974949404092563,-0.049584956218296505,1.391340407148897,-0.8803736937152922
1.9194733723477595,15.685146045558113,-0.04854622403692768,1.3686915788934706,-0.8491776438202906
1.9093860949603336,15.400053462407048,-0.04752308441474789,1.3464758796881147,-0.8193836078566034
1.8995119811372865,15.11958229780063,-0.046516094852368205,1.32467806894444,-0.790912176064543
1.8898475936481172,14.843646323416973,-0.04552569075876741,1.3032835918522807,-0.7636892886045963
1.8803894150540001,14.572162299518872,-0.044552200613776724,1.2822785405105817,-0.7376458178052273
1.8711338687566044,14.305049842908495,-0.04359585936141981,1.26164961768349,-0.7127171873846582
1.8620773373979613,14.04223130223934,-0.042656820244704345,1.2413841029751274,-0.6888430249962508
1.8532161789193111,13.783631640197271,-0.041735165266250346,1.221469821235059,-0.6659668448440877
1.8445467405505362,13.529178322100158,-0.040830914436367334,1.201895113023151,-0.6440357574652453
1.8360653709699277,13.278801210500088,-0.03994403395038021,1.1826488069775112,-0.6230002040841115
1.8277684308460644,13.032432465403463,-0.03907444341974726,1.163720193942739,-0.6028137132171254
1.819652301949012,12.790006449753044,-0.03822202226646444,1.1450990027279189,-0.5834326774480099
1.8117133949964366,12.551459639842257,-0.037386615377110945,1.1267753773748244,-0.5648161485078123
1.8039481563811925,12.316730540356087,-0.036568038101406186,1.1087398558267951,-0.5469256489842462
1.7963530739101845,12.085759603755005,-0.035766080670098864,1.0909833498977919,-0.5297249991538527
1.7889246816695126,11.858489153738557,-0.03498051209820531,1.0734971264493463,-0.5131801575809248
1.7816595641178519,11.634863312543864,-0.03421108363189486,1.0562727896905788,-0.49725907426117816
1.774554359498496,11.414827931851413,-0.03345753179054381,1.039302264523239,-0.48193155520773273
1.7676057626502886,11.198330527086185,-0.03271958104952584,1.0225777808598902,-0.4671691374837845
1.760810527288661,10.985320214916754,-0.031996946204070315,1.0060918588489869,-0.45294497378186666
1.754165467819993,10.77574765376831,-0.031289334449910486,0.9898372949457223,-0.4392337257351207
1.7476733430136702,10.569708662661423,-0.030540425610306822,0.9724388108341625,-0.45341992323413655
1.7413346549009163,10.367311152172555,-0.029828032606396028,0.9551565271550456,-0.46959679043704355
1.735141777406057,10.168531062610509,-0.029151753058932216,0.9379871829596751,-0.48764924145111643
1.7290871778716066,9.973345005500796,-0.02851109965011711,0.9209276466566296,-0.5074653778346494
1.7231634340608664,9.781730236992377,-0.027905508071220202,0.9039749105664232,-0.5289362369282923
1.7173632495601123,9.593664632362607,-0.027334344316911823,0.8871260859075697,-0.5519555484622165
1.7116794677126155,9.409126661531804,-0.026796911373535043,0.87037839819533,-0.5764194984505954
1.7061050842072132,9.228095365502408,-0.02629245534458325,0.8537291830369963,-0.6022264994145438
1.700633258435472,9.050550333640967,-0.025820171052949713,0.8371758823100748,-0.6292769659976732
1.6952573237235278,8.876471681723629,-0.025379207156044668,0.8207160407122034,-0.657473095054875
1.689970796537449,8.705840030668067,-0.024968670806607467,0.8043473026741034,-0.6867186493048704
1.6847673847544156,8.538636485876207,-0.02458763188895068,0.788067409629344,-0.7169187436404365
1.6796409950860451,8.374842617113217,-0.02423512685743484,0.7718741976372288,-0.7479796331869042
1.6745857397348924,8.214440438848747,-0.02391016220116323,0.7557655953577136,-0.779808502189372
1.6695959423603712,8.05741239098629,-0.023611717556182132,0.7397396223799849,-0.8123132527918285
1.6646661434261678,7.903741319905926,-0.02333874848385031,0.7237943879091872,-0.845402292746706
1.659791104997558,7.753410459744483,-0.023090188931478753,0.7079280898188391,-0.8789843210609094
1.6549658150539273,7.606403413835128,-0.022864953388814314,0.6921390140797632,-0.912968110543598
1.6501854913792022,7.462704136225863,-0.02266193875142454,0.6764255345799144,-0.9472622861713905
1.645445585090854,7.322296913192865,-0.022480025899510404,0.660786113353406,-0.9817750981275881
1.6407417838666047,7.185166344660416,-0.022318080998102164,0.6452193012413375,-1.0164141883027542
1.636070014926999,7.051297325433836,-0.02217495652195291,0.6297237390118231,-1.051086348963759
1.6314264478315952,6.920675026145538,-0.022049492005704253,0.6142981589719699,-1.0856972722063631
1.6268074971467084,6.793284873806872,-0.021940514517025844,0.5989413871105738,-1.12015128870166
1.622209825043445,6.669112531849468,-0.021846838847389357,0.58365234581708,-1.1543510941283075
1.6176303438862205,6.548143879529519,-0.021767267411888547,0.5684300572300423,-1.1881974615495718
1.6130662188741405,6.430364990556278,-0.021700589846016076,0.5532736472770309,-1.2215889378459248
1.6085148708005406,6.315762110792011,-0.02164558228350661,0.5381823504778742,-1.254421522149677
1.6039739789997767,6.20432163485442,-0.02160100629519916,0.5231555155944306,-1.286588324047513
1.5994414845550293,6.0960300814335895,-0.02156560746429858,0.5081926122230104,-1.3179791991200194
1.5949155938466006,5.990874067113939,-0.021538113568356526,0.49329323844031375,-1.348480359175276
1.590394782526993,5.888840278466496,-0.02151723233266646,0.4784571296305868,-1.3779739543084706
1.5858778000171472,5.78991544214799,-0.02150164871348349,0.46368416864088696,-1.4063376236851395
1.5813636746276762,5.694086292710214,-0.021490021662431424,0.44897439743317935,-1.4334440117085108
1.5768517194199914,5.6013395377849236,-0.02148098031552013,0.4343280304267233,-1.4591602460016244
1.5723415389350341,5.5116618202661485,-0.021473119541215523,0.41974546975210375,-1.4833473734279705
1.5678330369321678,5.425039677061882,-0.021464994771797835,0.4052273226694747,-1.5058597502134377
1.563326425297918,5.341459493930582,-0.02145511603058077,0.39077442143813745,-1.5265443821515559
1.5588222343040214,5.260907455853541,-0.021441941054148386,0.3763878459622453,-1.5452402109231953
1.554321324417049,5.183369492321862,-0.0214238673932065,0.3620689495775633,-1.5617773428133301
1.5498248998882347,5.108831216835739,-0.02139922335740673,0.3478193883855041,-1.5759762166656437
1.5453345243826846,5.0372778598242824,-0.021366257647833734,0.3336411545807369,-1.587646708931136
1.540852138942722,4.968694194096685,-0.021323127494666326,0.3195366142535266,-1.5965871753560998
1.5363800826218332,4.903064451832105,-0.021267885085226798,0.3055085501710611,-1.6025834315295417
1.531921116175071,4.840372232009628,-0.021198462026794696,0.29156021004299376,-1.6054076786189788
1.5274784492510358,4.780600397077517,-0.02111265153544731,0.27769536073900164,-1.6048173868128794
1.5230557716028623,4.723730957573274,-0.021008087970965785,0.26391834882523413,-1.6005541581897738
1.5186572889257857,4.669744943350345,-0.020882223239288872,0.25023416758362405,-1.5923426042930031
1.5142877640441057,4.618622260071021,-0.02073229944337501,0.23664853031470273,-1.5798892935469093
1.5099525643220737,4.570341529731152,-0.020555316956931635,0.22316794911262094,-1.562881852603011
1.5056577163791864,4.524879914256921,-0.020347996784852048,0.20979981730862712,-1.540988347776034
1.501409969479119,4.482212921757352,-0.020106735596742743,0.19655249221108567,-1.5138571336691178
1.4972168693787746,4.442314195979314,-0.019827551073203487,0.18343537234164087,-1.4811174440252861
1.4930868450439223,4.40515529111779,-0.01950601402062734,0.1704589596728781,-1.442381126060341
1.4890293115812998,4.370705436707233,-0.019137161813871102,0.1576348918562203,-1.3972460991758462
1.4850547942008339,4.338931301318013,-0.018715384666758678,0.14497592137446083,-1.3453023711430516
1.4811750803268926,4.309796769822167,-0.018234271275537572,0.13249580715740736,-1.2861417908379562
1.4774034106460094,4.283262757841587,-0.017686392351919537,0.12020906884812751,-1.2193731727422448
1.473754725751364,4.259287099442524,-0.017062987597085355,0.10813053495245936,-1.1446449869647999
1.4702459944604955,4.237824560617529,-0.01635350088737621,0.09627459671415037,-1.0616783922117996
1.4668966649396826,4.21882705064278,-0.015544875501317982,0.08465406971201826,-0.9703137542485839
1.46372930371163,4.2022441214376585,-0.014620469527755682,0.073278589384367,-0.8705733460012307
1.4607705255668628,4.188023848997442,-0.013558369946216894,0.062152576712915956,-0.7627404455144402
1.4580523783753212,4.176114152877801,-0.012328746163702768,0.05127310061700521,-0.6474484521446988
1.455614451645977,4.166464476520439,-0.01088960363957562,0.04062857897693577,-0.5257604375003377
1.4535071921632041,4.1590274338232405,-0.009179534291594856,0.030200399091613803,-0.39919940806822546
1.4517974911687361,4.153759361908051,-0.007103332322385884,0.019971714386366718,-0.2696698958804531
1.4505797905647757,4.150617101832367,-0.0044938162867602955,0.009954572048703623,-0.13921064106959688
1.450009182212759,4.149540449876685,-0.000940548970542954,0.0002992561006534035,-0.00959104091397689
