x,y,v_x,v_y,omega
2.375,32.48,0.0,3.1794871794871797,-6.163265306122449
2.3733779143921043,31.820696239803148,-0.015448434360911135,3.099596250958991,-5.738350472923492
2.368767701986362,31.177791492250353,-0.028458350455683686,3.023306106686687,-5.357551325453099
2.361642496254337,30.55055741082859,-0.0394007517540782,2.950351811615822,-5.014943984582508
2.3524039758905086,29.938318348556365,-0.048585156472855946,2.880496400500597,-4.705546950827306
2.3413940905736568,29.340445909296772,-0.05627089416383082,2.8135268305431507,-4.425149618291407
2.3289046567353497,28.756354269496857,-0.06267609477242408,2.749250691360801,-4.170175876477864
2.3151852528702737,28.18549612932543,-0.06798489441878054,2.6874935007480336,-3.9375748086891487
2.300449747722988,27.62735918353258,-0.07235324984108348,2.628096459183873,-3.724732506692022
2.2848817223917743,27.081463025699442,-0.07591365807523642,2.570914567798383,-3.5294004769930183
2.268638992433107,26.5473564171457,-0.07877900819778613,2.5158150374753365,-3.3496371814487187
2.251857393843388,26.024614865186244,-0.08104574027572707,2.462675933567134,-3.1837600467683327
2.234653964083119,25.51283846578329,-0.08279644791731273,2.4113850131276466,-3.0303058711278825
2.217129623748678,25.01164997371397,-0.08410203145831542,2.361838720865907,-2.887998005501935
2.1993714443775767,24.520693069732683,-0.08502348636169439,2.3139413170510807,-2.7557190304917523
2.181454571930644,24.03963079926601,-0.08561339408528224,2.2676041159648475,-2.632487913607696
2.163443862785147,23.568144161238116,-0.08591716920516942,2.2227448176341533,-2.517440836841576
2.1453952788844117,23.105930828912882,-0.08597410603992772,2.1792869187966337,-2.4098150443414506
2.1273570804801714,22.652703987323452,-0.08581825971474082,2.1371591915788986,-2.3089351857106406
2.109370848257811,22.208191274068817,-0.08547919002202828,2.0962952203700063,-2.2142017298179786
2.0914723612305086,21.772133812087986,-0.08498259119037262,2.056632988971258,-2.1250811029813432
2.07369235237578,21.344285324550025,-0.0843508264737077,2.018114511390265,-2.0410972684798754
2.0560571603711755,20.924411323281518,-0.0836033830939565,1.9806855006907362,-1.961824515000568
2.038589292810582,20.51228836323702,-0.08275726034026704,1.944295071161644,-1.886881262472583
2.0213079138264756,20.10770335643918,-0.08182730141312775,1.9088954697701541,-1.8159247268276855
2.0042292670093254,19.710452939601847,-0.0808264777978262,1.8744418334425428,-1.748646312133111
1.9873670428254342,19.320342890324376,-0.07976613347732626,1.8408919692000425,-1.6847676205130044
1.9707326983263518,18.937187587327394,-0.07865619508536437,1.8082061545807249,-1.6240369882794932
1.9543357357663125,18.560809510703955,-0.07750535310548584,1.7763469561187315,-1.5662264715027379
1.9381839457581989,18.191038778597786,-0.07632121840035928,1.7452790639399844,-1.5111292164701025
1.922283619770215,17.82771271710238,-0.07511045767567638,1.7149691407781709,-1.4585571606031242
1.9066397360678442,17.470675460508687,-0.07387891091833008,1.6853856839236967,-1.4083390178052975
1.8912561226166784,17.119777579322967,-0.07263169337848921,1.6564988987974274,-1.3603185092154217
1.876135599963294,16.77487573373474,-0.07137328427278966,1.628280582995224,-1.3143528061915477
1.8612801066886167,16.435832350443075,-0.07010760405747142,1.6007040197825146,-1.2703111572525738
1.8466908096688788,16.102515320951877,-0.06883808184479313,1.5737438801336494,-1.2280736748232073
1.8323682010732152,15.77479771962416,-0.06756771430438349,1.547376132511283,-1.1875302610976484
1.8183121837656828,15.45255753994526,-0.0662991171959251,1.5215779596687065,-1.1485796552677299
1.8045221465560752,15.135677447587394,-0.06503457051462369,1.4963276818347955,-1.1111285868423109
1.791016159190985,14.82404785452163,-0.06359388058147514,1.471573204505819,-1.0699173097683743
1.7778100754336827,14.517563177440689,-0.06217834567854628,1.4473284819793546,-1.0306621408249712
1.7648985475314891,14.216118345119067,-0.060788586723298864,1.423574682988479,-0.9932464395141887
1.752276115596524,13.919612146649428,-0.05942505075255876,1.4002938738652169,-0.9575618426531306
1.7399372416694565,13.6279470485946,-0.05808803426713098,1.3774689647521914,-0.9235075839647371
1.7278763391843737,13.341029023030835,-0.05677770368603863,1.355083659664597,-0.8909898770461403
1.7160877984036493,13.058767385707547,-0.055494113273240296,1.3331224100809917,-0.859921355131615
1.704566008320478,12.781074643612971,-0.0542372208521997,1.3115703717721214,-0.8302205618201335
1.69330537546481,12.507866351293437,-0.05300690158273516,1.2904133646043834,-0.8018114875965863
1.6823003399945051,12.23906097532668,-0.05180296003921708,1.269637835079028,-0.7746231475535555
1.6715453894065337,11.974579766397419,-0.050625140798605237,1.2492308213901144,-0.748589196227944
1.6610350701620442,11.714346638467049,-0.049473137720343105,1.2291799208038912,-0.7236475759130558
1.6507639974833048,11.458288054568747,-0.048346602077174415,1.2094732591799218,-0.6997401951998617
1.6407268635492187,11.20633291879549,-0.04724514967602429,1.190099462470144,-0.6768126348479979
1.630918444288705,10.958412474081257,-0.04616836709077391,1.1710476300463444,-0.6548138783934608
1.6213336049472358,10.714460205405853,-0.04511581711369369,1.152307309719422,-0.633696065171055
1.611967304580784,10.474411748081142,-0.04408704351917942,1.1338684743254517,-0.6134142636698271
1.602814599612961,10.23820480080174,-0.04308157522199492,1.1157214997640819,-0.5939262633528025
1.5938706465749164,10.005779043166157,-0.04209892990223836,1.0978571443843343,-0.5751923832616279
1.5851307041333262,9.777076057395544,-0.04113861716052359,1.0802665296215048,-0.5571752958950908
1.5765901344992517,9.552039253996632,-0.04020014125923593,1.0629411217967029,-0.5398398650004448
1.5682444042996324,9.330613801133222,-0.039283003499040556,1.0458727149976956,-0.5231529960501811
1.5600890849834668,9.112746557487014,-0.03838670427396671,1.0290534149661885,-0.5070834982962727
1.5521198528261584,8.898386008403694,-0.03751074484325632,1.012475623922584,-0.49160195740062645
1.5443324885879823,8.687482205134035,-0.0366546288536577,0.9961320262646276,-0.4766806177359712
1.5367301436563268,8.48012697500807,-0.03574865620973078,0.9786796892207499,-0.48913270426590255
1.5293137387205262,8.27642434770262,-0.034883771750272845,0.9613453327359031,-0.5036514508562835
1.5220747039600329,8.07634989766207,-0.03405941644490239,0.9441256200312204,-0.5201186027309677
1.5150045953573494,7.879879886021818,-0.033274951199701704,0.9270173479711726,-0.5384192901474627
1.5080951106903413,7.686991233146845,-0.03252966467656607,0.9100174413142927,-0.5584417660332428
1.5013381039509968,7.497661492330188,-0.031822780460048536,0.8931229474157709,-0.5800771527968376
1.4947255983226473,7.311868824558601,-0.031153463619470384,0.8763310313612488,-0.6032191972691002
1.4882497978380451,7.129591974256716,-0.030520826710074167,0.8596389715138439,-0.627764032766148
1.4819030978318941,6.950810245924561,-0.02992393525326829,0.8430441554590565,-0.6536099472944964
1.4756780942933863,6.77550348158621,-0.02936181273252037,0.8265440763347819,-0.680657156941057
1.4695675922169633,6.603652038969759,-0.028833445138174423,0.8101363295361904,-0.7088075835060107
1.4635646130428612,6.435236770340744,-0.028337785091368747,0.7938186097877798,-0.73796463544514
1.4576624012729669,6.27023900191239,-0.027873755574292548,0.777588708577477,-0.76803299118995
1.4518544303420882,6.108640513756974,-0.027440253291216774,0.7614445119502967,-0.7989183839087128
1.4461344078198959,5.9504235201427065,-0.027036151682044814,0.7453839986617931,-0.8305273867592419
1.4404962800144905,5.795570650220306,-0.02666030360752931,0.7294052386943904,-0.8627671976644817
1.4349342360448092,5.644064928982409,-0.02631154372276958,0.713506392142707,-0.8955454226145492
1.429442711445841,5.4958897584173165,-0.025988690553116936,0.6976857084772148,-0.9287698564632638
1.424016391367928,5.351028898776306,-0.025690548284149527,0.6819415261990779,-0.9623482601429862
1.4186502134292267,5.209466449870607,-0.0254159082749094,0.6662722729028154,-0.9961881331681607
1.413339370278746,5.071186832310211,-0.02516355030109746,0.6506764657676237,-1.030196480234704
1.408079311926232,4.936174768591815,-0.024932243532369718,0.6351527125028205,-1.0642795706485848
1.402865747894583,4.804415263937326,-0.024720747245241977,0.6196997127780319,-1.0983426892318247
1.3976946492504447,4.67589358677731,-0.024527811270359225,0.6043162601745148,-1.1322898772569023
1.3925622505692083,4.550595248765433,-0.024352176169986615,0.5890012447004986,-1.1660236618503323
1.3874650518918181,4.4285059842002,-0.024192573138494267,0.5737536559207655,-1.1994447721821795
1.3823998207326698,4.309611728718824,-0.024047723615297542,0.5585725867589867,-1.2324518406197293
1.3773635942004696,4.193898597114849,-0.023916338596132868,0.5434572380407671,-1.264941086869868
1.3723536812972879,4.081352860115679,-0.02379711762464605,0.5284069238560789,-1.296805982965628
1.367367665465291,3.9719609199384323,-0.023688747441988792,0.513421077831985,-1.3279368967679868
1.3624034074558058,3.8657092844219214,-0.02358990026739546,0.49849926042048504,-1.3582207114552336
1.3574590486015945,3.7625845395089392,-0.023499231677473167,0.48364116732219153,-1.3875404182609863
1.3525330145806194,3.662573319825725,-0.02341537804609965,0.468846639184612,-1.4157746795017963
1.3476240197682487,3.565662277074235,-0.0233369535002875,0.4541156727343403,-1.442797358712081
1.3427310722850159,3.4718380459169325,-0.023262546340025173,0.4394484335256984,-1.46847701448709
1.3378534798588235,3.3810872069927065,-0.023190714861806887,0.42484527051454984,-1.492676354437798
1.3329908566341384,3.293396246655675,-0.02311998251614728,0.4103067326952836,-1.5152516455059728
1.3281431310764866,3.2087515129751765,-0.023048832318632435,0.39583358807138136,-1.5360520768039956
1.3233105551387498,3.1271391674748195,-0.02297570042171789,0.38142684526533843,-1.5549190711771925
1.3184937148767495,3.048545132020255,-0.022898968740191254,0.36708777811145715,-1.5716855419013886
1.3136935427258478,2.9729550301890804,-0.022816956506490287,0.3528179536140212,-1.586175091418634
1.308911331678382,2.900354122371997,-0.022727910612231585,0.3386192636915217,-1.598201149913975
1.3041487516344166,2.8307272337624383,-0.02262999456839094,0.3244939611614253,-1.6075660530386098
1.2994078682365842,2.7640586742938957,-0.0225212758871557,0.310444700443733,-1.6140600604664372
1.2946911645450365,2.700332149483355,-0.0223997116513941,0.29647458346619004,-1.6174603206289035
1.2900015659627249,2.6395306610407516,-0.0222631319896687,0.2825872112252855,-1.6175297924773304
1.2853424688871908,2.581636396017906,-0.022109221110654848,0.2687867413732435,-1.6140161432920321
1.2807177736469904,2.526630603210709,-0.021935495462684054,0.25507795202862127,-1.6066506535722758
1.276131922385195,2.474493455519603,-0.02173927845917586,0.24146631169620442,-1.5951471775963906
1.2715899426889825,2.4252038970527963,-0.02151767102856212,0.2279580546543276,-1.5792012337752472
1.267097497948598,2.378739473981476,-0.021267516975099363,0.2145602603106392,-1.5584893359316052
1.2626609456854534,2.335076148613272,-0.02098536172151543,0.20128093367226563,-1.5326687301116353
1.2582874054569728,2.294188096970018,-0.02066740235925225,0.18812908197778247,-1.5013777785247036
1.2539848384880545,2.256047491531053,-0.020309425916159304,0.17511477934569128,-1.4642373425148885
1.2497621419976925,2.2206242730148773,-0.01990673113490731,0.16224920652265282,-1.4208536733273862
1.24562926244983,2.1878859185176545,-0.01945402646378299,0.14954464583185278,-1.3708235397999584
1.2415973339283175,2.157797218549071,-0.018945292788716237,0.13701440148797722,-1.3137426255366973
1.2376788509510086,2.1303200831925295,-0.01837359270946337,0.1246726019076686,-1.2492186318346363
1.2338878899947667,2.1054134085248286,-0.017730797349982137,0.11253382349901253,-1.176891027546014
1.2302404019082542,2.0830330491062057,-0.01700718442632678,0.10061245667835478,-1.096459943960796
1.2267546099718523,2.0631319603878175,-0.01619083401559685,0.08892172159200314,-1.007727148876652
1.2234515682830753,2.045660593236402,-0.015266705877517243,0.0774722512786191,-0.9106519099414807
1.2203559665063948,2.0305676323685766,-0.014215215805155562,0.06627023317686002,-0.8054229329733552
1.2174973166687542,2.0178011502744866,-0.01301002074380279,0.05531531057637322,-0.6925427405996255
1.214911739866035,2.0073101567194733,-0.011614520234476056,0.044598913757093746,-0.5729105170532834
1.2126447264214437,1.999046289952087,-0.009976083999727015,0.034104579265641276,-0.44787223954068434
1.2107556219486622,1.9929648998666423,-0.008015387169620775,0.02381342154813557,-0.31918685856740037
1.209325848625549,1.9890236916988684,-0.005601501621933069,0.013721894335421387,-0.18884844229222947
1.2084789582598277,1.9871733305928743,-0.002464120908745532,0.003900592388320778,-0.058730550972678375
