x,y,v_x,v_y,omega
2.375,32.48,0.0,2.5128205128205128,-6.040816326530612
2.3741343440118428,32.03206554979755,-0.009618399868415471,2.4642289338733248,-5.744822085747433
2.3716380444594805,31.592741623080226,-0.0181182618244956,2.417148029652535,-5.469878392512545
2.3677014538217045,31.161763679393598,-0.025621634150792667,2.3714957890877604,-5.213989552278247
2.3624942707712684,30.738881354555595,-0.032235955298500894,2.327196709112277,-4.975388407373734
2.356167992761095,30.323857353976567,-0.03805602259231537,2.2841810750991156,-4.752505934095086
2.3488580412825755,29.916466466228663,-0.04316566050234135,2.2423843443220477,-4.543945458660592
2.3406856091936454,29.516494679919266,-0.0476391404857738,2.20174661467126,-4.348460698860107
2.3317592710698927,29.12373838980723,-0.05154239422258983,2.16221216435136,-4.16493699089455
2.3221763907186683,28.738003680423144,-0.05493405412434558,2.1237290510273934,-3.9923751809299017
2.312024354460769,28.35910567733695,-0.05786634874120307,2.0862487610414546,-3.829877755950805
2.301381654258285,27.98686795775035,-0.060385875730841046,2.049725901031886,-3.676636864302828
2.2903188410446,27.621122013348995,-0.06253427108788473,2.0141179256498236,-3.5319239371486275
2.278899365533905,27.26170675938608,-0.06434879014205672,1.9793848961602993,-3.3950806711804717
2.2671803212286505,26.90846808482804,-0.06586281324965798,1.945489265595703,-3.2655111728104393
2.255213102206332,26.561258439108563,-0.06710628699832683,1.9123956868429237,-3.1426750966084267
2.2430439864745946,26.219936451636308,-0.06810611002097958,1.8800708406266053,-3.026081637455759
2.230714654174133,25.88436658070552,-0.06888647109525804,1.8484832808265799,-2.9152842578822877
2.2182626486328347,25.554418788884846,-0.06946914603027804,1.8176032949587075,-2.809876050263292
2.2057217871921417,25.22996824232112,-0.0698737588663098,1.7874027779715662,-2.709485648684794
2.1931225278053263,24.910895031703504,-0.07011801209830644,1.7578551177797253,-2.6137736179106787
2.180492296620839,24.597083912897308,-0.07021788995155288,1.7289350911780246,-2.5224292574564036
2.167855781090474,24.28842406548411,-0.07018783816361748,1.7006187689685932,-2.4351677676568704
2.1552351925639393,23.98480886764085,-0.0700409232423228,1.672883429289853,-2.3517277321045063
2.142650501833794,23.686135685960487,-0.06978897375929202,1.6457074782697545,-2.2718688771663382
2.130119650665329,23.392305678964767,-0.06944270589031741,1.6190703772382375,-2.1953700746601768
2.117658741974656,23.10322361318864,-0.06901183511715943,1.5929525758298655,-2.122027558338755
2.1052822109964255,22.818797690828887,-0.06850517575206765,1.5673354503895516,-2.051653328727252
2.0930029795030904,22.538939388049016,-0.06793072972943556,1.5422012471645743,-1.9840737241915092
2.080832594894383,22.263563303119817,-0.06729576592286625,1.5175330298265532,-1.9191281389702786
2.0687813557636026,21.992587013652695,-0.06660689108580702,1.4933146309192649,-1.8566678713588138
2.056862213768809,21.725935623686254,-0.06582801996745306,1.4694785909300425,-1.7941529281757205
2.0450857606942128,21.463536726712427,-0.06502145863917634,1.446064708779154,-1.7342871919782477
2.033456619401107,21.20531561657823,-0.06419122239532897,1.4230587371564025,-1.6769285155731593
2.0219787251946446,20.95120009629749,-0.06334093545425226,1.4004470437406684,-1.6219438231999166
2.0106553928902127,20.701120370411303,-0.062473867928328874,1.3782165772170012,-1.5692084382295035
1.9994893775534166,20.455008943260843,-0.06159296914718226,1.3563548355658819,-1.5186054674591989
1.9884829295356674,20.212800522779943,-0.06070089771669638,1.3348498364441088,-1.4700252366714888
1.9776378443623457,19.974431929445558,-0.059800048653545886,1.3136900894934889,-1.4233647726810066
1.9669555079727856,19.739842010052584,-0.05889257789712162,1.2928645704284547,-1.3785273275855745
1.956436937759975,19.508971556004983,-0.05798042446744003,1.272362696767113,-1.3354219413739834
1.946082819812162,19.281763225838542,-0.05706533050826029,1.252174305082226,-1.2939630394309598
1.9358935427178352,19.058161471711795,-0.05614885942870317,1.2322896296594068,-1.2540700618247318
1.9258692282592154,18.83811246962109,-0.05523241233373989,1.212699282459517,-1.2156671215698907
1.9160097592869523,18.621564053113545,-0.05431724291362632,1.1933942342909936,-1.1786826893323146
1.9063148050397323,18.408465650287837,-0.05340447094437366,1.1743657971057306,-1.1430493022876944
1.8967838441465537,18.19876822388779,-0.05249509453539127,1.1556056073392817,-1.108703295064072
1.8874161855262044,17.992424214307217,-0.051590001246266365,1.1371056102226074,-1.075584550894755
1.8782109873776562,17.789387485337322,-0.050689978182045625,1.118858044998457,-1.043636271283618
1.869167274436407,17.58961327249919,-0.04979572116517015,1.1008554309807972,-1.0128047626424237
1.8602839536550413,17.39305813381487,-0.04890784307222473,1.0830905544005323,-0.983039238501406
1.8515598284512134,17.199679902880156,-0.048026881414753496,1.0655564559851733,-0.9542916360217221
1.8429936116526957,17.00943764411132,-0.04715330523544169,1.048246419224123,-0.9265164456530588
1.8345839372569586,16.822291610046406,-0.0462875213838587,1.0311539592749088,-0.899670552883036
1.826329371111747,16.63820320058945,-0.04542988022960409,1.0142728124690454,-0.8737130911183101
1.8182284206132315,16.4571349240931,-0.0445806808650125,0.997596926379267,-0.8486053048215065
1.8102858540987414,16.279279596592914,-0.04367005818487729,0.978573379178376,-0.8746412338460244
1.8025032325275885,16.104838646150817,-0.04280351482793173,0.9596594035115782,-0.902142625158417
1.7948727379213794,15.933792599996675,-0.04197975857439255,0.9408522204233287,-0.9309951692213909
1.7873867879240806,15.766122475174146,-0.04119746361781659,0.9221491664936416,-0.9610864370465532
1.7800380414819834,15.601809758025787,-0.04045527462770905,0.9035476907103681,-0.992305631146766
1.7728194038286367,15.440836384204108,-0.03975181040947529,0.885045351752755,-1.0245433390529848
1.765724030845027,15.283184719134752,-0.03908566718618571,0.8666398156845457,-1.0576912883375063
1.7587453328611231,15.128837538857923,-0.03845542152385957,0.8483288540579911,-1.0916421020724707
1.7518769779612393,14.977778011173697,-0.03785963291929518,0.8301103424333957,-1.1262890536312715
1.7451128948524854,14.829989677015686,-0.037296846066857604,0.8119822593222774,-1.1615258197108989
1.738447275352843,14.685456431975748,-0.036765592818057656,0.7939426855659139,-1.1972462304148088
1.7318745765531505,14.544162507899962,-0.03626439384519381,0.7759898041650449,-1.2333440151881772
1.725389522705485,14.40609245447283,-0.03579176001775708,0.7581219005808518,-1.269712543339869
1.7189871068890943,14.271231120702662,-0.03534619349769186,0.7403373635321102,-1.306244557817523
1.7126625925041778,14.139563636216089,-0.03492618855693596,0.7226346863186957,-1.342831900823193
1.7064115146434424,14.01107539226373,-0.034530232117901634,0.7050124687074858,-1.3793652297663408
1.7002296813915105,13.885752022331964,-0.03415680401467437,0.6874694194232609,-1.4157337219479709
1.6941131751029201,13.76357938224736,-0.03380437696966368,0.6700043592945519,-1.4518247662537134
1.6880583537107021,13.644543529650711,-0.03347141627720267,0.6526162251126639,-1.4875236400041714
1.682061852119363,13.528630702706142,-0.033156379182119326,0.6353040742714349,-1.5227131689675042
1.676120583738593,13.415827297897785,-0.032857713937546384,0.6180670902658527,-1.5572733683819826
1.6702317422172208,13.306119846751294,-0.0325738585221471,0.6009045891396034,-1.5910810626655678
1.6643928034409068,13.199494991300064,-0.032303238992453354,0.5838160269851693,-1.6240094813065808
1.6586015278618893,13.095939458096009,-0.032044267441074234,0.5668010086154337,-1.655927828236485
1.652855963234847,12.99544003054174,-0.031795339526062345,0.5498592975431029,-1.6867008217864452
1.6471544478397444,12.897983519294716,-0.03155483153063337,0.5329908274238498,-1.7161882021296582
1.6414956142804815,12.803556730463868,-0.03132109690561839,0.5161957151411244,-1.7442442029205985
1.6358783939574333,12.712146431284992,-0.031092462239364103,0.4994742757352479,-1.7707169836739138
1.6303020223226885,12.623739312922208,-0.03086722259113076,0.48282703940682054,-1.7954480192996947
1.6247660450392105,12.538321949998679,-0.030643636114181787,0.4662547708546136,-1.8182714431571132
1.6192703251794223,12.455880756410092,-0.030419917883467013,0.44975849124077033,-1.8390133400464483
1.6138150516152325,12.376401936918455,-0.030194232829751196,0.43333950311075276,-1.857490985789518
1.6084007487705436,12.299871433961702,-0.029964687666792687,0.4169994186309629,-1.8735120305347794
1.6030282879293212,12.226274869046186,-0.02972932168012369,0.4007401915414483,-1.8868736237854593
1.5976989003179272,12.155597478014826,-0.029486096224253876,0.38456415325143944,-1.8973614805566594
1.5924141922103843,12.087824039404797,-0.02923288274844388,0.36847405352665186,-1.9047488902609249
1.5871761623406324,12.022938795027464,-0.0289674491376901,0.3524731062214903,-1.9087956732422768
1.5819872219481257,11.960925361823929,-0.028687444112382943,0.3365650404844745,-1.9092470948101024
1.5768502178344503,11.901766633978951,-0.028390379372898338,0.3207541577930501,-1.9058327538537534
1.5717684588721204,11.84544467422516,-0.02807360909743479,0.3050453950268545,-1.8982654736227904
1.5667457464870505,11.791940593255479,-0.02773430629222965,0.28944439352516654,-1.886240237424532
1.561786409740474,11.741234416211213,-0.02736943533640034,0.27395757363331885,-1.8694332337914694
1.5568953457752277,11.693304935366175,-0.026975719833001226,0.2585922135337582,-1.847501106900705
1.5520780665823728,11.64812954844383,-0.02654960453205306,0.2433565300478732,-1.8200805526293888
1.5473407533137078,11.605684082574104,-0.02608720956422504,0.22825975739354293,-1.7867884641245912
1.5426903197560384,11.56594260484994,-0.025584274409877577,0.21331221731938607,-1.747222920774293
1.538134487160911,11.52887722197001,-0.025036087758207103,0.19852537023538444,-1.7009654412632789
1.5336818734953228,11.494457873820444,-0.024437397414993185,0.18391183142647696,-1.647585098274961
1.529342101514144,11.462652129420825,-0.02378229126477401,0.16948532856929463,-1.5866453352636627
1.5251259321228492,11.43342499891316,-0.023064035305167777,0.15526056596031165,-1.5177146505841763
1.5210454327252794,11.406738782766205,-0.022274846890050954,0.14125294678364697,-1.440382729693403
1.5171141953014757,11.382552989625232,-0.02140556892999104,0.1274780881160611,-1.3542840946308088
1.5133476268626698,11.36082436740923,-0.020445191501185088,0.11395104761730125,-1.2591318168614227
1.5097633472416372,11.341507107325594,-0.019380137621399268,0.10068517553419515,-1.1547640704988
1.5063817482287298,11.32455329359086,-0.01819318474423925,0.08769053262951881,-1.0412057575542784
1.5032267974257358,11.309913673057675,-0.01686182417791374,0.07497191773921506,-0.9187450810293943
1.5003272160303203,11.29753878807459,-0.015355746882259094,0.06252680429508622,-0.7880190959618348
1.4977182360379224,11.287380415163629,-0.01363291969994095,0.05034400582670331,-0.6500910104514498
1.4954442914891537,11.279393020623317,-0.011633130841933362,0.038404822398999575,-0.5064851287594704
1.4935633763142282,11.273534477988257,-0.009265926657239541,0.026690095768339344,-0.3591284425058393
1.4921550832164496,11.269764266976825,-0.006381774429186811,0.015201137691994517,-0.21014500388402513
1.4913406426359457,11.268033548194339,-0.002667565354192145,0.004029071002312279,-0.06148353411678967
