x,y,v_x,v_y,omega
2.375,32.48,0.0,2.717948717948718,-4.326530612244898
2.3740378074376753,31.91560199333437,-0.009163738688806466,2.65727039315249,-4.067735471842148
2.371285165531963,31.36370375664531,-0.017051898508450715,2.5989032896004507,-3.8319505742490554
2.366992165333721,30.823835019475464,-0.023833817665285674,2.5427037310647678,-3.616506635561852
2.36137590186497,30.29555436894026,-0.029654405846627846,2.4885405597467054,-3.419102204492948
2.354625195158469,29.778446775487687,-0.03463803897719184,2.4362936636111083,-3.2377457106388157
2.346904565519251,29.272121404335728,-0.03889176711059856,2.385852728312317,-3.0707077564316245
2.3383575931947416,28.77620966985096,-0.04250796931330184,2.3371161715426085,-2.916481643446364
2.329109767553795,28.29036349801657,-0.045566560600474176,2.289990226880156,-2.773750557939196
2.31927091111939,27.814253768319332,-0.04813683401290713,2.244388151188782,-2.641360171927448
2.3089372481276205,27.34756891127646,-0.05027900400394536,2.2002295349337837,-2.518295671277483
2.2981931747700504,26.89001364172809,-0.05204550416338654,2.1574396988602365,-2.403662420243943
2.2871127782209806,26.44130781116506,-0.05348208201823225,2.1159491636448178,-2.29666962662848
2.2757611434272706,26.001185364913695,-0.0546287255409111,2.0756931816062747,-2.196616493456806
2.264195480041494,25.56939339208651,-0.05552044956172137,2.036611321509797,-2.1028804394393616
2.2524660964970424,25.14569125792775,-0.056187965147341146,1.9986470990497833,-2.014907047208069
2.2406172438134684,24.729849809609785,-0.05665825088670067,1.9617476468356276,-1.9322014597405657
2.228687848091628,24.321650647728006,-0.056955041702254836,1.9258634187051107,-1.8543209947957324
2.216712147661139,23.92088545674377,-0.057099248111922456,1.8909479240019424,-1.7808687871252342
2.2047202483584547,23.5273553884712,-0.05710931667555153,1.8569574881177608,-1.711488300654339
2.192738608347765,23.140870493423613,-0.05700154056911275,1.8238510361449776,-1.6458585792651097
2.180790462173099,22.761249195449807,-0.05679032776103728,1.7915898969389057,-1.5836901264578904
2.1688961922873093,22.3883178056185,-0.05648843305600573,1.7601376252639924,-1.5247213219500957
2.1570736550927885,22.0219100717643,-0.0561071592727678,1.7294598400141183,-1.4687152979355085
2.145338467509677,21.66186676050279,-0.055656531994960734,1.6995240767621804,-1.4154572098610787
2.133704259227378,21.30803526886531,-0.05514545164597979,1.670299653118558,-1.3647518466511348
2.122182895067674,20.96026926300314,-0.05458182606548548,1.6417575455687854,-1.316421533697244
2.110784671270796,20.618428341672942,-0.05397268628573633,1.613870276623576,-1.2703042889384604
2.099518488991362,20.2823777224458,-0.05332428780410948,1.5866118112539662,-1.2262521982259498
2.088392007844328,19.95198794878516,-0.05264219931050038,1.5599574617045233,-1.1841299810962684
2.077411781959623,19.627134616318635,-0.05193138054383452,1.5338837998814265,-1.1438137222302327
2.0665833806777893,19.30769811678784,-0.05119625071172449,1.5083685766022974,-1.105189747381074
2.0559114957391365,18.99356339830193,-0.050440748704014736,1.4833906470730296,-1.0681536255243105
2.0454146024343625,18.684622223887075,-0.049529663722404804,1.4589062521160847,-1.0287228875796552
2.035108942084584,18.380770322443407,-0.04861948246596588,1.4349213806807604,-0.9911548526140647
2.0249941166996015,18.08190471860675,-0.04771218786719529,1.4114177034778834,-0.9553389764700746
2.015069339493325,17.78792619515657,-0.046809499811630774,1.3883777579524077,-0.9211725197605537
2.0053334869766584,17.498739116413677,-0.0459129051090032,1.3657848967417978,-0.88855990965776
1.9957851451173392,17.214251262077134,-0.045023684027369865,1.3436232397967325,-0.857412160814647
1.9864226502452222,16.934373670763144,-0.04414293380231554,1.3218776298602801,-0.8276463493083799
1.977244125300469,16.659020492569603,-0.0432715894810499,1.300533591030586,-0.7991851341914187
1.9682475119512786,16.388108850044816,-0.04241044241600147,1.2795772901578808,-0.7719563218445938
1.9594305990458512,16.121558706989024,-0.04156015668330618,1.2589955008496727,-0.7458924688609447
1.95079104780901,15.859292744562552,-0.04072128366756234,1.2387755698786156,-0.7209305196586245
1.942326414146328,15.60123624421566,-0.039894275024648845,1.2189053858060654,-0.6970114754344126
1.9340341683768298,15.347316976992673,-0.039079494208663565,1.1993733496509615,-0.6740800914336155
1.9259117126786265,15.097465098797215,-0.03827722672660692,1.180168347448633,-0.6520845998336678
1.9179563964995223,14.851613051236559,-0.03748768926486219,1.1612797245576145,-0.6309764558229838
1.9101655301561973,14.609695467691616,-0.036711037814423905,1.1426972615847137,-0.6107101047082417
1.9025363968204616,14.371649084285217,-0.03594737490686772,1.1244111518095652,-0.5912427681063509
1.895066263068945,14.137412655445228,-0.035196756059956535,1.1064119799998466,-0.5725342474753644
1.8877523881530187,13.906926873780925,-0.034459195520293646,1.0886907025173367,-0.5545467434146082
1.8805920321284508,13.680134294011172,-0.03373467138035409,1.0712386286231603,-0.5372446893209413
1.8735824629689848,13.456979260701452,-0.033023130138369536,1.0540474028979838,-0.5205945981276491
1.866720962774472,13.2374078395837,-0.0323244907617523,1.0371089886996605,-0.504564920977016
1.86000483317216,13.021367752248604,-0.03163864830788576,1.0204156525869634,-0.4891259167888725
1.8534313999990752,12.808808314014392,-0.030965477150063755,1.0039599496436284,-0.4742495317869089
1.8469980173439606,12.599680374789397,-0.03030483385102918,0.98773470964203,-0.45990928813363013
1.8407074733390263,12.394082033004995,-0.029605109053105264,0.9703447359237125,-0.47384903026062786
1.8345602674705999,12.19212339574301,-0.0289397087414337,0.9530708570475754,-0.4897752693683604
1.8285492238066499,11.993780424954306,-0.028308326153327987,0.9359098171305528,-0.5075730586822238
1.822667240226822,11.79902975276162,-0.02771056508312804,0.9188584894664482,-0.5271306104671705
1.8169073063482297,11.607848654900295,-0.027145948046322005,0.9019138711176117,-0.5483390457342643
1.8112625198065524,11.420215025249657,-0.026613923779176474,0.8850730779360932,-0.5710921520527625
1.8057261010269667,11.236107351366798,-0.02611387412164065,0.8683333399959037,-0.595286148488781
1.8002914066098286,11.055504690938069,-0.025645120327293377,0.8516919974205689,-0.6208194567199095
1.7949519414472244,10.87838664906668,-0.02520692884036567,0.835146496592666,-0.6475924773968943
1.7897013696784674,10.70473335631733,-0.024798516576366798,0.8186943867344927,-0.6755073708387568
1.7845335245852971,10.534525447440803,-0.024419055739541562,0.8023333168514818,-0.7044678411565
1.7794424175208825,10.367744040702988,-0.02406767820726436,0.7860610330324564,-0.7343789229028186
1.7744222459607264,10.204370717743728,-0.023743479508507092,0.7698753761033504,-0.7651467693408452
1.769467400758162,10.044387503891347,-0.023445522420678624,0.7537742796336337,-0.7966784414137553
1.7645724726823189,9.887776848858586,-0.023172840206400105,0.7377557682974103,-0.8288816964787601
1.7597322583121882,9.734521607744984,-0.022924439509129167,0.7218179565940378,-0.8616647758433071
1.7549417653567145,9.584605022269312,-0.022699302923953595,0.705959047936191,-0.8949361901077754
1.750196217467681,9.438010702153768,-0.022496391257317606,0.6901773341166021,-0.9286045012771204
1.7454910586095385,9.294722606578851,-0.022314645486896524,0.6744711951683143,-0.9625781005532312
1.7408219570482357,9.15472502562427,-0.022152988430273322,0.6588390996372321,-0.9967649806595681
1.736184809019568,9.018002561606899,-0.022010326128465707,0.643279605290113,-1.0310725014792401
1.731575742136573,8.884540110221408,-0.0218855489476771,0.6277913602859962,-1.0654071477062794
1.7269911185950808,8.75432284138271,-0.02177753239986783,0.6123731048444858,-1.0996742771166135
1.7224275382367125,8.627336179661746,-0.021685137679830963,0.5970236734503973,-1.1337778579592492
1.717881841529426,8.503565784197132,-0.021607211913374197,0.5817419976411579,-1.167620193848555
1.7133511125271905,8.38299752795454,-0.021542588107914703,0.566527109431132,-1.2011016344043801
1.7088326818725688,8.265617476193501,-0.021490084793243925,0.5513781454358927,-1.2341202697373046
1.70432412990896,8.151411863986933,-0.021448505336364266,0.5362943517695195,-1.2665716067109867
1.6998232899730827,8.040367072622189,-0.021416636910084216,0.5212750897994837,-1.2983482247320934
1.69532825194303,7.932469604693281,-0.021393249090420355,0.5063198428567723,-1.3293394086209782
1.6908373661229996,7.827706057671865,-0.021377092052722934,0.49142822401384767,-1.359430755904193
1.6863492475527366,7.726063095719102,-0.02136689433073549,0.4765999850600916,-1.388503755645486
1.6818627808378848,7.627527419471292,-0.021361360096424864,0.46183502682380867,-1.4164353356993578
1.677377125607077,7.532085733498537,-0.02135916591126721,0.4471334110119386,-1.4430973750374274
1.672891722712774,7.439724711097103,-0.02135895689161957,0.4324953737636259,-1.4683561775736562
1.6684063013058763,7.350430956032017,-0.02135934222169109,0.41792134114193563,-1.4920719037162933
1.6639208869291862,7.264190960796075,-0.02135888993726328,0.4034119468194381,-1.5140979557267515
1.6594358107921703,7.180991060893984,-0.021356120891457837,0.3889680522480943,-1.534280312904495
1.6549517204095454,7.100817384595569,-0.02134950180020605,0.37459076964157784,-1.5524568126948572
1.6504695918093548,7.023655797528701,-0.021337437249229006,0.36028148813813443,-1.568456374109513
1.6459907435429837,6.949491841401144,-0.02131826052573435,0.3460419035528666,-1.5820981604666935
1.6415168527606134,6.87831066605052,-0.02129022311588675,0.33187405216737614,-1.5931906795580015
1.6370499736518065,6.810096953923988,-0.021251482682275318,0.3177803490377003,-1.6015308211578216
1.6325925585934167,6.744834835986275,-0.02120008930238959,0.30376363132147643,-1.6069028346362424
1.6281474823974347,6.682507797949793,-0.021133969706960784,0.2898272071212277,-1.6090772537867053
1.6237180701119969,6.62309857562105,-0.021050909201971217,0.27597491029537435,-1.6078097825114703
1.6193081289029707,6.566589038074607,-0.020948530883993382,0.26221116157550184,-1.602840164695935
1.6149219846363243,6.512960057317944,-0.020824271655497766,0.24854103610701017,-1.5938910758522575
1.6105645239005792,6.462191363127111,-0.02067535439921603,0.2349703371390093,-1.5806670949503394
1.6062412423660586,6.414261381859276,-0.02049875545336057,0.22150567493561654,-1.562853845199289
1.6019583005922844,6.369147058353761,-0.02029116620163335,0.20815454892643548,-1.5401174365864065
1.5977225886969824,6.326823660623717,-0.020048947086958764,0.19492542945494765,-1.512104406702551
1.5935418017383232,6.287264568073979,-0.0197680715669369,0.18182783292349008,-1.478442448212701
1.5894245283150394,6.250441045690511,-0.01944405627386161,0.16887238025239457,-1.4387423429139594
1.5853803558850594,6.216322009370341,-0.019071871630708854,0.15607082279686335,-1.3926017091761693
1.5814199978512258,6.184873791771913,-0.018645823929611754,0.14343601147388407,-1.339611431006233
1.577555449902826,6.1560599243963985,-0.018159394626576085,0.1309817730548223,-1.2793659938353672
1.5738001869861993,6.1298409608316256,-0.01760501410320189,0.1187226418477796,-1.211479418619943
1.5701694184946722,6.106174378965459,-0.01697373343515191,0.10667337592522956,-1.1356090481052679
1.5666804292276395,6.085014616809854,-0.01625473577468307,0.09484816841388359,-1.0514900051643334
1.5633530495737942,6.0663133160967355,-0.015434594261941206,0.08325945742535192,-0.9589834380637384
1.560210323631739,6.0500198647214845,-0.014496128995724994,0.07191626995800088,-0.8581410400025968
1.557279484005329,6.0360823294303145,-0.013416629351039001,0.060822161386487515,-0.7492854698532434
1.5545934066214866,6.0244488235600855,-0.012165060018887904,0.049973132615695706,-0.6330990497764576
1.5521928317558131,6.015069204728615,-0.01069755774943031,0.039356570541151485,-0.5106990918623904
1.5501298755073956,6.0078966502447315,-0.008949644616451077,0.028953472162492874,-0.3836577304257638
1.548474026325638,6.002887931745949,-0.006820347590763474,0.018748608778304296,-0.25390591525226697
1.5473244512419795,5.999999351288647,-0.004127986539318359,0.008761681291252002,-0.12346441042328637
