x,y,v_x,v_y,omega
2.375,32.48,0.0,3.230769230769231,-7.755102040816326
2.3735092890358245,31.90507222320149,-0.016563455157505676,3.157317178103078,-7.283187036125237
2.3692463539337787,31.34310119400715,-0.03080249042078025,3.086805368500694,-6.8541747495619045
2.3626013846515708,30.793575595295827,-0.04303050160375156,3.0190346171806657,-6.462963024386
2.3539123348945763,30.25601817417178,-0.05351449569618934,2.953825617530978,-6.105175438656956
2.3434725785196098,29.72998241211935,-0.062482797358992134,2.891016183051535,-5.777042022867234
2.3315373088397333,29.21504964730926,-0.07013131019519345,2.830458981505041,-5.475302269481435
2.318328913401807,28.710826569897222,-0.0766286391151014,2.7720196564065005,-5.1971257444308
2.3040415082514683,28.216943027756106,-0.08212030699977052,2.71557525627258,-4.940046711936484
2.288844778551199,27.733050092732476,-0.08673224522544214,2.6610129106566056,-4.701909999382109
2.2728872436849255,27.258818347249914,-0.09057369773315549,2.6082287058163423,-4.480825939584228
2.256299042540254,26.793936358636117,-0.09373964831875053,2.557126723225859,-4.275132689985447
2.239194316973079,26.338109314467243,-0.09631285798319159,2.5076182119838393,-4.083364581529142
2.221673257408047,25.891057796894888,-0.09836558162827516,2.4596208721534296,-3.904225422372777
2.203823863283048,25.452516677640695,-0.09996101976060096,2.413058230670957,-3.736565893396892
2.185723461986102,25.022234118327695,-0.10115455020546679,2.36785909502902,-3.5793643384070575
2.167440022589536,24.59997066322966,-0.10199477642304482,2.323957072726958,-3.4317103828537934
2.149033294700992,24.185498413483447,-0.10252442233855492,2.2812901466753726,-3.2927909188732087
2.130555797847487,23.778600273419464,-0.10278109825594513,2.239800298480008,-3.1618780775271698
2.11205368277303,23.379069260993663,-0.10279795812691124,2.1994331729177845,-3.0383188758724198
2.093567482694259,22.98670787540814,-0.10260426497054116,2.1601377780324693,-2.9215262804037248
2.0751327697898136,22.60132751592913,-0.10222587841218914,2.121866216178772,-2.810971472179086
2.0567807298926235,22.22274794668611,-0.10168567600103119,2.0845734420769877,-2.7061771346210963
2.038538666426131,21.850796802890525,-0.10100391807110543,2.048217044540611,-2.60671161421452
2.0204304430082543,21.485309134468846,-0.1001985643497537,2.0127570490336057,-2.5121838283534212
2.0024768727863855,21.126126983579727,-0.09928554922656506,1.9781557386232644,-2.422238814430587
1.9846960614187767,20.773098992892457,-0.09827902152464207,1.9443774912353027,-2.3365538306993217
1.967103709646403,20.42608004185501,-0.09719155372395517,1.9113886314029633,-2.254834933103616
1.9497133805755222,20.08493090848399,-0.09603432484138812,1.8791572949417086,-2.1768139636719894
1.9325367360904981,19.7495179544727,-0.09481728054776636,1.8476533051837531,-2.102245895608893
1.9155837462192133,19.419712831644073,-0.0935492735776201,1.8168480595787506,-2.0309064882231564
1.8988628747631293,19.095392207976754,-0.09223818704553781,1.7867144256136807,-1.962590211571313
1.8823812440671543,18.776437511609764,-0.09089104290973953,1.7572266451306324,-1.897108406380994
1.8661447814296026,18.462734691387382,-0.08951409750750186,1.7283602462292122,-1.8342876496326146
1.850158349330227,18.154173992643734,-0.08811292581889561,1.7000919620335477,-1.7739683002610933
1.8344258613766777,17.850649747049097,-0.08669249588720525,1.672399655684625,-1.7160032029124446
1.8189503856301314,17.55206017544848,-0.08525723462997734,1.6452622509889026,-1.6602565306510184
1.8037342367636613,17.258307202720097,-0.08381108610857939,1.618659668215375,-1.6066027500432525
1.7887790583275072,16.969296283767896,-0.08235756318202195,1.5925727645868242,-1.5549256942105332
1.7740858962397223,16.684936239839864,-0.08089979334891996,1.5669832790579943,-1.5051177313033073
1.7596552644854109,16.405139104433314,-0.07944055947676378,1.5418737810147958,-1.4570790174478123
1.745487203890022,16.129819978111122,-0.07798233602755436,1.5172276225651273,-1.4107168245949333
1.7315813347295377,15.858896891609085,-0.07652732131116212,1.4930288941241954,-1.3659449348906254
1.7179448670593525,15.592294631298977,-0.07498898613534091,1.4692184426548032,-1.3200099303259512
1.7045833447881151,15.329940441600026,-0.0734723724339617,1.4458281095557508,-1.276013354714388
1.6914927955987724,15.071759968786154,-0.07197817411428899,1.422843810598373,-1.233851627028115
1.6786691354332823,14.817681340257632,-0.07050693883560256,1.400252061940737,-1.1934277484350881
1.666108193279171,14.567635059397428,-0.06905908509896772,1.3780399476170773,-1.1546508168523513
1.6538057330484626,14.321553906089846,-0.06763491746445986,1.356195089133852,-1.1174355821176762
1.6417574728672093,14.079372842536689,-0.06623464010502111,1.3347056170123317,-1.0817020379841242
1.6299591020584048,13.841028924033733,-0.06485836888169416,1.313560144131614,-1.0473750475332628
1.6184062960697325,13.606461214395416,-0.06350614210355592,1.292747740738553,-1.0143839989498897
1.6070947295698943,13.375610705738726,-0.06217793011686671,1.272257911002467,-0.9826624889095796
1.5960200879127482,13.148420242358256,-0.06087364385142462,1.2520805710027496,-0.9521480311048408
1.5851780771467383,12.924834448443796,-0.05959314243757476,1.2322060280468055,-0.9227817876802161
1.5745644327278496,12.70479965940941,-0.05833623999452006,1.212624961224148,-0.8945083215648039
1.5641749270772065,12.488263856619326,-0.05710271167929327,1.1933284031101323,-0.867275367885518
1.5540053761092487,12.27517660531084,-0.05589229907579084,1.1743077225397325,-0.8410336228186326
1.544051644842925,12.065488995528238,-0.054704714994473276,1.1555546083780786,-0.8157365483931385
1.534309652196322,11.859153585894394,-0.05353964774556069,1.1370610542202106,-0.7913401918992408
1.524775375054471,11.656124350058377,-0.052396764941672044,1.1188193439577403,-0.767803018680772
1.5154448516905419,11.456356625668242,-0.05127571687976328,1.1008220381548883,-0.7450857572029768
1.5063141846121495,11.259807065728037,-0.050176139546819154,1.083061961180724,-0.7231512553884503
1.4973795428969292,11.066433592207414,-0.04909765728896264,1.0655321890484262,-0.7019643473052257
1.488637164074777,10.876195351780613,-0.048039885179392706,1.0482260379160346,-0.6814917293731969
1.4800833556081212,10.689052673579585,-0.0470024311167824,1.031137053206504,-0.6617018453291974
1.471714496016194,10.504967028853283,-0.045984897682409126,1.014258999307946,-0.6425647792579973
1.4635270356844603,10.32390099243197,-0.044986883781299274,0.9975858498177552,-0.6240521560569731
1.4555262034606384,10.14604265029686,-0.043911252038944845,0.9786179516834507,-0.6559441669605255
1.447714009273043,9.97158895623723,-0.04289090560100394,0.9597564267568568,-0.6891792213904624
1.4400806695108668,9.80052100349112,-0.0419239806453974,0.9409986037554972,-0.723647593910613
1.4326167362708515,9.632820356317442,-0.04100861091032722,0.9223419203964983,-0.75924130151691
1.4253130975828912,9.468469030635593,-0.04014293006701064,0.9037839205129483,-0.7958538602977085
1.418160977236123,9.307449475148712,-0.03932507378597021,0.8853222515635017,-0.8333800443940621
1.4111519342589807,9.14974455287992,-0.03855318151560982,0.8669546625341685,-0.8717156461992056
1.4042778621035328,8.995337523050758,-0.03782539798936689,0.8486790022342848,-0.9107572367215665
1.3975309875817081,8.844212023230401,-0.0371398744753498,0.8304932179918868,-0.950401925012249
1.3909038695987244,8.69635205168299,-0.036494769780025665,0.8123953547571306,-0.9905471155257164
1.3843893977271546,8.551741949838501,-0.03588825101519432,0.7943835546260806,-1.031090262240885
1.377980790663624,8.410366384810047,-0.03531849413514607,0.7764560568011717,-1.0719286183184904
1.3716715946090932,8.27221033187713,-0.03478368424852945,0.7586111980090119,-1.1129589800087716
1.3654556816130934,8.13725905685023,-0.034282015707024785,0.7408474134009863,-1.1540774234505273
1.359327247922125,8.005498098227072,-0.03381169197040169,0.7231632379674495,-1.195179032917651
1.3532808123727473,7.876913249044801,-0.0333709252449048,0.7055573085022265,-1.2361576189715102
1.3473112148706843,7.751490538325129,-0.03295793588912847,0.688028366160795,-1.2769054248661103
1.3414136149985911,7.629216212000987,-0.032570951578572975,0.6705752596630155,-1.3173128194269856
1.3355834907970001,7.51007671320334,-0.03220820621688256,0.6531969491997361,-1.3572679744833476
1.3298166377654332,7.394058661775265,-0.03186793857830597,0.6358925111121888,-1.396656524775433
1.3241091681337926,7.281148832867011,-0.03154839066214434,0.618661143423983,-1.4353612080847373
1.3184575104579772,7.171334134450241,-0.03124780573580511,0.6015021723178914,-1.4732614831437238
1.3128584095982894,7.064601583571896,-0.030964426038503075,0.5844150596637208,-1.510233122674111
1.3073089271446927,6.960938281147396,-0.030696490112570106,0.567399411719625,-1.546147778680306
1.3018064423594307,6.860331385069355,-0.030442229723674746,0.5504549891474941,-1.5808725168896511
1.2963486537150573,6.7627680813807345,-0.030199866324918896,0.5335817185038336,-1.6142693169885465
1.290933581114675,6.66823555323019,-0.02996760701266364,0.5167797053911058,-1.6461945350607212
1.285559568891283,6.57672094729169,-0.029743639913911952,0.5000492494811128,-1.6764983244025826
1.280225289694792,6.488211337289719,-0.029526128935988286,0.48339086165188716,-1.705024010688194
1.274929749388651,6.402693684224893,-0.029313207798913492,0.4668052835128519,-1.7316074173089413
1.2696722930934352,6.3201547928420645,-0.029102973259037466,0.4502935096296908,-1.7560761366582165
1.2644526125324254,6.240581263823383,-0.028893477418849255,0.4338568128001089,-1.7782487432243645
1.2592707548545474,6.16395944112174,-0.028682719002017316,0.41749677277369307,-1.7979339446748015
1.2541271331335015,6.090275353775439,-0.028468633454046946,0.40121530885188,-1.814929667774193
1.2490225387690375,6.019514651462725,-0.02824908170666526,0.38501471684494815,-1.8290220771426065
1.2439581560479096,5.951662532965901,-0.028021837416977908,0.3688977108975349,-1.8399845267585706
1.2389355791590861,5.886703666620747,-0.027784572458838752,0.3528674707153135,-1.8475764470804183
1.2339568320016923,5.824622101731396,-0.02753484040109256,0.33692769472190953,-1.8515421751745968
1.2290243911769736,5.76540116983977,-0.027270057651337092,0.3210826596294821,-1.851609741986049
1.2241412126202065,5.709023374661843,-0.02698748186829874,0.3053372867919219,-1.8474896408447181
1.2193107624093775,5.655470269456856,-0.026684187140912724,0.28969721548571925,-1.8388736158822485
1.214537052391313,5.604722320604935,-0.026357035282025654,0.2741688828689388,-1.825433530255637
1.209824681403154,5.556758756272689,-0.02600264236418637,0.25875960971158507,-1.8068204048380463
1.2051788830539247,5.5115573993045395,-0.025617339293916127,0.2434776899345398,-1.782663762483495
1.2006055812932104,5.469094483979955,-0.025197124714022006,0.2283324803386389,-1.7525714769865977
1.196111455372758,5.429344457157086,-0.024737607735447944,0.2133344843598898,-1.716130417711374
1.1917040163681967,5.392279765779083,-0.024233936759678353,0.19849541984012545,-1.6729083119601256
1.1873916982784312,5.357870635035063,-0.023680708682159733,0.18382825509342493,-1.6224574327144683
1.18318396803146,5.326084845043308,-0.023071849617519905,0.16934718925940112,-1.5643209785256795
1.1790914607745417,5.296887519296721,-0.022400453237126933,0.15506754125821343,-1.4980433662606718
1.1751261500589942,5.270240945946227,-0.021658554713400384,0.1410054959694872,-1.4231861226556433
1.1713015676543697,5.246104463994591,-0.020836805337984956,0.1271776368264847,-1.3393516308670872
1.1676330958570613,5.224434461041376,-0.019923992409885235,0.11360017376479616,-1.2462175916060534
1.1641383680130004,5.205184546673895,-0.01890631696857039,0.10028776365165103,-1.143585467340111
1.1608378331611655,5.188305982373475,-0.017766292496261295,0.08725183968636645,-1.0314458386182155
1.1577555722169535,5.173748454965981,-0.016481051328317543,0.07449846484134577,-0.910061368666147
1.1549205026829137,5.161461254005367,-0.015019721272123587,0.06202599027657776,-0.7800619635863847
1.1523681911488692,5.151394811695209,-0.013339295772815852,0.04982336872517022,-0.6425342142421194
1.1501436518765216,5.143502316357804,-0.011377807253269458,0.037871023912656544,-0.49906740331104343
1.1483059104250548,5.1377405976850845,-0.009041542207471493,0.02614807245088454,-0.3516970986786888
1.1469364868416916,5.134068348171304,-0.0061742753854531676,0.014654699924436135,-0.20268142851309062
1.1461609280663312,5.1324354820109335,-0.0024430443407746296,0.0034882574130153266,-0.0540831523897389
