x,y,v_x,v_y,omega
2.375,32.48,0.0,2.564102564102564,-6.285714285714286
2.3740776125370364,32.022978380746466,-0.01024874958848655,2.513915427603359,-5.972469695189681
2.3714192045821516,31.574846832626356,-0.019289116576900245,2.465323995953404,-5.681952190489873
2.3672302183394907,31.135326096803734,-0.027255175008219397,2.4182397354090637,-5.411966536088994
2.361693432943822,30.704152202037413,-0.03426466272143177,2.3725813175500297,-5.160573534764745
2.3549717031248427,30.281075241312895,-0.04042122415611667,2.328273801611304,-4.9260553238953
2.34721032558746,29.86585828485761,-0.04581630403702253,2.285247936780746,-4.706886046467119
2.33853909039587,29.458276409849326,-0.050530753647316004,2.2434395633112914,-4.501706955339062
2.329074064652418,29.058115830552357,-0.05463619905770305,2.2027890955439333,-4.309305194217564
2.3189191477378746,28.665173115361384,-0.05819621110389051,2.1632410732446457,-4.128595643365098
2.308167430891524,28.279254479446813,-0.06126730941111621,2.124743770250613,-3.95860533196339
2.2969023886279283,27.90017514349233,-0.06389982685105872,2.0872488514658447,-3.7984600094361407
2.2851989251610627,27.52775875048221,-0.06613865611411272,2.050711070868834,-3.647372540240964
2.2731242954425457,27.16183683369991,-0.0680238963138533,2.015088004490096,-3.504632844685736
2.260738917468947,26.80224833009367,-0.06959141450391262,1.980339813356981,-3.369599155261719
2.2480970900564494,26.448839133989743,-0.07087333452383657,1.9464290322421873,-3.2416903961495276
2.2352476282271,26.101461686821974,-0.07189846358004659,1.9133203807330466,-3.1203795247444055
2.2222344266262266,25.759974599123563,-0.07269266531854585,1.8809805936937343,-3.005187699661996
2.2090969599368315,25.42424230151286,-0.07327918678584432,1.8493782686474125,-2.8956791608173407
2.195870728026811,25.094134721816403,-0.0736789455477158,1.8184837279798836,-2.7914567246775306
2.1825876525207213,24.769526985822353,-0.07391078229772868,1.7882688941762261,-2.6921578123522685
2.1692764305985603,24.450299139456142,-0.07399168350405531,1.7587071765594418,-2.597450940347729
2.155962851064457,24.13633589042643,-0.07393697798598614,1.7297733682151573,-2.5070326140004626
2.142670077077453,23.827526367610062,-0.07376051075849996,1.7014435519667133,-2.4206245721778585
2.129418899377735,23.523763896635547,-0.07347479701614323,1.6736950144167668,-2.337971339061142
2.116227963360426,23.22494579029005,-0.07309115873173914,1.64650616719987,-2.258838044944411
2.103113972933743,22.930973152519115,-0.0726198460091791,1.6198564746994335,-2.183008483174941
2.090091873739046,22.641750694914386,-0.07207014504301078,1.5937263875753074,-2.110283374778262
2.07717501799883,22.357186564695127,-0.07145047429272387,1.5680972815276184,-2.04047881608161
2.064375312988189,22.077192183286478,-0.07076847026994866,1.542951400790667,-1.973424887874459
2.0517033548897863,21.80168209468347,-0.07003106415675307,1.5182718059094116,-1.9089644074105172
2.0391685495870306,21.530573822865463,-0.06924455031830866,1.494042325401836,-1.8469518069327555
2.0267836126745555,21.26379257579093,-0.06836585982030263,1.4701937532040463,-1.7847498588707598
2.014558915325569,21.001266039877656,-0.06746411072398875,1.4467677569434896,-1.725184113122454
2.0024982700409817,20.74291943522781,-0.06654305910476607,1.4237500724991925,-1.6681131075874207
1.9906048469114819,20.488680494067864,-0.065606086778562,1.4011270515002454,-1.6134044087557895
1.9788812377688845,20.238479352974657,-0.06465623702807702,1.3788856273131387,-1.5609339425547781
1.9673295142256428,19.99224845101938,-0.06369624678571922,1.3570132833010977,-1.5105853815225916
1.9559512802067656,19.749922433436513,-0.06272857564624955,1.3354980231751867,-1.4622495830044624
1.9447477195149867,19.511438060456122,-0.06175543204018261,1.3143283432736097,-1.4158240736182708
1.9337196389137836,19.27673412096565,-0.06077879686207225,1.2934932066205251,-1.371212575726717
1.9228675071628203,19.04575135069319,-0.05980044481530082,1.2729820186290195,-1.3283245720872876
1.9121914903958739,18.81843235462734,-0.05882196370632459,1.2527846043248503,-1.2870749052370445
1.9016914841916632,18.59472153341006,-0.0578447718960171,1.2328911869783175,-1.2473834085124755
1.8913671426526175,18.374565013458295,-0.056870134093378794,1.2132923680412973,-1.20917456591037
1.881217904775076,18.15791058058801,-0.05589917565707971,1.1939791082952018,-1.1723771982683984
1.871243018366191,17.944707616930323,-0.05493289555275728,1.174942710123502,-1.136924173487634
1.8614415617375841,17.734907040944545,-0.053972178098428955,1.1561748008295798,-1.102752138737067
1.8518124633832351,17.52846125034644,-0.053017803616560215,1.137667316927131,-1.0698012727751638
1.8423545198288307,17.32532406778274,-0.05207045809904483,1.1194124893361865,-1.0380150566983366
1.8330664118216786,17.1254506890944,-0.05113074198042441,1.1014028294231455,-1.0073400615830566
1.8239467190139957,16.928797634021794,-0.050199178104938985,1.083631115828038,-0.9777257516292917
1.8149939332777625,16.735322699214873,-0.04927621896432144,1.0660903820266447,-0.9491243015397163
1.806206470776178,16.544984913420357,-0.04836225327550363,1.0487739045791065,-0.9214904269832834
1.797582682904939,16.357744494726408,-0.04745761196048456,1.031675192020326,-0.8947812270946305
1.7891208662058973,16.173562809753005,-0.04656257358442684,1.0147879743508048,-0.868956038053618
1.7808192713460724,15.992402334683366,-0.0456773693025148,0.9981061930896227,-0.8439762968731412
1.772682868408384,15.814455487604487,-0.04472710778291081,0.9790809966757015,-0.8701065023610864
1.7647134132713336,15.63992331446233,-0.0438223937398735,0.9601653715704914,-0.8977038517315533
1.7569028295522573,15.468786342590207,-0.04296186980541733,0.9413565381197665,-0.926653902804611
1.7492432879513693,15.3010255892538,-0.04214414798222891,0.9226518322847643,-0.9568441084522844
1.7417272114122468,15.136622541123188,-0.04136781356357433,0.9040487024998086,-0.9881635666886984
1.734347279612284,14.975559134273407,-0.04063142865823396,0.8855447069421988,-1.0205027734132108
1.7270964328520308,14.817817734639487,-0.03993353534457939,0.8671375112124711,-1.053753376743366
1.7199678754082535,14.663381118852001,-0.039272658475170245,0.8488248864262478,-1.0878079318621117
1.7129550784119343,14.512232455378644,-0.03864730815059552,0.8306047077221513,-1.1225596552831918
1.7060517823092984,14.364355285896217,-0.03805598187869314,0.8124749531937181,-1.1579021774096403
1.6992519989612704,14.219733506815658,-0.037497166432728525,0.7944337032569407,-1.1937292922224683
1.692550013434563,14.078351350880318,-0.03696933941957517,0.7764791404690636,-1.2299347028895118
1.685940385535826,13.940193368754429,-0.03647097056639306,0.7586095498186021,-1.2664117620274606
1.679417951138996,13.805244410514735,-0.036000522731718006,0.7408233195113275,-1.3030532052827417
1.6729778233551609,13.673489606953314,-0.035556452644230206,0.7231189422822337,-1.3397508768185613
1.6666153935939039,13.544914350593672,-0.03513721136973426,0.7054950172693519,-1.3763954452053517
1.6603263325652657,13.419504276315166,-0.034741244504023945,0.6879502524918252,-1.412876108109464
1.6541065912721375,13.297245241472524,-0.034366992086290245,0.670483467981985,-1.4490802840595811
1.6479524020441643,13.178123305387498,-0.034012888224522045,0.6530935996294228,-1.4848932894414557
1.641860279666076,13.062124708078457,-0.033677360420905876,0.6357797038043628,-1.520197998728877
1.6358270226558587,12.94923584808063,-0.033358828581507585,0.6185409628381645,-1.5548744858021792
1.6298497147513813,12.839443259194631,-0.033055703690464455,0.6013766914507055,-1.5887996440355654
1.6239257266680367,12.732733585983556,-0.03276638612447359,0.5842863442278879,-1.621846782652167
1.6180527181947721,12.629093557818944,-0.03248926357846598,0.5672695242678066,-1.6538851966533041
1.6122286407015967,12.528509961253015,-0.03222270856793059,0.5503259931314098,-1.6847797074295638
1.6064517401384246,12.430969610468416,-0.031965075467312136,0.5334556822530108,-1.7143901709620197
1.6007205606130235,12.336459315526728,-0.03171469703714686,0.5166587059879777,-1.7425709503312226
1.5950339486450302,12.244965848102854,-0.031469880384999635,0.4999353764995195,-1.769170349083
1.5893910582036797,12.156475904353655,-0.031228902296672193,0.4832862207138087,-1.7940300018733961
1.5837913566491852,12.070976064525166,-0.030990003864377495,0.4667119996027368,-1.8169842187588867
1.5782346317119273,11.988452748853163,-0.030751384327376126,0.4502137300861607,-1.8378592795534356
1.5727209996599771,11.908892169256205,-0.03051119402762766,0.43379270988003354,-1.8564726748997382
1.5672509148243807,11.832280276258299,-0.03026752636788809,0.41745054565225304,-1.8726322911816227
1.5618251806735106,11.758602700510167,-0.03001840864177947,0.4011891848825368,-1.8861355372566597
1.5564449626532078,11.687844688203963,-0.02976179158380686,0.3850109518530487,-1.8967684123806572
1.5511118030391895,11.619991029597578,-0.02949553746084313,0.3689185882179014,-1.9043045168672355
1.5458276380833096,11.55502597978358,-0.029217406493376286,0.3529152986043008,-1.908504010314029
1.5405948177772257,11.492933170758526,-0.02892504135199929,0.33700480167406094,-1.9091125271117186
1.5354161286079338,11.433695513777558,-0.028615949417911866,0.32119138700338207,-1.905860066113943
1.530294819742617,11.37729509092781,-0.028287482418942012,0.3054799779938281,-1.8984598817526173
1.5252346331599158,11.32371303483929,-0.027936812944404577,0.28987620076748616,-1.8866074189092703
1.5202398383481168,11.272929395499492,-0.02756090718669246,0.274386458563597,-1.869979355451607
1.515315272328698,11.224922993288008,-0.02715649302907221,0.25901801045290584,-1.8482328472836014
1.5104663859529706,11.179671257659272,-0.026720022256790554,0.24377905208859244,-1.8210051149433342
1.505699297686629,11.137150051463632,-0.02624762514700378,0.22867879452965287,-1.7879135736845055
1.5010208564834924,11.097333481838778,-0.02573505488784619,0.2137275346353758,-1.7485567981475347
1.4964387159216814,11.060193700112578,-0.025177618021165724,0.19893670676685488,-1.7025167383528685
1.4919614226380535,11.025700695498827,-0.024570085130253643,0.18431890005258977,-1.6493627790267968
1.4875985234172426,10.99382209090275,-0.02390657287875802,0.16988781768161668,-1.5886584750261268
1.4833606973359563,10.96452295435444,-0.023180383579978106,0.1556581439662933,-1.5199721178931462
1.4792599225513143,10.937765647013524,-0.022383780693821825,0.1416452709327557,-1.4428927012158164
1.4753096923110838,10.91350973886317,-0.021507666419849948,0.12786481962675192,-1.357053338984834
1.4715253025672346,10.891712036302287,-0.020541108511809878,0.11433187549417458,-1.2621646693640687
1.4679242457277795,10.872326780879337,-0.019470634148802485,0.10105985142750595,-1.158061017400485
1.4645267638820205,10.855306091650732,-0.018279164137406077,0.08805891777922695,-1.044761574442547
1.4613566437856265,10.840600725554047,-0.016944392489195846,0.07533403885060254,-0.9225465623616446
1.458442381015079,10.828161200573646,-0.015436304961330497,0.06288290537606667,-0.7920426263586883
1.4558189155036612,10.817939228365525,-0.013713311832202594,0.0506945636030573,-0.6543006143668215
1.4535302859941759,10.809889176433288,-0.01171590493985523,0.03875045786626019,-0.5108321592672076
1.451633916304893,10.803968823388587,-0.00935486938550813,0.027031242630403508,-0.36355448397303597
1.4502084751724422,10.800137675094113,-0.006483365419500987,0.015537071752652074,-0.214589410262689
1.4493732078074812,10.798347481186063,-0.0027973830800667246,0.004353971670136398,-0.06589474503392467
