x,y,v_x,v_y,omega
2.375,32.48,0.0,2.358974358974359,-7.510204081632653
2.374016686139956,32.05938745397136,-0.010925709556041151,2.314498374677163,-7.15992367862226
2.371176312969715,31.64665949439974,-0.020633992335526253,2.2713678427852892,-6.833215609100451
2.366686572668025,31.24158064689977,-0.02925201101658787,2.2295082405476845,-6.527940820990126
2.3607335968438456,30.843928291356523,-0.0368921648076269,2.1888512654884273,-6.242197636901364
2.353484436886795,30.453491607619178,-0.0436540569373776,2.1493341093709484,-5.974290734229877
2.3450892174650293,30.070070642198207,-0.0496261588600238,2.110898839750957,-5.722704820807241
2.3356830129067117,29.69347547829084,-0.05488722512128364,2.073491870330888,-5.486082192642175
2.325387487475821,29.323525494509152,-0.05950750188860801,2.0370635050212034,-5.263203519584197
2.3143123335735427,28.96004870014136,-0.0635497636922617,2.001567543509818,-5.052971329259149
2.3025565362712497,28.60288113676711,-0.06707020633321781,1.9669609384263025,-4.854395757713988
2.290209488015091,28.251866337668588,-0.07011921873521546,1.9332034960017366,-4.666582213037807
2.277351973611299,27.906854837806822,-0.07274205241802735,1.9002576135734128,-4.488720660403708
2.2640570425337927,27.56770372822508,-0.07497940399870842,1.868088048445954,-4.3200762869695
2.250390783058795,27.234276249644715,-0.0768679235012643,1.836661713558092,-4.159981345515816
2.236413010621786,26.906441420769685,-0.0784406591321726,1.8059474961644646,-4.007828008600501
2.2221778810291726,26.584073697442406,-0.07972744745242133,1.7759160963608778,-3.8630620919182244
2.2077344376766916,26.267052659319006,-0.08075525646403127,1.7465398827879899,-3.725177527676868
2.1931271006779074,25.95526272117427,-0.0815484879669045,1.7177927632646095,-3.5937114870762756
2.1783961047486073,25.648592866320385,-0.08212924458087412,1.6896500684452862,-3.4682400661384643
2.1635778917936905,25.346936399940972,-0.0825175660293126,1.6620884468815142,-3.3483744617746636
2.1487054633757863,25.050190720412395,-0.0827316386140674,1.6350857701026724,-3.233757575547511
2.133808697587784,24.758257106915398,-0.08278798125262271,1.6086210465306081,-3.124060991467169
2.1189146342870355,24.47104052183896,-0.08270161097791656,1.5826743432075865,-3.018982281646103
2.1040477321626927,24.18844942664916,-0.0824861904036697,1.5572267144568612,-2.918242599969462
2.089230100687482,23.910395610043878,-0.08215415932089583,1.5322601367129502,-2.8215845293117487
2.0744817096412125,23.63679402734244,-0.08171685230431935,1.5077574488585666,-2.7287701524050383
2.0598205785772032,23.367562650171063,-0.08118460396245407,1.4837022974900742,-2.639579320369688
2.0452655269620292,23.10263046988058,-0.0805381917617001,1.4599885946263749,-2.5509148209413715
2.030832027145246,22.84192885121292,-0.07983402842477987,1.43669605723651,-2.4660004330618612
2.0165298863740095,22.585383280164294,-0.0790786468111788,1.4138102877482592,-2.3846350587082767
2.0023677894430207,22.332921776963147,-0.07827798575536637,1.3913175255977717,-2.3066304429288884
1.9883534007446193,22.084474784702742,-0.07743744422687047,1.3692046106289755,-2.231810219210438
1.9744934570402848,21.83997506432904,-0.0765619302657342,1.3474589490788473,-2.160009035698728
1.960793851845192,21.599357595538386,-0.0756559052352985,1.3260684819283874,-2.0910717545756716
1.9472597122254116,21.362559483176927,-0.07472342387337207,1.305021655421187,-2.02485271771112
1.9338954687255614,21.12951986876763,-0.07376817056940711,1.2843073935709801,-1.9612150724275759
1.9207049190719676,20.900179846821526,-0.07279349224830374,1.2639150724968624,-1.9000301518526477
1.9076912862316138,20.67448238561719,-0.07180242820007017,1.24383449644023,-1.8411769048982702
1.8948572713493834,20.452372252157762,-0.07079773715804462,1.2240558753311686,-1.784541371406399
1.8822051020345092,20.233795941037375,-0.06978192189611483,1.2045698037842336,-1.730016198445893
1.8697365764210454,20.018701606969493,-0.068757251586816,1.1853672414144618,-1.6775001941414238
1.8574531033859123,19.80703900074851,-0.06772578213688403,1.1664394943742291,-1.6268979157683519
1.8453557392710978,19.598759408433,-0.06668937469438892,1.1477781980203252,-1.578119289162719
1.8334452214234567,19.393815593554606,-0.06564971250162525,1.1293753006284892,-1.5310792567772462
1.8217219988357929,19.192161742170867,-0.0646083162501917,1.111223048079731,-1.485697451966406
1.810186260146176,18.993753410593268,-0.06356655807888757,1.093313969449154,-1.441897897309619
1.7988379592283894,18.798547475633804,-0.06252567434096344,1.0756408634337575,-1.3996087249844098
1.787676838584781,18.606502087224285,-0.06148677725468409,1.05819678556091,-1.3587619173835077
1.7767024507332665,18.41757662327265,-0.06045086553992265,1.0409750361239105,-1.319293066333728
1.7659141777626628,18.231731646629918,-0.05941883413345076,1.0239691487953326,-1.2811411494219835
1.7553112492146594,18.048928864049792,-0.058391483066587556,1.0071728798727357,-1.244248322066764
1.7448927584363942,17.869131087030908,-0.05736952558080175,0.9905801981148665,-1.2085597240934174
1.7346654542950044,17.692542304772566,-0.056267187101306765,0.9715173825334021,-1.226233170384511
1.724632757356497,17.519374623835667,-0.05520722332655443,0.9525679612099491,-1.2455371707380105
1.7147871439542515,17.349607894325402,-0.054188481142839,0.9337290333485103,-1.266348614239479
1.7051213021929252,17.18322247712797,-0.05320976064967634,0.9149978244007272,-1.2885465491173496
1.695628139931625,17.020199221499613,-0.05226982003143463,0.8963716825810355,-1.3120119135024024
1.686300791930769,16.860519443241973,-0.051367379978075965,0.8778480758371929,-1.3366272697474797
1.6771326262412842,16.70416490338205,-0.05050112768286784,0.8594245892730787,-1.3622765411772266
1.6681172499100452,16.55111778727531,-0.049669720442011706,0.8410989230240298,-1.3888447501323826
1.6592485140712143,16.401360684050186,-0.04887178887833042,0.8228688905884737,-1.4162177561597251
1.6505205184894054,16.254876566311125,-0.048105939808433654,0.8047324176233088,-1.4442819931770514
1.6419276156173357,16.111648770015734,-0.04737075877011854,0.7866875412143916,-1.4729242044123294
1.6334644142278527,15.971660974439047,-0.04666481222413803,0.7687324096376932,-1.5020311738771062
1.6251257826779129,15.834897182134842,-0.04598664944185886,0.7508652826312319,-1.531489453086137
1.6169068518602518,15.701341698799776,-0.04533480408770982,0.733084532202833,-1.5611850816776605
1.608803017897118,15.570979112941142,-0.04470779550266425,0.7153886440042047,-1.5910033005215118
1.6008099446295732,15.44379427524306,-0.044104129692280995,0.6977762193078036,-1.6208282558250418
1.5929235659554664,15.319772277518695,-0.04352230002001706,0.6802459776296085,-1.6505426926594347
1.5851400880693414,15.198898431127681,-0.04296078760359216,0.6627967600483053,-1.6800276362314392
1.5774559916581994,15.081158244728165,-0.04241806140909596,0.6454275332796396,-1.7091620591179466
1.5698680341082984,14.966537401221345,-0.04189257803424634,0.6281373945739092,-1.737822532563837
1.5623732517800342,14.855021733733352,-0.041382781168690826,0.6109255775149074,-1.7658828598181329
1.554968962410462,14.746597200464091,-0.04088710071544534,0.5937914588102008,-1.793213689351614
1.5476527677062628,14.641249858215371,-0.04040395155343399,0.5767345661755844,-1.8196821056635604
1.5404225561939626,14.538965834390773,-0.03993173191656772,0.559754587431053,-1.845151195250675
1.5332765063990887,14.43973129723722,-0.039468821359808295,0.542851380941775,-1.86947958518404
1.526213090431765,14.343532424072468,-0.03901357827712037,0.5260249875554743,-1.8925209516297616
1.5192310780631229,14.25035536721381,-0.03856433693001552,0.5092756442073723,-1.914123495569401
1.512329541384965,14.160186217290462,-0.03811940393840651,0.4926037993853912,-1.9341293829468014
1.5055078601545286,14.07301096358534,-0.037677054177553126,0.47601013067152237,-1.9523741465158295
1.498765727937129,13.988815451010925,-0.03723552601577492,0.45949556459974744,-1.9686860468272032
1.4921031591721756,13.907585333278309,-0.03679301581704031,0.4430612990959871,-1.9828853901255976
1.4855204973028315,13.829306021768563,-0.03634767162011729,0.42670882879006516,-1.9947838015054284
1.4790184241268192,13.753962629561403,-0.03589758589112992,0.4104399735117142,-2.0041834525993867
1.4725979705460697,13.681539910018419,-0.035440787228309754,0.39425691029924104,-2.0108762444933
1.466260528916744,13.612022189258443,-0.03497523087530661,0.37816220925604005,-2.0146429486767503
1.4600078672295829,13.545393291803219,-0.034498787870927805,0.3621588735798006,-2.0152523119335735
1.4538421453848525,13.481636458616386,-0.03400923262607667,0.34625038405169695,-2.012460135543973
1.447765933868282,13.420734256714379,-0.03350422866915193,0.33044074819282654,-2.006008345560783
1.4417822351870457,13.362668479503501,-0.03298131223347462,0.31473455415025847,-1.995624080004805
1.4358945084921282,13.30742003700805,-0.03243787326560793,0.2991370291325211,-1.9810188316709592
1.4301066979013877,13.254968835221725,-0.03187113329817641,0.28365410182666506,-1.961887703343925
1.4244232651554871,13.20529364397083,-0.03127811943405082,0.26829246762770287,-1.9379088576681447
1.4188492274005924,13.158371952970473,-0.030655633398112676,0.25305965459848934,-1.9087432795768873
1.4133902011187565,13.11417981625215,-0.030000214177840892,0.23796408671618993,-1.8740350189953916
1.4080524535522922,13.072691685941312,-0.029308092116207052,0.22301513895979094,-1.833412150803152
1.40284296344324,13.03388023760434,-0.028575131317706316,0.20822317589544917,-1.7864887847483428
1.3977694936124414,12.997716191257254,-0.027796755691165395,0.1935995612943836,-1.7328685889273203
1.3928406789572856,12.964168134888112,-0.026967851588345814,0.1791566205849516,-1.6721504667293592
1.388066135042211,12.933202361315644,-0.02608263635692704,0.16490753022023452,-1.6039372585609148
1.3834565948820692,12.904782734761387,-0.025134476533537044,0.15086609816040145,-1.5278486307286994
1.3790240852169546,12.87887061099758,-0.024115630856623736,0.1370463881040953,-1.4435396526289044
1.3747821592092546,12.855424844462785,-0.02301688034004319,0.1234621289491993,-1.3507268977491191
1.3707462110317412,12.834401926733946,-0.02182698829899353,0.110125845815693,-1.2492240958115284
1.3669339106676113,12.815756311005646,-0.020531904635782514,0.09704766227653638,-1.13898910882379
1.36336581646732,12.7994409812258,-0.019113586478566893,0.08423377972175917,-1.0201827183655674
1.360066251886262,12.785408310696678,-0.01754824219985396,0.07168478171294504,-0.8932364302614927
1.3570645779297341,12.773611202090205,-0.01580369065045767,0.05939420280340357,-0.7589199956917814
1.3543970717571265,12.76400437467899,-0.013835266822959316,0.0473483239878783,-0.618388916403676
1.3521097923353729,12.756545412658813,-0.011578948974302734,0.03552903179187129,-0.47317969481062716
1.3502632899789777,12.751194702158696,-0.008937743874532321,0.023923307098315024,-0.32511283313385486
1.348941753230677,12.747912191869837,-0.005745997773252211,0.012549029444541202,-0.1760710819503977
1.348278822038492,12.746643182556014,-0.0016199043621381252,0.001551074042386075,-0.027678150139510582
