x,y,v_x,v_y,omega
2.375,32.48,0.0,2.2051282051282053,-7.877551020408164
2.37405870575267,32.08671231683804,-0.01045882497033288,2.164734941115787,-7.528818076232203
2.3713355318163316,31.700590660565553,-0.019798663211203528,2.1255056841340654,-7.202154536481741
2.367021860108245,31.32143119840723,-0.02813102243420506,2.087377228736178,-6.8956593491959834
2.3612901198227054,30.9490410057861,-0.0355549807384553,2.0502915781652757,-6.607633401039117
2.3542958801953966,30.58323718261627,-0.042158792898308664,2.0141953459439375,-6.33655407139111
2.346179675941369,30.22384606952251,-0.04802125436866732,1.9790392439867313,-6.081053525632536
2.3370686051619196,29.87070254973096,-0.05321286540299339,1.9447776425860117,-5.839900115624396
2.3270777326465706,29.523649424761626,-0.05779682921199658,1.9113681904066018,-5.6119823764611
2.3163113259812356,29.18253685399043,-0.06182991151394804,1.8787714848289154,-5.396295203771503
2.304863947413928,28.847221849729763,-0.06536318367835652,1.8469507847340763,-5.191927871237905
2.2928214207986075,28.517567820773145,-0.06844266760298258,1.8158717592283184,-4.998053608126951
2.280261689962995,28.1934441584186,-0.07110989723715491,1.7855022669332798,-4.813920504884838
2.2672555823941867,27.87472585987023,-0.07340240908294061,1.7558121613819317,-4.638843553822294
2.253867490103271,27.561293184653703,-0.07535417192723354,1.7267731188017466,-4.472197663572533
2.2401559778361744,27.25303134029605,-0.07699596437383568,1.6983584851721625,-4.313411511862534
2.226174327379037,26.949830194035982,-0.0783557073721341,1.6705431399397102,-4.161962122367717
2.2119710255122795,26.651584007764964,-0.07945875781406603,1.6433033741827132,-4.017370068936694
2.1975902021580436,26.358191193766558,-0.08032816834410754,1.6166167813551322,-3.8791952249933606
2.1830720244087387,26.069554089132858,-0.08098491775927891,1.5904621590192967,-3.747032988014124
2.168453051394055,25.785578747002166,-0.08144811573720527,1.564819420210616,-3.6205109190876175
2.153766554319062,25.50617474298869,-0.08173518509605454,1.5396695132724185,-3.499285746051152
2.139042805469675,25.231254995369532,-0.08186202434158121,1.514994349162711,-3.3830406858499606
2.1243093395198893,24.96073559776137,-0.08184315287825744,1.4907767353723949,-3.2714830478136965
2.109592276613497,24.69454578895637,-0.0816797683038773,1.4668878069053846,-3.161177527900603
2.09491345494079,24.432617272468118,-0.08141825028175581,1.443429042964095,-3.055565881752731
2.0802896871038015,24.174873967601613,-0.08106805901811837,1.4203854555526199,-2.95439467898268
2.065736156569516,23.9212424298641,-0.08063783580727839,1.3977427415308579,-2.857426815917667
2.051266558490301,23.6716517313938,-0.08013547618399468,1.3754872414724708,-2.7644402880579455
2.0368932279888914,23.42603334851737,-0.07956819605389169,1.3536059015989623,-2.6752270681191703
2.0226272571057176,23.184321055907482,-0.07894259153692881,1.3320862385109329,-2.5895920793982365
2.0084786014817047,22.94645082685944,-0.07826469317432701,1.310916306467306,-2.5073522553181853
1.9944561777392167,22.712360739248332,-0.07754001507553791,1.2900846669894335,-2.428335676988939
1.9805679524258653,22.481990886766184,-0.07677359951725678,1.2695803605899723,-2.3523807814849067
1.9668210232988246,22.255283295072886,-0.07597005744986031,1.249392880446695,-2.279335634303242
1.9532216936498155,22.032181842525347,-0.07513360531690849,1.229512147859309,-2.209057260140899
1.9397755403018326,21.812632185177115,-0.07426809854956648,1.2099284893432272,-2.1414110267259066
1.9264874758470445,21.596581685765678,-0.07337706205919274,1.1906326152283133,-2.07627007696815
1.9133618056401662,21.383979346427246,-0.0724637180172319,1.1716155996431463,-2.013514805165819
1.9004022800122922,21.174775744899478,-0.07153101118136918,1.1528688617765015,-1.953032373422733
1.887612142125955,20.968922973991,-0.07058163200015355,1.1343841483177022,-1.8947162648053106
1.8749941718525316,20.766374584113628,-0.06961803770455226,1.1161535169863994,-1.83846587010139
1.8625507260174807,20.567085528688526,-0.0686424715737909,1.098169321070309,-1.7841861053411883
1.8502837753268757,20.371012112251506,-0.06765698054404325,1.0804241948965942,-1.7317870575075192
1.838194938259851,20.1781119410956,-0.06666343131178519,1.06291104016901,-1.6811836561015672
1.8262855121856094,19.988343876300604,-0.0656635250686775,1.0456230131087165,-1.6322953684451733
1.814556501940195,19.80166798901005,-0.06465881099148231,1.0285535123418905,-1.5850459167934918
1.8030086460770907,19.618045517825905,-0.06365069859856574,1.0116961674819769,-1.5393630155054403
1.7916424409865748,19.437438828200243,-0.06264046907383235,0.9950448283586876,-1.4951781266757023
1.7804655394129858,19.260054915526744,-0.06154732618826901,0.9758875346801992,-1.504755755751255
1.7694822459776294,19.086108664453135,-0.06048926753791164,0.9568485883598853,-1.5161678797752436
1.758686310385631,18.915579049428445,-0.05946557237318381,0.9379249119144603,-1.5292835254854342
1.7480716186490446,18.74844558653598,-0.058475446922220356,0.9191135646685006,-1.5439742171639854
1.737632205655249,18.584688309228667,-0.05751803078661932,0.9004117387460714,-1.560113692397169
1.727362266632504,18.4242877447419,-0.05659240279943801,0.8818167555513242,-1.5775776225701506
1.7172561676064257,18.267224891096372,-0.055697586379207485,0.8633260627323116,-1.5962433369314075
1.7073084549353499,18.113481194604148,-0.0548325544105242,0.8449372316257181,-1.615989549064857
1.6975138640073195,17.963038527791298,-0.0539962336787024,0.8266479551837732,-1.6366960846033125
1.687867327176765,17.815879167649808,-0.053187508883013934,0.8084560463883264,-1.6582436090044683
1.6783639810147777,17.67198577413037,-0.05240522625017827,0.7903594371609695,-1.6805133541901334
1.668999172943234,17.531341368785483,-0.05164819676697236,0.7723561777822499,-1.703386842820806
1.659768467319879,17.393929313469705,-0.05091519904808332,0.7544444368374638,-1.7267456089407802
1.6506676510388172,17.259733289000316,-0.05020498185260335,0.7366225017113288,-1.7504709136836814
1.6416927387086973,17.128737273676983,-0.049516266259840555,0.718888779659063,-1.7744434546745713
1.6328399774691986,17.000925521553825,-0.04884774751236699,0.7012417994871132,-1.798543067702523
1.624105851505258,16.87628254035051,-0.04819809653141787,0.683680213883068,-1.8226484191669576
1.6154870863178123,16.754793068881323,-0.0475659611068659,0.6662028024412235,-1.8466366877223657
1.6069806528097055,16.636442053872194,-0.04694996676099047,0.648808475437957,-1.8703832334598762
1.5985837712458264,16.521214626025017,-0.04634871728210871,0.6314962784195846,-1.8937612528715029
1.5902939151475648,16.409096075176517,-0.04576079492079707,0.6142653976748419,-1.9166414177453697
1.5821088151832852,16.300071824385064,-0.0451847602378649,0.5971151666746416,-1.93889149604021
1.5740264631188317,16.19412740276274,-0.04461915158939722,0.580045073573417,-1.9603759526885227
1.5660451158950854,16.091248416851997,-0.04406248423000617,0.5630547698792668,-1.9809555281851012
1.5581632999034083,15.991420520325573,-0.04351324901085155,0.5461440804143314,-2.0004867927385894
1.5503798155344777,15.894629381765068,-0.04296991064393061,0.5293130147024002,-2.018821673708627
1.5426937420816595,15.800860650247461,-0.042430905498494466,0.5125617799376528,-2.035806954034523
1.5351044430867762,15.710099918439482,-0.0418946388890968,0.4958907957065402,-2.051283739403408
1.5276115722240777,15.622332682867047,-0.0413594818075557,0.47930071065387037,-2.065086892034406
1.5202150798275462,15.53754430099087,-0.0408237670427943,0.4627924213036598,-2.0770444292090793
1.5129152201776401,15.455719944679743,-0.04028578462282611,0.4463670932644389,-2.086976885110482
1.5057125596764362,15.376844549629993,-0.03974377650166176,0.4300261850661269,-2.094696635216809
1.4986079860552808,15.300902760234006,-0.03919593040006598,0.4137714748892819,-2.1000071835317766
1.491602718776988,15.227878869353074,-0.03864037269207628,0.3976050904543965,-2.102702414461418
1.4846983208159958,15.157756752402086,-0.03807516020783695,0.38152954233434083,-2.1025658133572596
1.4778967120256605,15.090519795108271,-0.03749827079589102,0.36554776093026387,-2.0993696629027254
1.4712001843333424,15.02615081426752,-0.03690759245208505,0.3496631373003184,-2.0928742269867877
1.4646114190430022,14.964631970796155,-0.03630091077392013,0.33387956793705514,-2.0828269399883164
1.4581335065743881,14.9059446743729,-0.03567589443290101,0.3182015034324226,-2.068961628178463
1.4517699690316024,14.85006947899926,-0.035030078264717886,0.3026340007191445,-2.050997802190754
1.4455247860777185,14.796985968897324,-0.034360843445103546,0.28718277819125065,-2.0286400765210195
1.4394024247051005,14.746672634341909,-0.033665394028429815,0.2718542724244778,-2.0015777955979326
1.4334078736463316,14.699106737331771,-0.032940728846778955,0.256655694354818,-1.9694849785519795
1.4275466833882722,14.654264167503548,-0.032183607353880817,0.24159508151433734,-1.9320207396887348
1.4218250130620946,14.612119289467323,-0.03139050738142744,0.226681341110389,-1.8888304031722891
1.4162496859313825,14.572644783912782,-0.030557571848707527,0.21192427616228665,-1.8395476140870424
1.410828255858818,14.535811486558934,-0.0296805400686725,0.1973345833249104,-1.783797860590496
1.4055690881064273,14.501588231506204,-0.028754657180112872,0.1829238061498548,-1.7212039706481306
1.400481459276539,14.469941709052001,-0.027774552040869354,0.1687042211190528,-1.6513943381005325
1.3955756833736843,14.440836352829344,-0.02673406910195885,0.15468862579935824,-1.5740148674294998
1.3908632742232214,14.414234277456199,-0.025626032569852363,0.14088998945780873,-1.4887458907836388
1.3863571593502824,14.390095295754843,-0.024441910462803872,0.12732091833501183,-1.395325557530469
1.382071967665143,14.368377053441282,-0.023171330483188177,0.11399288514899521,-1.2935813110321084
1.3780244240007566,14.349035327115935,-0.021801376898883014,0.10091518513265228,-1.183470809813468
1.3742338992627923,14.332024533968916,-0.020315564634055133,0.08809362761201335,-1.0651325782080643
1.370723188141947,14.317298489903251,-0.01869233670866923,0.07552908422871592,-0.9389440789611821
1.3675196218530048,14.304811410864172,-0.016902844279577132,0.06321623842772368,-0.805579910640063
1.3646566838015444,14.294519054804333,-0.0149075785144277,0.05114327334825147,-0.6660549458159751
1.3621764208522444,14.286379711192826,-0.012650898700015432,0.039293877890720454,-0.5217276593427508
1.3601332695465238,14.280354389629164,-0.010050782474658525,0.02765413948328692,-0.3742322750487197
1.3586010028859592,14.276404770578552,-0.006974402642725192,0.01623051663462356,-0.22531214478087094
1.3576895254020072,14.274484475984309,-0.0031531249567426293,0.005106089968057529,-0.07655327601861456
