x,y,v_x,v_y,omega
2.375,32.48,0.0,2.41025641025641,-7.63265306122449
2.373559929041299,31.97915559824537,-0.013714961511434438,2.359690273120994,-7.2198811992975305
2.3694214629999917,31.48873819407511,-0.025699000786733907,2.310951671357667,-6.840068478989648
2.3629261473446195,31.00837641158381,-0.03616114831204852,2.2639224476070723,-6.489713651695671
2.3543745825445286,30.537722471237444,-0.045282325974531266,2.2184960318821374,-6.165767097013428
2.3440318719907203,30.07644992281017,-0.05321967929983369,2.17457585790146,-5.865562452009581
2.332132241097035,29.624251682210744,-0.060110138735267625,2.1320740525692514,-5.5867601970373215
2.31888297289775,29.180838320630258,-0.06607336792458825,2.0909103434353873,-5.327300811544587
2.3044677761523094,28.74593656471776,-0.07121422012722751,2.051011141445556,-5.085365650165969
2.2890496793844304,28.319287974469212,-0.07562479670971273,2.0123087656834486,-4.859344092053686
2.2727735266981153,27.900647771759054,-0.07938618125519326,1.974740783937122,-4.647805821614988
2.2557681373883107,27.489783797365966,-0.08256990740961118,1.9382494483779873,-4.449477332450666
2.2381481803979515,27.086475578252283,-0.08523920678428647,1.902781209847567,-4.263221926763817
2.2200158059026993,26.690513489979377,-0.08745007412288001,1.8682862975134547,-4.088022623116077
2.201462069236656,26.30169800165351,-0.08925217983943391,1.8347183532090954,-3.922967495831136
2.182568176636021,25.91983899282959,-0.09068965445232913,1.802034111780597,-3.767237056708807
2.1634065775918216,25.544755133455496,-0.09180176501623748,1.7701931203536583,-3.620093359313304
2.1440419247521456,25.176273319294904,-0.09262350012353429,1.7391574906995766,-3.4808705619089273
2.124531919132279,24.81422815638269,-0.0931860772085309,1.7088916798929323,-3.3489667301394253
2.104928055748264,24.458461488990615,-0.09351738359161206,1.6793622952696734,-3.223836697075329
2.085276282583865,24.108821966350035,-0.09364236083123079,1.6505379203549078,-3.1049858280472633
2.065617583952308,23.76516464402122,-0.09358334042169687,1.6223889589671598,-2.9919645621055677
2.0459884977583807,23.42735061633941,-0.09336033761570513,1.59488749514531,-2.8843636220598525
2.0264215748522316,23.095246676824075,-0.09299130910952329,1.5680071669055102,-2.7818098016896764
2.0069457875520063,22.768725003824983,-0.09249237946405191,1.5417230521334635,-2.683962252537161
1.987586893464845,22.447662869008678,-0.0918780404136744,1.5160115651646693,-2.5905092042162865
1.9683677599272782,22.131942366571213,-0.09116132661077263,1.490850362811191,-2.5011650618187096
1.9493377787447115,21.821460593316697,-0.09007658941367101,1.466118906279441,-2.4082655599185423
1.930540665002212,21.51611838182243,-0.08894354146727579,1.441902155570734,-2.319794586595997
1.9119857725049152,21.215809687363212,-0.08776972041174218,1.4181806488027426,-2.2354866390820143
1.8936809565710315,20.9204324506861,-0.08656185991095934,1.3949358909792857,-2.1550951863355965
1.8756327340833907,20.629888401446998,-0.08532597330466689,1.372150292250257,-2.0783910949527082
1.857846426929559,20.344082874104764,-0.0840674281603979,1.3498071110091319,-2.0051612036168045
1.8403262906306428,20.06292463530459,-0.08279101278165941,1.3278904013734618,-1.93520703037462
1.8230756297509023,19.78632572187277,-0.08150099559682335,1.3063849646438552,-1.8683435988656396
1.8060969014981336,19.514201288625195,-0.08020117823906822,1.2852763043806923,-1.8043983712401133
1.7893918087650096,19.246469465263726,-0.07889494302878018,1.2645505847761433,-1.7432102769022728
1.772961383721178,18.983051221698798,-0.07758529548390053,1.2441945920326998,-1.6846288274410468
1.7568060629424291,18.723870241194014,-0.07627490240894738,1.2241956984890359,-1.628513309184238
1.7409257549544204,18.46885280078035,-0.07496612604827757,1.2045418292601495,-1.5747320457544123
1.7253199009724636,18.217927658433943,-0.07366105473226357,1.185221431181819,-1.5231617238331836
1.709987529534068,17.971025946553514,-0.07236153039531128,1.1662234438698913,-1.4736867760701813
1.6949273056459477,17.72808107131125,-0.07106917330107357,1.1475372727230913,-1.4261988157166103
1.6801375750007752,17.489028617485335,-0.06978540427199947,1.129152763714215,-1.3805961181320046
1.6656164037601018,17.2538062584133,-0.06851146468679378,1.111060179829001,-1.336783144816031
1.651361614347605,17.022353670733644,-0.06724843447984134,1.0932501790248512,-1.2946701060632348
1.6373708176504032,16.794612453608757,-0.06599724835065346,1.0757137935931098,-1.2541725587345038
1.623641441984895,16.57052605214549,-0.06475871036847106,1.0584424108189454,-1.2152110359909027
1.6101707591468286,16.350039684751074,-0.06353350713692298,1.0414277548421706,-1.17771070614873
1.5969559078325477,16.133100274181423,-0.06232221966575241,1.0246618696306864,-1.141601058093777
1.58399391468916,15.919656382056697,-0.06112533408079865,1.0081371029857646,-1.106815610941881
1.5712817132252888,15.70965814663515,-0.0599432512894035,0.9918460915051807,-1.0732916458554436
1.558827152828474,15.503217403882495,-0.05867160963264168,0.9742562204248559,-1.0712275174552839
1.5466353483277215,15.300457281249063,-0.057440814184049935,0.956792566560198,-1.071616651394546
1.5346977578826746,15.101351661154652,-0.05625052338782517,0.9394514343389597,-1.0743223149851628
1.5230059223015076,14.90587518552056,-0.05510029167090787,0.9222292859857242,-1.0792119747508622
1.5115514858923444,14.714003223374402,-0.053989578892550905,0.9051227344538789,-1.0861569817299062
1.5003262154101973,14.525711839880397,-0.05291775903266048,0.8881285369175873,-1.0950322692992809
1.4893220172534667,14.340977766680489,-0.05188412817429622,0.8712435887958458,-1.1057160622164337
1.478530953052887,14.159778373437089,-0.050887911831226665,0.8544649182841465,-1.118089595633916
1.467945253785546,13.982091640473136,-0.04992827166725938,0.8377896813725488,-1.1320368428926018
1.457557332537216,13.807896132409144,-0.04900431165016915,0.8212151573321411,-1.147444250940951
1.447359796027611,13.637170972700499,-0.04811508367940337,0.8047387446549698,-1.1642004822614038
1.4373454550053246,13.46989581898099,-0.04725959272332247,0.7883579574355714,-1.1821961622106696
1.4275073336120325,13.3060508391208,-0.04643680149850851,0.7720704221852865,-1.2013236306986106
1.4178386778090237,13.145616687908618,-0.045645634720622934,0.7558738750736027,-1.2214766971406934
1.4083329629532524,12.98857448426853,-0.04488498295338976,0.7397661595939002,-1.2425503976216516
1.3989839006047986,12.83490578892248,-0.044153706079501864,0.7237452246542009,-1.2644407532030206
1.389785444642921,12.684592582408616,-0.04345063641457156,0.7078091230968764,-1.2870445282945033
1.3807317967637123,12.53761724336469,-0.042774581482651605,0.6919560106548158,-1.3102589879885504
1.3718174114287558,12.393962526983625,-0.0421243264693163,0.6761841453553162,-1.333981653228907
1.3630370003310694,12.25361154354568,-0.04149863636579242,0.6604918873870049,-1.3581100526469756
1.3543855364420712,12.11654773692785,-0.04089625781514405,0.6448776994494826,-1.3825414698544194
1.345858257701234,11.982754862986589,-0.0403159206690196,0.6293401476101532,-1.407172684926238
1.3374506704085882,11.852216967704237,-0.03975633926094011,0.6138779026979514,-1.4318997087453695
1.3291585523792402,11.724918364982656,-0.03921621339951794,0.59848974226947,-1.4566175088075426
1.3209779559186474,11.600843613959473,-0.038694229082317934,0.5831745531894129,-1.4812197250035748
1.312905210677535,11.479977495712767,-0.038189058928277744,0.5679313348744434,-1.5055983738057324
1.3049369264460817,11.362304989208916,-0.03769936232365835,0.552759203257482,-1.5296435391855476
1.2970699959483944,11.247811246335345,-0.03722378527336339,0.5376573955384225,-1.5532430484834925
1.2893015977003501,11.136481565845102,-0.03676095994610623,0.5226252757972211,-1.5762821313375988
1.2816291989966906,11.028301366022962,-0.03630950389827078,0.5076623415564822,-1.5986430596608396
1.27405055909685,10.92325615586325,-0.03586801895735346,0.4927682313931506,-1.6202047665394412
1.2665637326834676,10.821331504527123,-0.03543508974152787,0.47794273371283164,-1.6408424418116179
1.2591670736729652,10.722513008821625,-0.035009281787066776,0.4631857968157118,-1.6604271019862893
1.251859239464073,10.626786258413965,-0.034589139250000796,0.4484975404000976,-1.678825132085304
1.2446391957178733,10.534136798461791,-0.03417318214237742,0.4338782686682279,-1.6958977969564293
1.2375062217719732,10.444550089303618,-0.033759903056670024,0.4193284852191455,-1.7115007196302598
1.2304599168019934,10.35801146281246,-0.033347763324090784,0.4048489099347542,-1.7254833244136705
1.223500206855892,10.274506074970155,-0.032935188543541986,0.3904404980872078,-1.7376882426694924
1.2166273529010467,10.194018854169656,-0.03252056340736602,0.37610446191755154,-1.747950679688117
1.2098419600408397,10.11653444469798,-0.03210222573746315,0.3618422949555407,-1.7560977417973822
1.2031449880772473,10.042037144794175,-0.03167845963008198,0.3476557993664145,-1.7619477240017336
1.196537763619275,9.97051083861577,-0.031247487588701016,0.33354711661840875,-1.7653093601566807
1.190021993964907,9.901938921386101,-0.030807461500519044,0.3195187617593824,-1.7659810402020462
1.1835997830178382,9.836304216937172,-0.03035645228108949,0.3055736615637445,-1.763750002621297
1.1772736495414247,9.77358888681428,-0.029892437970468127,0.29171519674952234,-1.7583915155165375
1.1710465481036647,9.713774330078657,-0.029413290008198898,0.27794724835165924,-1.7496680671212266
1.1649218931324838,9.65684107294653,-0.028916757336381098,0.2642742481447876,-1.7373285970975938
1.1589035865859232,9.602768647458038,-0.028400447868958973,0.2507012326979922,-1.7211078148138357
1.1529960498557292,9.551535458508006,-0.027861806704316087,0.23723390015945722,-1.700725671680166
1.1472042606785693,9.503118638837588,-0.027298090221015744,0.22387866813025095,-1.6758870839141589
1.1415337960469132,9.457493892046454,-0.02670633484237562,0.21064272988054986,-1.6462820430609932
1.1359908824227452,9.414635324433252,-0.02608331872113019,0.19753410453090012,-1.611586308622356
1.130582455009905,9.374515267639993,-0.025425513782108763,0.184561674452537,-1.5714629560820035
1.1253162285096583,9.337104095847902,-0.02472902431548045,0.1717351997578431,-1.5255651618734272
1.120200782784648,9.302370043896005,-0.023989506398903602,0.15906529502211797,-1.4735407531878209
1.115245668367276,9.270279036487945,-0.023202059480829366,0.1465633469594026,-1.4150392438554649
1.110461539044141,9.240794543994134,-0.022361076929981058,0.13424134345785219,-1.3497223232963815
1.1058603222460623,9.213877487616532,-0.0214600354326727,0.1221115744240794,-1.2772790572700528
1.1014554433003079,9.189486226052527,-0.020491192622131713,0.11018615475691149,-1.197447360342792
1.0972621276821908,9.167576666874261,-0.01944514659803003,0.09847631360752081,-1.1100435082798707
1.093297817576601,9.148102556802257,-0.018310187740919748,0.08699140136393718,-1.0150013419880517
1.0895827572692123,9.131016011069903,-0.01707133899611719,0.07573760561085324,-0.9124219150938534
1.086140829146395,9.116268332735547,-0.01570892884023864,0.06471647376395454,-0.8026318719884683
1.0830007641103405,9.103811128561823,-0.014196452455517296,0.05392356598579643,-0.6862437456990322
1.0801979215955952,9.093597616615522,-0.012497285780151553,0.04334797635993879,-0.5642028291885783
1.0777769816716276,9.08558379269681,-0.010559284924301552,0.03297415619921467,-0.43779431303628835
1.07579628401803,9.079728685946858,-0.008304502252818419,0.02278876522888708,-0.3085760889269629
1.074335906636239,9.075991940454497,-0.005603853764237771,0.012799287079300501,-0.1782059463941548
1.0735183609202512,9.074322895047374,-0.0021822959118357596,0.003096383464732271,-0.04816394022179113
