x,y,v_x,v_y,omega
2.375,32.48,0.0,3.5897435897435894,-2.8571428571428577
2.3743639269091092,31.841679196258283,-0.007067478787674054,3.5027097851643325,-2.6664604136261247
2.372554309266437,31.218693326933113,-0.013039383908686886,3.4193554295597717,-2.494897088071538
2.369753680166147,30.610401984217656,-0.018078717205640388,3.3394372672786465,-2.33997788888628
2.36611759196953,30.016206610724115,-0.02232226275677663,3.262733549316258,-2.1996050902987005
2.3617789201720036,29.435546846298564,-0.025885201660181295,3.1890416109676294,-2.071993126501612
2.3568514163236673,28.867897280402314,-0.02886484109911087,3.1181757878796104,-1.9556159394395503
2.35143265284624,28.312764554326527,-0.03134364198341392,3.0499656129624766,-1.8491641749978263
2.345606473138153,27.769684766815573,-0.03339168810643911,2.9842542482703296,-1.7515102129053504
2.3394450374553895,27.23822114413233,-0.03506870836871359,2.9208971148768463,-1.6616794621328743
2.333010537135821,26.717961941632275,-0.03642573962649437,2.8597606906792867,-1.5788266935992037
2.3263566356358645,26.208518548838725,-0.03750649926190821,2.8007214514712993,-1.502216442745183
2.319529683697142,25.709523774065087,-0.038348522279453456,2.7436649349024607,-1.4312067157705926
2.3125697470974287,25.220630287991646,-0.0389841066062511,2.6884849103579667,-1.3652353895730576
2.305511478362156,24.74150920841055,-0.03944110156344341,2.635082640543093,-1.303808817430184
2.298384858135293,24.271848810710466,-0.03974356762392374,2.583366222791204,-1.2464922482436291
2.291215827335179,23.811353350664483,-0.03991233015512617,2.5332499999419453,-1.1929017427377788
2.284026827522199,23.359741987776918,-0.039965445544647205,2.4846540321420965,-1.1426973299276542
2.276837263902293,22.916747798888828,-0.03991859467653387,2.43750362217004,-1.0955771949023878
2.2696639029432513,22.482116872980182,-0.039785415979484436,2.391728887926008,-1.0512727271603266
2.2625212145796834,22.055607479172537,-0.03957778806015577,2.3472643766033645,-1.0095442894165814
2.2554216673405034,21.636989300856953,-0.039306070152956396,2.304048715792012,-0.970177591558727
2.2483759833810204,21.226042729670752,-0.03897930717463222,2.262024297388045,-0.9329805744752885
2.24139335928538,20.8225582137416,-0.03860540499914915,2.2211369907136245,-0.8977807247802433
2.2344816575803743,20.42633565522406,-0.038191280612025105,2.1813358817034563,-0.8644227547544873
2.227647573133412,20.03718385268457,-0.03774299102089264,2.142573035402004,-0.8327665927124193
2.2208967779673987,19.654919984356972,-0.03726584415703288,2.1048032793490883,-0.8026856379454796
2.2142340474905917,19.279369128700814,-0.036764494474152754,2.067984005719332,-0.7740652417654816
2.20766337069162,18.91036381905637,-0.036243025514422475,2.0320749903300546,-0.7468013822645709
2.201188046473764,18.547743629510297,-0.03570502135064283,1.9970382268485245,-0.7207995054622207
2.19481076798598,18.191354789369328,-0.035153628513625024,1.9628377747177987,-0.6959735097128188
2.188533696540962,17.841049823891098,-0.03459160976435607,1.929439619484748,-0.672244853753246
2.18235852648456,17.49668721914528,-0.034021390862325945,1.8968115443577114,-0.6495417717021751
2.1762865421893,17.15813110907782,-0.033445101307236526,1.8649230119473832,-0.6277985807820727
2.1703186681819733,16.825250983029562,-0.03286460988527959,1.8337450552554497,-0.6069550696027777
2.164455513276739,16.497921412119986,-0.03228155572843433,1.8032501770731977,-0.586955956588768
2.1586974094669142,16.176021793049927,-0.031697375491842136,1.7734122570385786,-0.5677504096054106
2.1530444462276157,15.859436108005568,-0.031113327167027787,1.7442064656765104,-0.5492916190874556
2.1474965007948437,15.548052699461348,-0.03053051097488438,1.7156091848148074,-0.5315364180326909
2.1420532649123287,15.241764058783481,-0.029949887719726127,1.6875979338281684,-0.514444943125478
2.136714268473627,14.940466627629505,-0.029372294932520186,1.6601513012160298,-0.4979803320240764
2.131478900431948,14.644060611223974,-0.02879846108612972,1.6332488810676589,-0.48210845250314505
2.126346427302786,14.352449802666957,-0.028229018126783974,1.6068712140102932,-0.4667976597059974
2.121316009543406,14.065541417501365,-0.027664512532995175,1.5809997322740648,-0.4520185782446048
2.1163867160577956,13.783245937827974,-0.027105415084897427,1.5556167085413881,-0.43774390630111415
2.1115575370449062,13.505476965314145,-0.02655212950276232,1.5307052082789225,-0.42394823924294606
2.1068273953813197,13.232151082494063,-0.026005000092640566,1.5062490452775275,-0.41060791057290086
2.1021951567062565,12.963187721805568,-0.025464318519177038,1.482232740150186,-0.3977008483033071
2.097662363300358,12.698509428467815,-0.02490005265747174,1.4586371858248535,-0.3843973406592485
2.093230092871154,12.438041334785986,-0.024347396555904937,1.4354527439732727,-0.3716505551857141
2.0888962640031123,12.181710664262152,-0.023806257533446718,1.4126658174026578,-0.35943099363120795
2.084658814091063,11.9294470368311,-0.023276519267102926,1.390263376275696,-0.3477110152282583
2.0805157032708195,11.681182369424626,-0.022758045402269184,1.3682329282406953,-0.336464701009491
2.076464917739321,11.436850781744685,-0.02225068272549086,1.346562490425311,-0.3256677293614795
2.0725044725383963,11.196388506922094,-0.021754263951449103,1.3252405631590247,-0.31529726177778694
2.0686324138674945,10.959733806760728,-0.0212686101696846,1.3042561053006112,-0.30533183787835966
2.064846820983027,10.726826891288553,-0.020793532991064675,1.2835985110568746,-0.2957512788564381
2.0611458077352043,10.497609842356507,-0.020328836429188875,1.263257588188066,-0.2865365985978257
2.0575275237872823,10.272026541044248,-0.019874318547720614,1.2432235375037157,-0.27766992179192596
2.0539901555569022,10.050022598648496,-0.019429772900948796,1.2234869335601812,-0.2691344084205003
2.0505319269145676,9.83154529104505,-0.018994989791654964,1.204038706478133,-0.2609141840695404
2.0471510996702413,9.616543496229614,-0.018569757367529645,1.1848701248044982,-0.25299427556281545
2.043845973875423,9.404967634855787,-0.018153862574894934,1.1659727793491534,-0.24536055146326016
2.0406148879649146,9.196769613600488,-0.01774709198630527,1.1473385679319301,-0.2379996670310445
2.0374562187596466,8.991902771198387,-0.01734923251667618,1.1289596809803202,-0.23089901326546006
2.0343683813494646,8.790321826997115,-0.016960072040898805,1.1108285879226953,-0.22404666969216389
2.031349828872587,8.59198283189474,-0.016579399924407264,1.0929380243259086,-0.21743136058825852
2.028399052206474,8.39684312152972,-0.01620700747685147,1.0752809797298692,-0.21104241436554033
2.0255145795831493,8.204861271601871,-0.015842688337868192,1.0578506861351042,-0.2048697258573481
2.022694976140478,8.01599705521049,-0.015486238802918979,1.040640607102459,-0.19890372127708442
2.0199388434195527,7.83021140210284,-0.015137458096258523,1.0236444274269882,-0.1931353256369261
2.0172448188171326,7.647466359732842,-0.014796148597296803,1.0068560433507485,-0.18755593243371543
2.0146115750010436,7.467725056035924,-0.014462116025910231,0.9902695532816579,-0.18215737542573968
2.012040606373844,7.291170586602551,-0.014104202054087502,0.9714467737558141,-0.2250459021650576
2.009530362284977,7.117995225449668,-0.013787398933323007,0.9527239057206596,-0.2689902704370152
2.007073565281048,6.948181209401767,-0.013510345554780282,0.9340984948115942,-0.3138942704304024
2.00466318413215,6.781711208669638,-0.013271667210751549,0.9155681799898607,-0.3596628449143204
2.0022924360461243,6.618568310245646,-0.013069978189533382,0.8971306913878397,-0.40620187991760076
1.9999547884432538,6.4587360016573,-0.012903884064582044,0.8787838484826775,-0.4534179952789766
1.9976439603449652,6.302198155019749,-0.012771983694181773,0.8605255586012306,-0.501218334127173
1.9953539234274018,6.148939011327052,-0.012672870945409418,0.8423538157620565,-0.5495103503159744
1.9930789027884774,5.998943164920785,-0.012605136153751006,0.8242666998631399,-0.5982015927967167
1.9908133774751833,5.85219554807265,-0.012567367327294932,0.8062623762272438,-0.6471994858588621
1.9885520808165498,5.708681415615374,-0.012558151101966552,0.7883390955202919,-0.6964111041075582
1.986290000606715,5.568386329552961,-0.012576073451751947,0.770495194062062,-0.7457429409744442
1.9840223791820846,5.431296143577626,-0.01261972015525464,0.7527290945527846,-0.7951006694734027
1.981744713436563,5.297396987415908,-0.012687677017205454,0.735039307244066,-0.8443888938152914
1.9794527548193546,5.166675250921024,-0.012778529840666868,0.7174244315879913,-0.8935108903835778
1.9771425093608606,5.039117567821709,-0.012890864142599798,0.6998831584044118,-0.9423683364447958
1.9748102377738332,4.914710799030104,-0.013023264602149047,0.6824142726134115,-0.9908610248221745
1.9724524556791734,4.793442015401983,-0.013174314227404912,0.6650166565879229,-1.038886562595929
1.9700659340086857,4.675298479831916,-0.013342593222458005,0.6476892941905943,-1.0863400517076198
1.9676476996407646,4.5602676285535075,-0.013526677532220453,0.630431275569489,-1.133113749136735
1.9651950363294746,4.448337051500321,-0.013725137037669831,0.6132418027992601,-1.1790967040831997
1.9627054859928919,4.339494471566237,-0.013936533368803294,0.5961201964683509,-1.2241743693279925
1.9601768504330075,4.23372772258449,-0.014159417296578729,0.5790659033288228,-1.2682281836537466
1.9576071935670627,4.131024725821938,-0.014392325658364817,0.562078505143972,-1.3111351218869836
1.9549948442590672,4.031373464758847,-0.014633777763805547,0.5451577288903519,-1.3527672087731462
1.9523383998505794,3.934761957894107,-0.01488227121939235,0.5283034584956275,-1.3929909925159385
1.9496367305018096,3.8411782292804872,-0.015136277100273264,0.5115157483223535,-1.4316669734069327
1.946888984467979,3.750610276453802,-0.015394234386733187,0.4947948386408276,-1.4686489825465983
1.9440945944518604,3.663046035372627,-0.015654543570141004,0.4781411733722105,-1.5037835052255228
1.941253285191862,3.578473341930728,-0.01591555931872798,0.4615554204266731,-1.5369089431138414
1.9383650824662433,3.49687988954134,-0.016175582077036354,0.44503849501095866,-1.5678548090280517
1.9354303237184602,3.418253182220134,-0.016432848453887667,0.4285915863357717,-1.5964408477540935
1.932449670536748,3.342580482510485,-0.016685520231802215,0.41221618821587097,-1.6224760762743484
1.9294241232534044,3.269848753499886,-0.01693167180534986,0.39591413412413146,-1.6457577368796787
1.9263550379665721,3.200044594068686,-0.017169275826118952,0.3796876373336591,-1.666070157202733
1.923244146330516,3.1331541663915985,-0.01739618679672695,0.36353933685620643,-1.6831835124178025
1.920093578510556,3.0691631145785934,-0.017610122313939294,0.34747234995497767,-1.6968524870584527
1.916905889757483,3.0080564731967385,-0.017808641609092606,0.33149033206562284,-1.7068148376128063
1.9136840911254618,2.9498185642622303,-0.017989120968921597,0.3155975449844639,-1.712789863013853
1.9104316849400431,2.8944328811400233,-0.018148725535731356,0.2997989341511858,-1.7144767994499361
1.9071527057232323,2.841881957651456,-0.018284376873278795,0.2841002157217742,-1.7115531702064308
1.9038517674070743,2.7921472205918896,-0.01839271552847607,0.26850797382896474,-1.7036731429219092
1.9005341178260582,2.7452088238402297,-0.018470057593923367,0.2530297678561358,-1.6904659792661585
1.897205701687977,2.701045462364405,-0.01851234394031357,0.23767424854192037,-1.671534710899199
1.893873233509024,2.6596341647926387,-0.0185150802702748,0.22245128003325682,-1.6464552484383879
1.8905442824053051,2.620950063989156,-0.018473265326601675,0.20737206222766827,-1.6147762384774373
1.8872273712321046,2.584966146490604,-0.01838130326451503,0.19244924331179186,-1.5760201440628152
1.8839320934763084,2.5516529841006452,-0.01823289402210948,0.177697005465542,-1.5296862600421157
1.8806692527431537,2.520978454962126,-0.018020891901832668,0.16313109607354728,-1.4752567186806183
1.877451031987297,2.4929074678315324,-0.01773711649657331,0.14876876093305363,-1.4122070340434278
1.8742912034168175,2.4674017131590347,-0.01737208984208769,0.13462851320579197,-1.3400234202568124
1.871205396256593,2.444419479254311,-0.01691465638262888,0.12072964129112823,-1.2582300253031367
1.8682114499868356,2.4239155925029863,-0.01635141328134463,0.10709132261249281,-1.166430297302078
1.8653298980722215,2.405841567284085,-0.01566583021436852,0.09373117981975558,-1.0643676708551455
1.8625846561299557,2.3901460798970007,-0.014836858033027707,0.08066312448117474,-0.9520108206810861
1.8600040364146717,2.3767758972169233,-0.013836694359019752,0.06789446085303201,-0.8296659779275614
1.8576222905958832,2.3656773589118885,-0.012627148071962335,0.05542263142513482,-0.6981095574061017
1.8554820244486243,2.356798356323317,-0.011153586897581825,0.04323295289231406,-0.5587133531755213
1.8536381240242095,2.3500903347668896,-0.00933419559591594,0.03130061995688844,-0.4134992315371589
1.8521646699555043,2.3455089064638344,-0.007037516278585053,0.019604138965937684,-0.2650222091339336
1.8511697924451673,2.3430091505455195,-0.00401667828071463,0.008170926793133873,-0.11597568784218001
