x,y,v_x,v_y,omega
2.375,32.48,0.0,3.3846153846153846,-7.877551020408164
2.373211904871877,31.84480906351006,-0.01882205398024435,3.301604999489213,-7.352270455717041
2.368120571833347,31.225042195373963,-0.03477092537270117,3.222256770364452,-6.879664907064286
2.360231700668955,30.620029233809973,-0.04826982372616116,3.1463007197828117,-6.452870290632274
2.349977069208831,30.02914853696166,-0.05967366532777295,3.073496089146797,-6.066087798741267
2.3377263382250457,29.451821847706093,-0.06928139765944538,3.0036269556486253,-5.7143935491138516
2.3237967521946405,28.887509910992627,-0.07734582371324072,2.936498693966824,-5.393586769026331
2.308461156738216,28.335708701663357,-0.08408149688069802,2.8719350884465094,-5.100067763495984
2.2919546589904147,27.79594615281956,-0.08967111099089754,2.8097759520145336,-4.830739127292553
2.2744801864175415,27.267779298676743,-0.09427070556566254,2.7498751442256553,-4.582925255469975
2.256213145995665,26.75079176381083,-0.09801393045408585,2.6920989069944605,-4.354306373510112
2.237305344583999,26.244591544353852,-0.10101555808976859,2.6363244557105783,-4.142864171775756
2.2178882995261477,25.748809037190092,-0.10337438988761405,2.582438777592171,-3.946836775614382
2.1980760436661293,25.263095281346466,-0.105175671796793,2.5303375997091635,-3.764681271631988
2.1779675093959074,24.787120382150942,-0.10649310999501413,2.479924497085814,-3.595042384195981
2.1576485608223392,24.320572093777965,-0.10739055920044076,2.4311101173665572,-3.4367261839216225
2.1371937307368922,23.863154539824556,-0.1079234416990031,2.3838115031956266,-3.2886779332291027
2.116667709102403,23.414587054798645,-0.10813994392719459,2.337951497077138,-3.149963348689916
2.096126621714842,22.974603132027042,-0.10808202857344713,2.2934582163081454,-3.019752697350315
2.0756191311543546,22.54294946563646,-0.10778629311589662,2.2502645878032426,-2.8973072531089414
2.0551873867998376,22.11938507602747,-0.10728470008954781,2.2083079343966534,-2.7819677259765396
2.0348678463045746,21.703680509725746,-0.10660519986058721,2.167529605621507,-2.673144346532169
2.0146919873287583,21.29561710571672,-0.10577226304274318,2.127874647105106,-2.5703083438295473
1.9946869253495991,20.894986321395628,-0.10480733673787967,2.0892915036432207,-2.4729846002537132
1.9748759509034661,20.501589112131242,-0.10372923637930821,2.051731751771354,-2.380745303589317
1.9552789975632292,20.115235359177177,-0.10255448299160921,2.015149858271471,-2.2932044465546677
1.9359130502424904,19.735743341292622,-0.10129759406879968,1.979502961565923,-2.2100130486239125
1.9167925019861394,19.362939245973017,-0.09997133494542007,1.94475067337727,-2.130854995160668
1.897929466204659,18.99665671665514,-0.09858693643858234,1.9108548983898703,-2.0554434055562405
1.8793340502981224,18.6367364326629,-0.09715428363022564,1.8777796699494844,-1.983517455868729
1.861014595762433,18.283025719009053,-0.0956820799033452,1.8454910000910019,-1.9148395929262987
1.842977889148584,17.93537818347241,-0.09417798971612021,1.8139567424000023,-1.8491930864141057
1.8252293476337762,17.593653378636624,-0.09264876307132959,1.7831464663977685,-1.7863798734521352
1.8077731824432746,17.257716486810626,-0.09110034419710787,1.753031342296937,-1.7262186568673967
1.7906125429190465,16.927438025956917,-0.08953796658423932,1.7235840351104987,-1.6685432239929907
1.7737496436533275,16.602693574936104,-0.08796623621280374,1.6947786072138886,-1.6132009575713209
1.7571858767820734,16.283363516537456,-0.08638920453724133,1.6665904285613216,-1.5600515143484786
1.7409219112563417,15.969332796908787,-0.08481043257572307,1.6389960938457129,-1.50896565034395
1.7249577806719054,15.660490700126442,-0.08323304726044778,1.6119733459684544,-1.4598241746648635
1.7092929610329213,15.356730636760439,-0.08165979104464834,1.585501005252636,-1.412517016189986
1.6939264396492923,15.057949945391663,-0.08009306562513,1.559558903892377,-1.3669423895441397
1.6788567762152855,14.764049706129509,-0.07853497052230916,1.5341278251829216,-1.3230060485755644
1.6640821569854822,14.47493456526054,-0.07698733715983118,1.509189447122013,-1.2806206170842602
1.6496004428502697,14.190512570232652,-0.07545175900029889,1.4847262900136353,-1.2397049878679407
1.6354209989533852,13.910698829434718,-0.07380554517743432,1.460681507859337,-1.196668946369818
1.6215514305853138,13.635411323413166,-0.07218991132858033,1.4370817134201632,-1.1555176354507868
1.607985910802367,13.364566966778426,-0.07060503375506998,1.413911514313957,-1.1161467856436553
1.594718590425341,13.098085534114055,-0.06905097021362658,1.3911561979425866,-1.0784589899062729
1.5817436190477387,12.83588953442733,-0.06752767586639771,1.368801693496619,-1.042363179741418
1.5690551631927891,12.577904092577842,-0.06603501734359854,1.3468345364979935,-1.0077741466730745
1.5566474219566406,12.324056837220702,-0.06457278514217345,1.3252418356824334,-0.974612104696105
1.5445146404352696,12.07427779483697,-0.06314070455646849,1.304011242041076,-0.9428022897831562
1.5326511211976683,11.828499289456676,-0.061738445313020716,1.2831309198567613,-0.9122745929452112
1.5210512340371616,11.586655847709729,-0.060365630060735066,1.2625895195847756,-0.8829632237073384
1.509709424205687,11.3486841088673,-0.05902184184952507,1.2423761524408008,-0.854806401184798
1.498620219312096,11.114522739561227,-0.057706630714588314,1.2224803665704906,-0.8277460702318641
1.4877782350446012,10.884112352891893,-0.056419519469568136,1.2028921246856707,-0.8017276403909335
1.4771781798590247,10.657395431655893,-0.05516000879965923,1.1836017830617087,-0.7766997455965852
1.46681485875823,10.434316255444099,-0.05392758173502222,1.1646000717992684,-0.7526140227915744
1.4566831762737316,10.214820831378322,-0.05272170757548649,1.145878076261522,-0.7294249077922237
1.4467781387477792,9.998856828270998,-0.051541845329274666,1.1274272196050332,-0.7070894469018584
1.4370948560029813,9.786373514007263,-0.05038744672123052,1.109239246329022,-0.6855671229150625
1.4276285424765978,9.57732169596251,-0.049257958819650075,1.0913062067736308,-0.664819694284555
1.4183745178878375,9.371653664281212,-0.04815282632519289,1.073620442503208,-0.6448110463381197
1.4093282074987068,9.16932313785443,-0.04707149356039413,1.0561745725155387,-0.6255070535367713
1.4004851420220465,8.97028521284432,-0.046013406193924,1.0389614802224478,-0.6068754518585268
1.3918409572242854,8.774496313613813,-0.044978012729879155,1.0219743011513107,-0.5888857204759399
1.383391393264994,8.581914145928966,-0.04396476578897786,1.005206411320763,-0.571508971970974
1.3751322938105173,8.392497652309995,-0.042973123205512394,0.9886514162473511,-0.554717850398739
1.3670685370875801,8.206416329789867,-0.04190852650961575,0.9700993471224297,-0.5826107636242596
1.3592018949096043,8.023849519961534,-0.040898233258550395,0.9516565458073888,-0.6120218878703176
1.3515222097415585,7.844776732819177,-0.039940557984037964,0.9333201609542645,-0.6428391314729791
1.3440196456708249,7.6691780091651225,-0.03903380065526261,0.9150874564568329,-0.6749525782940999
1.3366846908536716,7.497033899059499,-0.03817625005161512,0.8969558078128779,-0.7082542367568191
1.3295081593564095,7.328325440922196,-0.037366186761669105,0.8789226988955651,-0.7426377930349629
1.3224811924598652,7.1630341412099945,-0.03660188583353389,0.8609857191275915,-0.7779983673210646
1.3155952594912792,7.001141954592672,-0.035881619098948936,0.8431425610547636,-0.8142322720961168
1.308842158243752,6.842631264552189,-0.035203657190811574,0.8253910183187247,-0.8512367713142691
1.3022140150398571,6.687484864328894,-0.034566271271239395,0.8077289840317639,-0.8889098393971893
1.2957032844930392,6.535685938137675,-0.03396773448473853,0.7901544495600237,-0.9271499189053997
1.2893027490178763,6.387218042575594,-0.03340632314855424,0.7726655037250417,-0.9658556757171382
1.283005518138233,6.242065088140155,-0.03288031768979713,0.7552603324374563,-1.0049257504986562
1.2768050276407403,6.100211320774406,-0.03238800333644112,0.7379372187809483,-1.0442585051927475
1.2706950386199372,5.961641303351147,-0.03192767056675114,0.720694543569146,-1.083751763183993
1.2646696364607821,5.826339897003759,-0.03149761531909124,0.7035307864033586,-1.1233025417189177
1.2587232298041395,5.6942922422052895,-0.031096138961356608,0.6864445272647303,-1.1628067750661433
1.2528505495412494,5.565483739490464,-0.030721548016433155,0.669434448680805,-1.2021590267947249
1.2470466478841657,5.439900029706987,-0.0303721536370797,0.652499338513694,-1.2412521894272643
1.2413068975607042,5.317526973672795,-0.03004627082041093,0.6356380934251598,-1.279977169587099
1.2356269911846396,5.198350631104507,-0.02974221734869057,0.6188497230831405,-1.3182225566050199
1.2300029408547732,5.082357238669061,-0.029458312439375123,0.6021333551846907,-1.3558742723798067
1.2244310780401262,4.9695331869952035,-0.029192875083224493,0.5854882413822158,-1.3928152000979408
1.218908053812968,4.859864996463617,-0.028944222044756218,0.568913764213442,-1.4289247892111778
1.2134308394967581,4.753339291573994,-0.028710665494295125,0.5524094451510319,-1.4640786338469944
1.2079967278024484,4.649942773663632,-0.0284905102352816,0.5359749539054018,-1.4981480215881329
1.202603334534092,4.549662191724849,-0.028282050484258213,0.5196101191344017,-1.5309994493071406
1.1972486009534622,4.452484311037125,-0.028083566153951068,0.5033149407363883,-1.5624941024859418
1.1919307969035493,4.358395879293898,-0.027893318581974528,0.4870896039291604,-1.5924872941986927
1.1866485248025789,4.26738358986271,-0.02770954563876796,0.4709344953464945,-1.620827859703193
1.1814007246337632,4.179434041770193,-0.027530456138239522,0.45485022141684633,-1.6473575023940934
1.1761866800716436,4.094533695949696,-0.027354223463019498,0.4388376293252377,-1.6719100867527381
1.1710060259038788,4.012668827228367,-0.02717897830292503,0.42289783089928495,-1.6943108739315411
1.1658587569280672,3.933825471461631,-0.027002800389828312,0.4070322298032133,-1.7143756958046654
1.1607452385270955,3.85798936714583,-0.026823709094084252,0.39124255246838224,-1.7319100638017377
1.1556662191541602,3.7851458907541797,-0.02663965272628758,0.3755308832331893,-1.7467082097617095
1.1506228449907392,3.7152799849475002,-0.026448496362354197,0.3598997042055409,-1.7585520576074265
1.145616677078384,3.648376078710797,-0.026248007978225733,0.34435194039135464,-1.7672101271463903
1.1406497112695977,3.5844179983625217,-0.02603584264057667,0.3288910106431256,-1.7724363751786418
1.1357244013961607,3.523388868280385,-0.02580952444823304,0.31352088495830865,-1.7739689849558797
1.1308436861178182,3.465271000094752,-0.025566425850109098,0.2982461485746659,-1.771529123775601
1.12601101999434,3.4100457690325428,-0.025303743870712526,0.28307207313281196,-1.7648197013909999
1.1212304094258259,3.3576934760741572,-0.025018472639964186,0.26800469485019063,-1.75352418081795
1.1165064542393417,3.3081931946495615,-0.0247073714282907,0.25305089909291956,-1.7373055206850063
1.1118443958795994,3.261522600802987,-0.024366927095312494,0.23821850981839504,-1.715805368326111
1.107250173411249,3.2176577861839526,-0.023993309413637906,0.2235163809082979,-1.6886436808330445
1.1027304888986305,3.1765730540034873,-0.02358231703497842,0.20895448414921688,-1.6554190350324038
1.0982928842569901,3.138240699419164,-0.023129310771762092,0.19454398515943394,-1.6157100076804523
1.0939458324667959,3.102630777959213,-0.022629129125018518,0.18029729336637107,-1.5690781788338017
1.0896988472715563,3.069710868962158,-0.022075978193292857,0.16622806449738103,-1.5150735534692805
1.085562617402084,3.039445846139877,-0.0214632835906251,0.15235112310557936,-1.4532435314977754
1.0815491744116967,3.011797674971479,-0.020783484729240506,0.13868225761441286,-1.3831470053152026
1.0776721080512244,2.986725267496791,-0.020027740117835813,0.12523782106652656,-1.3043757318706186
1.0739468508464118,2.9641844398284185,-0.019185493617033717,0.11203404912684983,-1.216585765920011
1.0703910658606774,2.944128036095975,-0.018243822022274696,0.09908599016204138,-1.1195422746077628
1.0670251911369704,2.9265063018297255,-0.017186438227272713,0.08640594948270289,-1.0131810147853109
1.0638732249983545,2.9112676013980625,-0.015992152705527143,0.07400142348215706,-0.8976881254860878
1.060963884755833,2.898359557661429,-0.014632481426277488,0.06187272111399168,-0.7735947905633943
1.0583323506136326,2.8877306066871142,-0.013067877965303619,0.05001097335246374,-0.6418720905132439
1.0560229539206243,2.8793317354433547,-0.011241560908467918,0.03839819763448102,-0.503992179786127
1.054093520168122,2.8731176890838377,-0.00906826806523913,0.027012816676220876,-0.3618987121319568
1.0526232218973786,2.869045901162252,-0.006408555837325188,0.01584810881413746,-0.21781761679096065
1.0517311937022131,2.86706799494495,-0.002981214638100161,0.0049719566311315164,-0.07386440096427394
