x,y,v_x,v_y,omega
2.375,32.48,0.0,2.9743589743589745,-7.387755102040816
2.3733863682876057,31.892035927706242,-0.01613631712394446,2.9052817485785614,-6.928204784672929
2.3687765937631413,31.317603421487114,-0.029961428120696194,2.839043313612726,-6.5113955324175725
2.3616010796407796,30.75615453007419,-0.04179371310292233,2.7754456005164894,-6.132128655663621
2.352231372928674,30.207178871963556,-0.05190335401813579,2.714310980589871,-5.785962040123172
2.340988983979663,29.67019984075142,-0.06052053547197127,2.6554793315315126,-5.469082822381671
2.328152723656729,29.144771343236744,-0.06784206775737163,2.5988056436152225,-5.178204451217795
2.313964839313945,28.630474974109582,-0.07403677567046787,2.544158047656409,-4.910482872673353
2.298636170508566,28.12691755176831,-0.0792499123833193,2.491416175756297,-4.663447844718457
2.2823504996292714,27.633728955479842,-0.08360679640962884,2.4404697871283862,-4.434946317452211
2.2652682375286517,27.150560216064605,-0.08721582459656534,2.3912176070240023,-4.223095505515203
2.2475295570267533,26.677081821515287,-0.0901709804224219,2.3435663384691616,-4.026243798170486
2.229257065837505,26.212982206137227,-0.09255393147006158,2.2974298153114403,-3.8429380461858513
2.2105580936353726,25.757966397432547,-0.0944357905512593,2.2527282717353607,-3.6718960662376317
2.1915266545796777,25.311754799409442,-0.09587860000569202,2.2093877084956572,-3.5119834366206764
2.172245135872358,24.874082094555757,-0.09693658706750224,2.1673393400412064,-3.3621938396124555
2.1527857542586655,24.444696249576644,-0.09765722906942693,2.1265191097499487,-3.221632348334667
2.1332118153472845,24.023357612313607,-0.09808216004438008,2.0868672628804075,-3.089501168559086
2.1135788048881965,23.609838089152955,-0.0982479445464997,2.0483279687261007,-2.9650874354535897
2.093935336441707,23.203920393785083,-0.09818673991839587,2.0108489849525966,-2.84775273690099
2.0743239759969,22.805397359460716,-0.09792686452967733,1.9743813582910845,-2.736924092646461
2.05478196089253,22.414071307959254,-0.09749328651401683,1.938879156723562,-2.632086165118798
2.0353418277319095,22.02975346937955,-0.096908045092193,1.9042992290734557,-2.5327745156206882
2.016031961765314,21.652263447617173,-0.0961906145737592,1.8706009885503516,-2.4385697504720296
1.996877078358726,21.281428727030317,-0.0953582194921218,1.8377462173181862,-2.349092427005557
1.9778986456117469,20.91708421633992,-0.09442610797766995,1.8056988895857917,-2.2639986101446365
1.9591152558783282,20.559071826273836,-0.09340778935651574,1.7744250110750215,-2.1829759874985726
1.9405429528391829,20.207240077864448,-0.09231524103493619,1.743892473018897,-2.105740465173173
1.9221955198399838,19.861443738653417,-0.09115908895705434,1.7140709190913956,-2.032033178357512
1.9040847344164993,19.521543484356233,-0.08994876527779357,1.6849316238804546,-1.9616178606475518
1.886220593253498,19.187405583798835,-0.08869264635221855,1.656447381693499,-1.8942785243541975
1.8686115112494925,18.85890160516589,-0.08739817368783682,1.6285924046359688,-1.8298174110008758
1.8512644978683612,18.53590814179905,-0.08607196012347394,1.6013422290324189,-1.768053177073705
1.8341853135385269,18.218306555958762,-0.08471988317486907,1.5746736293705028,-1.7088192850330841
1.8173786084997134,17.90598273911736,-0.083347167213266,1.5485645390434974,-1.651962573782062
1.800848046187301,17.598826887488066,-0.08195845591085772,1.5229939772494323,-1.5973419863396998
1.7845964129772884,17.296733291615485,-0.08055787618927018,1.4979419814763744,-1.544827435490089
1.7686257158844825,16.999600138961284,-0.0791490947387897,1.4733895450656243,-1.4942987907549792
1.7529534534490394,16.707334497356694,-0.07757352961564104,1.4492668709802947,-1.440940334776008
1.7375945769250793,16.419846659542213,-0.07601523562395768,1.425611507164516,-1.3900020112901184
1.7225454811006398,16.137044831831652,-0.07447572262043962,1.4024067699411036,-1.341345458175845
1.7078022835448836,15.858840480655626,-0.07295625293712253,1.3796367418191509,-1.2948417268120345
1.6933608712141557,15.585148183781854,-0.07145787037015724,1.3572862269185886,-1.2503705394572895
1.67921694158955,15.315885490139088,-0.06998142587589913,1.3353407095090548,-1.2078196130709997
1.6653660389659692,15.05097278764745,-0.06852760035990929,1.3137863154073512,-1.167084042939646
1.651803586440277,14.790333178506515,-0.06709692489701394,1.2926097760019821,-1.1280657402030245
1.6385249140826466,14.53389236143683,-0.06568979867928876,1.2717983946948739,-1.0906729180180552
1.6255252837194296,14.281578520410374,-0.06430650495288014,1.2513400155696817,-1.0548196216643964
1.6127999107068198,14.033322219442066,-0.06294722517321728,1.231222994113387,-1.0204252983960165
1.6003439830314194,13.789056303047388,-0.061612051580787246,1.2114361698333949,-0.9874144032846972
1.5881526780357702,13.548715802001421,-0.06030099837570525,1.1919688406262785,-0.9557160376924448
1.5762211770333638,13.312237844062107,-0.05901401164835833,1.172810738766855,-0.9252636173563312
1.564544678048024,13.079561569345664,-0.05775097820503785,1.1539520083975765,-0.8959945673768286
1.5531184068863835,12.850628050065065,-0.056511733411368205,1.1353831844084203,-0.8678500416740118
1.5419376267290275,12.625380214363556,-0.05529606816219185,1.1170951726066738,-0.8407746647191993
1.5309976464053947,12.403762773994455,-0.054103735074134414,1.0990792310843558,-0.8147162935662849
1.5202938274993685,12.185722155616162,-0.05293445398612907,1.0813269526985723,-0.7896257984003151
1.5098215904164016,11.971206435487609,-0.051787916843538444,1.0638302485869602,-0.7654568599935079
1.4995764195287467,11.760165277364251,-0.05066379203301212,1.0465813326466091,-0.7421657826133035
1.489553867502674,11.552549873408541,-0.049561728227715374,1.02957270691051,-0.7197113210652514
1.4797495589003087,11.348312887941415,-0.04848135779593826,1.0127971477607476,-0.698054520677427
1.4701591931386913,11.147408403873104,-0.04742229982023492,0.9962476929223514,-0.6771585691442301
1.4607878896469964,10.949973221125976,-0.04629073509671342,0.9781041345489139,-0.6932912577075822
1.4516379421121983,10.756155042498637,-0.04520874025126726,0.9600776517244585,-0.7113525647175155
1.4426995507993956,10.565930776059659,-0.04417517287676114,0.9421650126653269,-0.731221146753077
1.433963149599141,10.379277963013894,-0.04318883912578487,0.9243631177923083,-0.7527787309177638
1.4254194157165296,10.19617475177619,-0.04224849970032853,0.9066689945847343,-0.7759098417509854
1.417059278216596,10.016599873028156,-0.041352875299008836,0.8890797928956287,-0.800501535988018
1.4088739255306042,9.840532615667414,-0.04050065156090804,0.871592780711778,-0.8264431440399757
1.4008548120203563,9.667952803561679,-0.039690483541570315,0.8542053403455783,-0.8536260170909854
1.3929936636908606,9.498840773022273,-0.03892099975338594,0.8369149650484775,-0.8819432787273784
1.3852824831355766,9.333177350913545,-0.03819080579945601,0.8197192560388155,-0.9112895800233539
1.3777135537929266,9.170943833315675,-0.03749848762704409,0.8026159199398867,-0.9415608570092
1.370279443587836,9.01212196465897,-0.036842614423862385,0.7856027666271693,-0.9726540894416522
1.3629730080276814,8.856693917247565,-0.0362217411776843,0.7686777074868969,-1.0044670597811522
1.3557873928182032,8.704642271089718,-0.03563441091709917,0.751838754091561,-1.036898111257352
1.3487160360616328,8.555949993950406,-0.035079156648604705,0.7350840173015519,-1.0698459038718573
1.3417526700965081,8.410600421539648,-0.03455450300264332,0.7184117068060417,-1.1032091671454738
1.3348913230363832,8.268577237747,-0.03405896759860602,0.7018201311204283,-1.1368864483656256
1.3281263200629,8.129864454828727,-0.033591062136224474,0.6853076980622799,-1.1707758550275682
1.3214522845274654,7.99444639344922,-0.03314929321812247,0.6688729157327973,-1.2047747900899084
1.3148641389150961,7.862307662472293,-0.0327321629055713,0.6525143940364512,-1.2387796785800735
1.308357105723873,7.733433138390875,-0.0323381690066599,0.6362308467777336,-1.2726856839880603
1.3019267083138955,7.607807944275002,-0.03196580509311485,0.6200210943810086,-1.3063864127763474
1.2955687717806987,7.485417428108164,-0.03161356023885133,0.6038840672873667,-1.3397736052096572
1.2892794239098173,7.3662471403702945,-0.031279918469962746,0.5878188100913287,-1.3727368105698106
1.2830550962715992,7.250282810712125,-0.030963357912218905,0.571824486490365,-1.4051630446680135
1.2768925255185581,7.137510323549922,-0.03066234961819059,0.5559003851316549,-1.4369364273996903
1.2707887549515597,7.027915692391403,-0.030375356051794415,0.5400459264535284,-1.4679377979062387
1.264741136426051,6.921485032682671,-0.030100829203293045,0.5242606706337878,-1.4980443047155176
1.25874733267547,6.818204532941909,-0.029837208302517727,0.5085443267738511,-1.5271289680315938
1.2528053201359963,6.718060423917862,-0.029582917092217845,0.49289676346661565,-1.555060211139312
1.246913392365086,6.621038945479466,-0.029336360616885864,0.4773180209173353,-1.5817013576885293
1.2410701641558937,6.527126310906645,-0.02909592147503614,0.46180832481085615,-1.6069100914383703
1.2352745764609312,6.436308668211019,-0.028859955474587466,0.4463681021454139,-1.6305378748913513
1.2295259022513194,6.348572058068186,-0.028626786621531123,0.4309979992829075,-1.6524293231567289
1.2238237534530436,6.263902367890093,-0.028394701361227726,0.4156989024980132,-1.6724215293895357
1.2181680891190043,6.1822852815059655,-0.02816194197916459,0.40047196134325613,-1.6903433383106325
1.2125592250157466,6.103706223853308,-0.02792669905341172,0.38531861518332566,-1.7060145647012313
1.2069978448270282,6.028150300006189,-0.027687102833772202,0.37024062328787066,-1.7192451544933862
1.2014850132034585,5.955602227786905,-0.027441213401924625,0.3552400989049657,-1.7298342873037231
1.1960221909191133,5.886046263120118,-0.027187009441526164,0.34031954776289114,-1.737569421206028
1.190611252433407,5.819466117197962,-0.026922375415538744,0.32548191145866867,-1.7422252835297014
1.1852545062011213,5.755844864434412,-0.026645086907317875,0.31073061617683023,-1.7435628159625214
1.1799547181275676,5.695164840104319,-0.026352793828218552,0.29606962712411217,-1.7413280888798255
1.1747151386326107,5.637407526497984,-0.02604300112134943,0.28150350893923587,-1.7352512095496953
1.169539533871594,5.582553426393805,-0.025713046488817646,0.2670374921025566,-1.7250452630060047
1.1644322217704286,5.53058192268659,-0.025360074522835712,0.2526775449695964,-1.7104053448394323
1.15939811367767,5.481471123149802,-0.0249810064047498,0.23843045039829536,-1.6910077746415944
1.1544427626360958,5.435197689619574,-0.024572504010992566,0.22430388490399797,-1.6665096212000163
1.1495724195582027,5.391736651461979,-0.02413092676793968,0.21030649667193574,-1.6365487312120242
1.1447940989987162,5.351061204163116,-0.023652278826925874,0.19644797631668412,-1.6007445398250417
1.1401156568237867,5.313142495468643,-0.02313214292237033,0.18273911062804177,-1.5587000640200814
1.1355458829949165,5.277949403987584,-0.02256559536633039,0.1691918041825364,-1.510005652241484
1.1310946140983777,5.245448318968567,-0.021947093599058335,0.1558190460076519,-1.4542453022329958
1.1267728724499857,5.215602935587416,-0.021270322884861522,0.14263478780384806,-1.3910066810314972
1.12259304205546,5.18837408819239,-0.020527981060394905,0.12965368614640413,-1.3198963973806195
1.1185690971409392,5.163719655160296,-0.019711468084811605,0.11689064417454477,-1.2405625737396329
1.11471690752485,5.141594583567354,-0.018810428076079903,0.10436007175486166,-1.1527272630517291
1.1110546585173153,5.1219510987582595,-0.0178120619992666,0.09207477633607247,-1.0562315247241576
1.1076034439170277,5.1047391789600525,-0.016700084003610713,0.08004442164601332,-0.9510954816343036
1.104388123026051,5.089907377516003,-0.015453124906155911,0.06827359279447213,-0.8375933650793442
1.1014385833224334,5.077404041883884,-0.014042272130021467,0.05675976352671491,-0.716337664789665
1.0987916352167006,5.0671788662993045,-0.012427208927305125,0.04549199231907117,-0.5883549933630121
1.0964939327450116,5.0591844537733905,-0.010549815789584622,0.03445213294007991,-0.455118892228818
1.0946067468725507,5.053377031450001,-0.00832204293502405,0.023622090293822305,-0.3184875111136367
1.0932149328204572,5.049714266564084,-0.00559609758590959,0.013005558565339909,-0.18049174583612657
1.0924503174870845,5.048143354701157,-0.002050055747817285,0.0027035600639366223,-0.04295912434572652
