x,y,v_x,v_y,omega
2.375,32.48,0.0,3.3846153846153846,-6.040816326530612
2.3734593240075688,31.81166657221673,-0.015406759924310554,3.2987188932173015,-5.619061575098664
2.3690837151237814,31.160122197855145,-0.028349328913563624,3.21672485039854,-5.241658192373694
2.362328044248391,30.524615086271904,-0.03920737984034024,3.138346265433843,-4.902582709359254
2.3535776075092314,29.90444784653945,-0.04829698755125782,3.063326131890707,-4.596779077734478
2.3431596683907507,29.298971917067927,-0.05588240363354669,2.991433162824533,-4.319981351004479
2.3313528863074406,28.707582769709155,-0.06218541719955537,2.9224583107631585,-4.068572806298539
2.3183950596316594,28.129715748962372,-0.06739284955825615,2.856211896704686,-3.839473196915172
2.304489515362111,27.564842437521854,-0.07166259313722956,2.7925212177005045,-3.6300479132284367
2.2898104054916386,27.01246746225295,-0.07512850556749312,2.7312285349885563,-3.438034343065852
2.2745071152447838,26.472125671946266,-0.07790439690105394,2.6721893680782474,-3.261481833778036
2.258707946178796,25.94337963140319,-0.08008729375882462,2.615271037352517,-3.098702483181917
2.2425232044506154,25.425817386620828,-0.08176012352298262,2.560351410471113,-2.948230605365026
2.22604779901556,24.91905046383472,-0.08299393082757271,2.5073178173899917,-2.808789185847833
2.2093634344346804,24.422712071492562,-0.08384971498122047,2.4560661060315896,-2.679261998348872
2.1925404670635014,23.936455479272702,-0.08437995873057243,2.406499816166991,-2.558670330709186
2.1756394807297625,23.45995255232166,-0.08462990460681438,2.358529453343431,-2.4461534809331615
2.15871262786783,22.99289242218478,-0.08463862401251052,2.3120718480253823,-2.340952350818509
2.1418047739187145,22.534980278607804,-0.08443991547864736,2.267049587744349,-2.242395595385358
2.124954476209664,22.08593626861938,-0.08406306161185699,2.223390512139899,-2.149887889554114
2.108194823173252,21.64549449116069,-0.08353346875226088,2.1810272624470164,-2.0628999554886427
2.0915541554016177,21.213402077082424,-0.08287320896408436,2.139896878335633,-1.9809600594297148
2.0750566864604427,20.78941834563813,-0.08210148044766373,2.099940436107312,-1.9036467392887735
2.0587230384546165,20.373314029711928,-0.08123499961059806,2.0611027231547014,-1.8305825665138196
2.042570704920909,19.96487056296322,-0.08028833572647733,2.0233319443323627,-1.761428779908958
2.0266144516250724,19.56387942287955,-0.0792741972318885,1.9865794565043575,-1.6958806568424614
2.0108666641838724,19.170141524424213,-0.07820367718011266,1.950799528048984,-1.6336635099078314
1.9953376500543356,18.78346665956596,-0.07708646411525462,1.9159491205335328,-1.5745292156229844
1.9800359012828257,18.403672978498914,-0.07593102359984373,1.881987690136942,-1.518253196964477
1.9649683234448825,18.030586508814437,-0.07474475477958971,1.8488770067078395,-1.464631794070575
1.9501404354002263,17.664040709282723,-0.07353412566697198,1.8165809886092716,-1.4134799678132794
1.9355565438091833,17.303876055249084,-0.0723047902434584,1.7850655517271594,-1.3646292895381014
1.9212198957851871,16.949939652955017,-0.07106168999650352,1.7542984712134915,-1.3179261774246105
1.907132812575095,16.602084880363414,-0.06980914210441559,1.7242492547025356,-1.2732303458907204
1.893296806750112,16.260171052304848,-0.06855091614541692,1.6948890258831308,-1.2304134394595634
1.8797126850430548,15.924063107972952,-0.06729030092515334,1.6661904174358473,-1.189357826700069
1.8663806386725308,15.593631318984034,-0.06603016278008741,1.6381274724533206,-1.149955533379639
1.8533003227430305,15.268751016382925,-0.06477299651491719,1.6106755535577557,-1.1121072969427663
1.840470926095131,14.949302335125807,-0.06352096996407584,1.5838112590134301,-1.0757217269456885
1.8278912327961943,14.635169974703896,-0.06227596302529227,1.5575123452056767,-1.0407145582102486
1.81555967630438,14.32624297469106,-0.0610396018928511,1.531757654922677,-1.007007985272684
1.8034743872034897,14.022414504105427,-0.059813289116049086,1.5065270509336521,-0.9745300682467748
1.791633235289737,13.723581663571292,-0.05859823002147917,1.4818013544076891,-0.9432142015384775
1.7800463520973093,13.429647707239258,-0.05727060190279788,1.4575382089126487,-0.909462936969026
1.7687223167293042,13.140519308592893,-0.05596975177725298,1.433745777551012,-0.8772446034341803
1.7576557689514136,12.856103998716506,-0.054695726001653046,1.4104073212128605,-0.8464714911710681
1.7468413489646912,12.576312580296378,-0.05344847386557166,1.387506862988427,-0.8170618608812377
1.73627371541845,12.301058979550017,-0.052227861596840806,1.3650291444751887,-0.7889394726936532
1.7259475607961858,12.030260106595556,-0.05103368462579994,1.3429595850694378,-0.7620331572493957
1.715857624501234,11.763835723688114,-0.04986567832371843,1.321284244004993,-0.7362764247067286
1.705998703928538,11.501708320795291,-0.04872352740324199,1.2999897849232425,-0.7116071079267139
1.6963656637737294,11.243802998025163,-0.047606874144842805,1.2790634427780432,-0.6879670365058126
1.6869534437999896,10.990047354457719,-0.04651532559255671,1.2584929928963873,-0.665301738680033
1.6777570652563014,10.740371382964941,-0.04544845984432534,1.2382667220313994,-0.6435601684413688
1.668771636117204,10.494707370635968,-0.044405831546648164,1.2183734012583471,-0.622694455486807
1.6599923552935727,10.252989804452422,-0.04338697668966462,1.1988022605770947,-0.6026596758676775
1.6514145159459108,10.015155281885118,-0.04239141678695493,1.179542965095952,-0.5834136414265341
1.643033508015812,9.78114242610729,-0.04141866251403105,1.160585592682305,-0.5649167063035508
1.6348448200773606,9.550891805541575,-0.04046821687048408,1.14192061297487,-0.5471315889675676
1.6268440405980236,9.32434585747799,-0.03953957792288724,1.1235388676609896,-0.5300232083810331
1.6190268586878678,9.101448815518872,-0.03863224117867199,1.1054315519301863,-0.5135585330454383
1.6113890644064832,8.882146640623624,-0.037745701635172206,1.0875901970222754,-0.49770644179637613
1.6039265486886907,8.666386955541917,-0.036879455542753375,1.0700066537947923,-0.4824375953268326
1.5966353029427838,8.454118982438402,-0.036033001916316185,1.0526730772403707,-0.4677243175152257
1.5895114183686119,8.245293483525359,-0.035205843825401734,1.0355819118900753,-0.45354048572237166
1.582551085037116,8.039862704531991,-0.03439748948955787,1.0187258780435884,-0.4398614293001439
1.5757505907679112,7.83778032085047,-0.033607453202489646,1.002097958771635,-0.4266638356251097
1.5691063198370865,7.639001386209294,-0.032835256105757674,0.9856913876401241,-0.4139256630337814
1.5626215083380932,7.443663548793339,-0.03201285888417487,0.9676869865194389,-0.43788704963753067
1.556296652571777,7.251915453551014,-0.031235698778987662,0.949793965903804,-0.463530056402261
1.550122814900133,7.0637351246818305,-0.03050267793745234,0.9320093227880347,-0.4907436913513175
1.5440912817047787,6.879101175131559,-0.029812654016089925,0.9143301727146652,-0.519419503030391
1.5381935717558797,6.697992783315865,-0.029164445472901507,0.896753745442287,-0.5494513356754119
1.5324214435714933,6.520389670669822,-0.028556836370960716,0.8792773810181526,-0.5807350900560916
1.5267669018616241,6.346272079943649,-0.027988580727731145,0.8618985262435777,-0.6131684889903296
1.5212222031447307,6.175620754166957,-0.027458406441202683,0.8446147315233523,-0.6466508465350442
1.515779860618525,6.0084169162053165,-0.026965018820855717,0.8274236480930669,-0.6810828398619319
1.5104326483615873,5.844642248833907,-0.026507103748520548,0.8103230256210187,-0.716366282822104
1.5051736049375977,5.6842788752533835,-0.026083330491376695,0.7933107101842112,-0.7524039001912728
1.499996036469799,5.52730933997287,-0.025692354186608674,0.7763846426209344,-0.7890991015668607
1.4948935192496806,5.37371658998422,-0.025332818014576906,0.7595428572655619,-0.8263557538597301
1.489859901940748,5.223483956150208,-0.02500335507475002,0.7427834810745627,-0.8640779512856878
1.4848893074356675,5.076595134727114,-0.02470258997605255,0.7261047331563575,-0.9021697817149602
1.479976134422994,4.933034168939319,-0.024429140150683665,0.7095049247216011,-0.940535088180813
1.4751150587181425,4.792785430519675,-0.024181616897830556,0.6929824594748215,-0.9790772242806375
1.4703010344122591,4.655833601124879,-0.023958626161004977,0.6765358344731516,-1.0176988021233184
1.4655292948921645,4.52216365352924,-0.023758769039942222,0.6601636414832525,-1.0563014313845864
1.4607953537846619,4.3917608324935635,-0.023580642035084084,0.6438645688735316,-1.0947854479263242
1.4560950058791948,4.264610635197659,-0.023422837019584572,0.6276374040855247,-1.13304963031536
1.4514243280841876,4.140698791115511,-0.02328394093048843,0.6114810367359638,-1.1709909024410181
1.4467796804744195,4.02001124120094,-0.02316253516719301,0.5953944624097397,-1.2085040202774824
1.442157707489554,3.9025341162385807,-0.02305719468146391,0.5793767872138594,-1.2454812406658486
1.4375553393474996,3.788253714199815,-0.022966486739077842,0.5634272331737822,-1.2818119698007004
1.4329697937407369,3.677156476425793,-0.022888969328550193,0.5475451445664231,-1.3173823888966594
1.4283985778891521,3.569228962439265,-0.022823189187297928,0.5317299952988719,-1.3520750542816269
1.4238394910294312,3.4644578231634995,-0.022767679409910972,0.5159813974587751,-1.3857684689162875
1.4192906274287536,3.362829772299456,-0.022720956596863986,0.5002991111816699,-1.4183366220761229
1.4147503800195782,3.2643315555810233,-0.022681517494889333,0.4846830560026607,-1.4496484936569598
1.4102174447628668,3.168949917592254,-0.022647835072226806,0.4691333238850453,-1.4795675192851645
1.405690825859352,3.0766715657890344,-0.022618353962919568,0.45365019414714775,-1.5079510121405426
1.4011698419426537,2.987483131320218,-0.02259148520406332,0.4382341505410156,-1.5346495371516102
1.3966541334044251,2.901371126188817,-0.022565600178221457,0.4228859007729959,-1.5595062330260183
1.3921436710206208,2.8183218962318612,-0.022539023659823788,0.40760639879657173,-1.5823560774733916
1.3876387660697462,2.738321569327006,-0.022510025848922893,0.3923968702519716,-1.6030250910222734
1.383140082159081,2.661355998154388,-0.022476813257729825,0.377258841474221,-1.6213294751127534
1.3786486490038818,2.587410696752972,-0.02243751829425885,0.36219417253994424,-1.6370746807859407
1.3741658784382271,2.5164707700119244,-0.02239018736228834,0.34720509487053397,-1.650054405470818
1.3696935829753585,2.4485208351298233,-0.0223327672663973,0.3322942539504744,-1.660049517348819
1.3652339972814054,2.3835449339601027,-0.022263089673134416,0.3174647577467292,-1.6668269099339288
1.360789802980944,2.321526435043875,-0.022178853331478874,0.30272023141553095,-1.6701382943872614
1.3563641572784864,2.2624479240186517,-0.0220776036930968,0.28806487883669507,-1.6697189444811547
1.3519607259603468,2.206291080995811,-0.02195670948829881,0.27350355139171184,-1.6652864201862914
1.3475837214419562,2.1530365434413845,-0.02181333569560647,0.2590418241525397,-1.656539312241698
1.3432379466550963,2.1026637531061176,-0.021644412172991238,0.24468607920013383,-1.6431560741992084
1.3389288457410762,2.0551507856826667,-0.02144659696721049,0.23044359503439177,-1.6247940438166713
1.3346625627508262,2.0104741621988715,-0.021216232935289778,0.2163226398035505,-1.6010888073753233
1.3304460098854285,1.9686086418062132,-0.0209492957186862,0.20233256412302447,-1.5716541357952754
1.3262869472962169,1.9295269967730952,-0.020641330173430915,0.1884838862081478,-1.5360828306524457
1.322194077192924,1.8931997724128706,-0.020287370859499682,0.1747883573940966,-1.4939489757287165
1.3181771561301936,1.8595950377584778,-0.0198818397678029,0.1612589891498238,-1.4448123148060643
1.3142471311016906,1.8286781375925365,-0.01941841051722796,0.14791001250960242,-1.3882257930945499
1.310416307868786,1.8004114636945339,-0.018889821811816886,0.13475672647041445,-1.3237477337443033
1.3066985644441946,1.7747542737755602,-0.01828761243409624,0.12181517271931068,-1.2509606890016332
1.3031096299039067,1.7516626014056378,-0.017601732968783486,0.10910155097992452,-1.1694996862131535
1.299667460412431,1.7310893195537496,-0.016819961945973162,0.09663126753896925,-1.0790932541500118
1.2963927631839336,1.7129844423373974,-0.01592701033900103,0.08441750462453951,-0.9796208871408898
1.2933097492148096,1.6972957671531859,-0.014903129352238304,0.07246924721757227,-0.8711895924089881
1.290447243710132,1.6839699541790907,-0.01372192569453687,0.06078888252338078,-0.7542280970320044
1.2878403619079444,1.6729540730317964,-0.0123468923273384,0.04936992894955062,-0.6295873430397955
1.2855331005326607,1.6641974451160095,-0.010725721425498628,0.03819635020830929,-0.49861734222784787
1.2835825170504647,1.6576531545374067,-0.008780113396460645,0.027246555577713744,-0.36316513308739123
1.2820661639864714,1.6532776241618876,-0.006383417243471041,0.01650874817748553,-0.22542018258781638
1.2810988790825932,1.6510237434899935,-0.003289431795310266,0.006030058541467084,-0.08754825287772344
