x,y,v_x,v_y,omega
2.375,32.48,0.0,2.6153846153846154,-6.163265306122449
2.373705652256857,31.936784739633936,-0.012327121363266285,2.5580940547683606,-5.806329140288278
2.36999662017373,31.405373594380844,-0.02299699371413194,2.5029644714515564,-5.4800693467432176
2.364198571826609,30.8853273124989,-0.032222514353686435,2.4498572607574225,-5.181022556278455
2.356595617474995,30.37623437946529,-0.04018657470930769,2.3986468633721816,-4.906193912233181
2.3474361125341625,29.87770845766214,-0.04704680567957082,2.349219058562579,-4.652983788842631
2.3369375529435867,29.389386154243116,-0.052939476135438264,2.3014695454281537,-4.419127546437069
2.3252907228384774,28.910925062810144,-0.05798271534179315,2.2553027539334995,-4.202645711842188
2.312663222643631,28.44200203535845,-0.06227919127579226,2.2106308408445106,-4.00180255656345
2.299202481033246,27.98231164932175,-0.06591834787073227,2.1673728356954816,-3.815071484935336
2.2850383348596495,27.531564841080485,-0.06897828235399467,2.1254539094594436,-3.6411059786053084
2.2702852458607423,27.089487682432146,-0.07152732715940686,2.084804744334258,-3.4787151001968675
2.2550442107662505,26.65582028059385,-0.07362538802622877,2.0453609874590213,-3.326842757557825
2.2394044116358125,26.230315785559025,-0.07532507988270584,2.007062774777429,-3.184550084973025
2.2234446453516066,25.812739491246464,-0.07667269425259048,1.9698543139136235,-3.0510004195813547
2.207234564755903,25.402868019000177,-0.0777090257064867,1.93368351700339,-2.925446447725891
2.1908357586643192,25.000488573728106,-0.07847007992764757,1.8985016760639504,-2.807219172858323
2.1743026936628764,24.60539826438847,-0.07898768199085344,1.8642631747897598,-2.6957184182616
2.157683537027636,24.21740348170649,-0.0792900002495329,1.8309252317052571,-2.5904046275481467
2.1410208771455377,23.83631932698062,-0.07940199862759184,1.7984476704458807,-2.4907917661600694
2.1243523553503265,23.461969086653752,-0.07934582799346755,1.7667927136195207,-2.396441159888794
2.1077112210274302,23.094183748011872,-0.07914116555792583,1.7359247972555223,-2.3069561332553317
2.0911268201139475,22.7328015519532,-0.07880550980857996,1.70581040330326,-2.2219773326288883
2.074625025666103,22.37766757926454,-0.07835443731374439,1.6764179080173098,-2.141178637138554
2.058228617939495,22.028633367263133,-0.07780182674919202,1.6477174443770426,-2.0642635754834666
2.0419576203887564,21.685556554024068,-0.07716005468641304,1.6196807769473958,-1.9909621792539993
2.025829597111652,21.34830054772513,-0.0764401670002959,1.592281187804401,-1.9210282138055994
2.0098599165123177,21.016734218910866,-0.07565202918383945,1.5654933723314648,-1.8542367364515961
1.9940619853182997,20.690731613712167,-0.07480445837823647,1.5392933438466203,-1.790381939062755
1.978447456538694,20.37017168626232,-0.0739053395227708,1.5136583461519069,-1.7292752383235324
1.9630264144815968,20.05493804872956,-0.07296172768767784,1.4885667732077146,-1.6707435820961192
1.947829433956139,19.744924332567123,-0.07177142017382447,1.4639448092916914,-1.6088636561482457
1.9328834794741752,19.440028032090126,-0.07057100346392758,1.4398294809654129,-1.5499202261830183
1.9181902772916675,19.140144728022584,-0.0693642554170962,1.4162019863445312,-1.493738176832893
1.9037508082121137,18.845173854433938,-0.0681544977215111,1.3930444287854191,-1.4401548233635595
1.8895653981220808,18.555018514436547,-0.06694464599308907,1.3703397616659396,-1.3890188890084878
1.8756337985961178,18.269585307052377,-0.0657372542541782,1.3480717372309117,-1.3401895777272912
1.861955258681573,17.988784164432495,-0.06453455445576953,1.326224859148936,-1.293535732444048
1.8485285888432514,17.712528198683252,-0.06333849162348541,1.3047843384628652,-1.2489350699653476
1.8353522179335577,17.440733557616646,-0.062150755135502535,1.283736052647707,-1.2062734847776144
1.8224242439536396,17.173319288799277,-0.06097280657800396,1.2630665075176952,-1.1654444147988403
1.8097424792831638,16.910207211326266,-0.0598059045693856,1.2427628017490844,-1.1263482629280062
1.79730449097918,16.651321794792842,-0.05865112689712428,1.2228125938073295,-1.0888918689104692
1.7851076366766345,16.396590044978932,-0.05750939026997574,1.2032040710870258,-1.0529880266317153
1.7731490965633083,16.145941395800282,-0.0563814679521801,1.1839259210906052,-1.0185550424756276
1.7614259018492648,15.899307607114576,-0.055268005514900936,1.1649673044875617,-0.9855163308458451
1.749934960104377,15.656622668002818,-0.05416953491260322,1.1463178299101227,-0.953800043357672
1.7386730777964172,15.417822705175087,-0.05308648706796541,1.1279675303539936,-0.9233387285700582
1.7276369803258649,15.182845896176172,-0.05201920312777163,1.1099068410642388,-0.89406901944824
1.7168233298214148,14.951632387090775,-0.050967944533657876,1.092126578796663,-0.8659313460327146
1.7062287409316788,14.724124214469917,-0.04993290203525747,1.0746179223543577,-0.8388696710437098
1.6958497948232902,14.500265231220425,-0.04891420375891922,1.0573723943074822,-0.8128312463759958
1.6856830515731902,14.280001036217882,-0.047911922432508976,1.0403818438119534,-0.7877663886400673
1.675725061122935,14.063278907420418,-0.04692608185563616,1.0236384304496111,-0.7636282720852912
1.6659723729451408,13.850047738276249,-0.045956662694785516,1.0071346090186801,-0.7403727374010827
1.6564215445564057,13.640257977232338,-0.045003607674118845,0.9908631152090344,-0.7179581150357418
1.6470773918633048,13.434012490185356,-0.043988322736367186,0.9733796185717446,-0.7251129771671445
1.6379422682254496,13.23142588488178,-0.04301285476701514,0.9560166224146828,-0.734458231572982
1.6290078583940275,13.032473218064045,-0.04207676267509821,0.9387706806113782,-0.7458693870776792
1.6202659492326872,12.837130255301744,-0.04117951505195314,0.9216384885533737,-0.759225576900154
1.6117084477967054,12.645373441916934,-0.040320498624063554,0.9046168770162503,-0.7744092796365967
1.6033273977098095,12.457179875146458,-0.03949902601304072,0.8877028065120903,-0.7913060503415839
1.5951149939788638,12.27252727744158,-0.038714342853108354,0.870893362105796,-0.8098042605838333
1.5870635963764963,12.09139397080953,-0.03796563431229755,0.8541857486756192,-0.8297948463950946
1.579165741512439,11.913758852105477,-0.037252031059675825,0.8375772866010951,-0.8511710630652605
1.5714141537058564,11.739601369186605,-0.036572614717301735,0.8210654078643498,-0.873828245763997
1.56380175476316,11.568901497842734,-0.03592642283218652,0.8046476525534833,-0.8976635749891979
1.5563216727587457,11.401639719419876,-0.03531245340032992,0.7883216657594619,-0.9225758458554445
1.5489672499096665,11.237796999054758,-0.03472966897185363,0.7720851948607038,-0.9484652402414113
1.541732049629469,11.077354764439189,-0.03417700036335916,0.7559360871923478,-0.975233100813753
1.5346098628412257,10.920294885033481,-0.033653350000863516,0.739872288100096,-1.0027817059362987
1.5275947136251657,10.766599651647908,-0.03315759491399345,0.723891839381539,-1.0310140444571883
1.5206808642722465,10.616251756310135,-0.03268858939952437,0.7079928781210678,-1.059833589342641
1.5138628198114663,10.469234272334997,-0.03224516736981089,0.6921736359278741,-1.0891440690940262
1.5071353320757255,10.3255306345106,-0.03182614439914904,0.6764324385902041,-1.1188492358444244
1.5004934033685604,10.185124619311512,-0.03143031947861216,0.6607677061630073,-1.1488526289814665
1.4939322897921303,10.048000325045798,-0.031056476487388535,0.6451779535104722,-1.1790573330844278
1.4874475042954147,9.914142151837577,-0.030703385386093584,0.6296617913297432,-1.2093657288947903
1.48103481950071,9.783534781340773,-0.030369803134905074,0.6142179276874286,-1.2396792359601951
1.4746902703661968,9.656163156072417,-0.030054474336647544,0.5988451701064503,-1.2698980455013515
1.4684101567426284,9.532012458245259,-0.02975613160210002,0.5835424282474251,-1.299920841949496
1.4621910458830705,9.411068087969475,-0.029473495631784776,0.5683087172362389,-1.3296445114880222
1.456029774966179,9.293315640681392,-0.02920527500527638,0.5531431616978966,-1.3589638358056446
1.4499234536957362,9.178740883643659,-0.028950165665607555,0.538045000566237,-1.387771169130006
1.443869467042175,9.067329731345467,-0.028706850082594625,0.523013592749866,-1.4159560964604605
1.4378654781956477,8.959068219613314,-0.028473996074807488,0.5080484237468335,-1.443405070758064
1.4319094318049252,8.853942478221889,-0.028250255265407316,0.49314911331436545,-1.470001026681776
1.425999557582137,8.75193870177075,-0.028034261142100097,0.478315424315534,-1.4956229682861468
1.420134374360194,8.653043118564977,-0.02782462668592572,0.46354727288231257,-1.5201455279230764
1.4143126946977922,8.557241957206642,-0.027619941527425102,0.4488447400541993,-1.543438493427272
1.4085336301363247,8.46452141056822,-0.02741876858178782,0.4342080850736374,-1.5653663005246916
1.4027965972240295,8.37486759677838,-0.02721964010673919,0.41963776054390955,-1.5857874873043847
1.3971013244354316,8.288266516804661,-0.027021053118001948,0.40513442968198,-1.6045541075639158
1.3914478601289133,8.204704008165649,-0.02682146408693542,0.3906989859276723,-1.621511099916008
1.3858365817023084,8.124165694247136,-0.026619282833111556,0.37633257520103386,-1.6364956097848034
1.380268206126206,8.046636928632307,-0.02641286551071957,0.3620366211306844,-1.6493362619033234
1.3747438020576022,7.972102733785004,-0.02620050657122197,0.34781285360553965,-1.6598523817616062
1.3692648037633213,7.900547733348535,-0.025980429564787424,0.33366334102751166,-1.667853165806764
1.363833027114077,7.831956077241472,-0.025750776618490453,0.3195905266588207,-1.6731368022875037
1.3584506879473148,7.766311358649318,-0.02550959639829246,0.30559726945692134,-1.675489547786482
1.353120423141718,7.703596521931406,-0.025254830321678263,0.2916868897612831,-1.6746847691483284
1.3478453148008356,7.643793760393663,-0.024984296734343703,0.27786322012196274,-1.670481967334237
1.3426289180111688,7.5868844028324,-0.02469567269105365,0.26413066141386854,-1.6626258096321727
1.337475292726457,7.532848787750954,-0.024386472877630468,0.2504942441237256,-1.6508452109274654
1.3323890404427823,7.481666124219512,-0.02405402506212924,0.23695969427095478,-1.6348525252412014
1.3273753464806899,7.433314338532991,-0.023695441243512545,0.22353350274352105,-1.614342938092581
1.322440028899877,7.387769906189003,-0.023307583335658053,0.2102229957706475,-1.5889941921272772
1.3175895953690682,7.345007669356232,-0.022887021719663996,0.19703640263670505,-1.5584668380313105
1.3128313097457833,7.3050006410767025,-0.022429984216382263,0.1839829143111824,-1.522405287106675
1.308173270762898,7.267719799150505,-0.021932291811098344,0.17107272308116,-1.4804400605120527
1.3036245061906813,7.233133875279361,-0.02138927554334511,0.15831702807261194,-1.4321917951987382
1.2991950873345093,7.201209148990905,-0.020795665944006357,0.14572798419839794,-1.3772777921660257
1.29489627104144,7.171909261633509,-0.020145441609035225,0.13331856206252593,-1.315322192211641
1.2907406799992287,7.145195073897796,-0.019431615935834545,0.12110227351568088,-1.245971242460107
1.286742537761728,7.121024601379169,-0.01864592918321992,0.10909270285220238,-1.1689155501803845
1.2829179837661209,7.099353076641215,-0.01777839458446697,0.09730277084258376,-1.0839216156358698
1.2792855073432716,7.080133201623582,-0.016816618966478108,0.08574365789678787,-0.990875048365052
1.2758665609426667,7.063315666228448,-0.015744775324997993,0.07442334586640927,-0.8898371649539389
1.2726864455027849,7.048850005805001,-0.014542038388161429,0.06334484864262385,-0.7811141280860241
1.2697756123338202,7.0366858280774345,-0.013180182268645578,0.05250446304847378,-0.6653318516577433
1.2671716135247055,7.026774316258191,-0.011619806389589761,0.041890887610987186,-0.5434989896505408
1.2649221125023653,7.019069641563831,-0.0098040128707927,0.031486966620992485,-0.41702495702775677
1.2630898490697329,7.013529370109779,-0.007646115059039227,0.02127752341760957,-0.2876464716398992
1.2617621974857034,7.010111661248715,-0.004998185741240651,0.01127208478301053,-0.15721787067439175
1.26107755933259,7.008761318181957,-0.0015221776217433022,0.0015883253765989844,-0.027369083899108554
