x,y,v_x,v_y,omega
2.375,32.48,0.0,3.846153846153846,-2.2448979591836737
2.374327042608707,31.721492004333847,-0.006729573912933166,3.7389261105076383,-2.068726090179332
2.372429833675909,30.98389249063274,-0.012242515415042468,3.6370690265034527,-1.9135115392576862
2.3695304725112707,30.266168578538654,-0.016751096231340634,3.5401700944374084,-1.7760667300737918
2.3658125979046822,29.567365697588638,-0.020427649834544072,3.4478587150627265,-1.6537714941321884
2.3614285566588955,28.886599739722726,-0.02341276262332231,3.3598008635963907,-1.544459305795997
2.356505116236181,28.223050194838887,-0.025821641603824972,3.2756945852420194,-1.4463286708332077
2.3511480424468565,27.575954120192105,-0.027749096289421078,3.1952661612258013,-1.357873619378919
2.3454457868232508,26.944600821376333,-0.029273459946633273,3.118266826931907,-1.2778288211150697
2.3394724714690165,26.328327143863753,-0.03045969359571234,3.044469948193922,-1.2051259733917088
2.3332903164754395,25.726513291000586,-0.031361856340057094,2.973668580437738,-1.1388589397449045
2.3269516226981883,25.138579097981484,-0.03202508143245282,2.9056733497532834,-1.078255724776033
2.3205003980911916,24.563980702386193,-0.03248716463751753,2.840310606199623,-1.0226558228723794
2.313973696942992,24.00220756091576,-0.032779846844478024,2.777420808504694,-0.971491815823847
2.30740272682555,23.45277976942789,-0.032929854329938155,2.7168571063740186,-0.9242743485902127
2.3008137667935844,22.915245649561733,-0.03295974598971934,2.6584840922875648,-0.8805798051907413
2.294228931583717,22.38917957040807,-0.032888606108953895,2.6021766992490325,-0.8400401537355732
2.287666809674276,21.874179978014254,-0.0327326129854609,2.5478192246891234,-0.8023345425069559
2.2811429976408344,21.369867609166327,-0.03250550734895193,2.495304463790145,-0.7671823161697402
2.274670548948624,20.875883868984417,-0.03221897957315495,2.4445329380290013,-0.7343371888789991
2.26826035190923,20.39188935449809,-0.03188299082078087,2.3954122068342545,-0.7035823638932134
2.2619214488033013,19.917562508614402,-0.03150604023850908,2.347856252002618,-0.674726430762085
2.255661305985504,19.452598390815567,-0.0310953879394618,2.301784925985739,-0.6475999038491247
2.249486043028665,18.99670755257791,-0.030657241628925323,2.2571234563908518,-0.622052291847003
2.2434006275422878,18.54961500693082,-0.030196913234849042,2.2138020000799963,-0.5979496085528423
2.237409041147474,18.11105928280932,-0.029718950713289387,2.171755241135043,-0.5751722516426526
2.2315144211516094,17.680791555925154,-0.029227249245357568,2.130922027706615,-0.5536131894047815
2.2257191816994686,17.258574848813907,-0.0287251452760484,2.091245043405846,-0.5331764060463182
2.220025117549114,16.844183293528655,-0.028215496227495473,2.052670509446687,-0.5137755648056709
2.2144334931044405,16.43740145116221,-0.027700748219243815,2.0151479142177626,-0.49533285510398417
2.2089451189102967,16.038023683003566,-0.027182993722194484,1.978629767368671,-0.47777799567283413
2.2035604174638572,15.645853568682078,-0.02666402074219858,1.9430713758461986,-0.46104737026161224
2.1982794799037317,15.260703367135516,-0.026145354859056846,1.9084306396194322,-0.44508327635739475
2.193102114895307,14.88239351666395,-0.025628295225188443,1.874667865096231,-0.42983327050327347
2.188027890828174,14.510752170708049,-0.025113945446145525,1.8417455944627592,-0.41524959640584475
2.1830561722720563,14.145614766324002,-0.024603240115030532,1.809628449377698,-0.4012886841808939
2.1781861514956766,13.786823622623483,-0.024096967648766534,1.7782829876274826,-0.3879107108801734
2.1734168757336705,13.43422756671054,-0.023595789971295335,1.7476775715019488,-0.37507921393747073
2.1687472707862128,13.087681584881938,-0.023100259503280384,1.717782246784079,-0.3627607504221328
2.164176161451219,12.747046497066965,-0.022610833846657893,1.6885686313656552,-0.35092459603599724
2.1597022892172646,12.41218865266993,-0.02212788849288603,1.6600098126046825,-0.3395424786703433
2.1553243275845824,12.082979646146232,-0.021651727833936294,1.632080252632306,-0.3285883420816058
2.1510408953298605,11.759296050793186,-0.02118259471328067,1.6047557008981583,-0.3180381358715788
2.146850567986634,11.441019169371867,-0.020720678718984947,1.578013113315033,-0.3078696284888497
2.1427518877755953,11.128034800297602,-0.020266123391402074,1.5518305774276016,-0.2980622404190205
2.1387433721871605,10.820233018246178,-0.019819032492948266,1.526187243086637,-0.288596895114909
2.1348235213912377,10.517507968121446,-0.01937947546627986,1.5010632581606962,-0.2794558855451278
2.1309908246256852,10.219757671419153,-0.01894749218924407,1.4764397088622403,-0.2706227545191524
2.127247789212979,9.92688406845916,-0.018482861937815523,1.4522963207376847,-0.2609715786466758
2.1235964985099027,9.63879260824686,-0.018030045092949143,1.4286182813853183,-0.25175647454050976
2.1200346134380923,9.355391863692653,-0.01758880562515273,1.4053891641567466,-0.24295262370812565
2.116559843165433,9.076593619079393,-0.017158897101439193,1.382593281975843,-0.2345368876121472
2.1131699469226506,8.80231272632475,-0.01674006532638969,1.3602156455705738,-0.22648767589984678
2.1098627353296653,8.532466969317525,-0.01633205060346292,1.338241924501671,-0.21878482634508922
2.1066360713026113,8.266976935790218,-0.015934589667075505,1.3166584107714014,-0.21140949534184167
2.103487870602984,8.005765896231608,-0.015547417329199087,1.2954519848147041,-0.20434405791504073
2.100416102082226,7.748759689380925,-0.01517026787838217,1.2746100836921226,-0.19757201632622123
2.09741878766798,7.495886613879765,-0.014802876264072631,1.2541206713194624,-0.19107791644979563
2.0944940021320955,7.2470773256895065,-0.014444979094773863,1.2339722105831137,-0.18484727118290104
2.0916398726751364,7.0022647409109275,-0.01409631547481523,1.214153637202672,-0.17886649022873863
2.0888545783575276,6.761383943669262,-0.013756627701272305,1.1946543352139831,-0.17312281566156873
2.086136349403424,6.524372098752245,-0.013425661839762704,1.175464113956177,-0.16760426274207232
2.0834834663999073,6.291168368711055,-0.013103168195408646,1.1565731864557256,-0.16229956550558083
2.080894259411052,6.061713835154563,-0.012788901693145355,1.1379721491091797,-0.15719812669353142
2.078367107023765,5.835951423986238,-0.012482622179721077,1.1196519625740768,-0.1522899716411263
2.075900435339979,5.613825834350365,-0.012184094658141385,1.1016039337846588,-0.14756570577218736
2.073492716927772,5.395283471070343,-0.011893089463925243,1.0838196990155489,-0.14301647538613596
2.0711424697422465,5.18027238037654,-0.011609382391334792,1.066291207922486,-0.13863393145236558
2.0688482560254435,4.968742188734826,-0.011332754776691094,1.0490107084946465,-0.134410196154428
2.0666086811932773,4.760644044599555,-0.011062993544973303,1.0319707328580483,-0.13033783195077975
2.0644223927162697,4.555930562926342,-0.010799891225101107,1.0151640838740827,-0.12640981294065512
2.062288078999899,4.354555772290794,-0.010543245938604418,0.998583822481384,-0.1226194983432254
2.060206579812459,4.1566403448611595,-0.010271745935799199,0.980570451814949,-0.15163749515975763
2.0581763027163564,3.9623165830267233,-0.010031025025224372,0.9626671665294249,-0.18223982785397058
2.056191136570471,3.771562764359473,-0.009820636433631296,0.9448710201430657,-0.21432311426392855
2.054245066672855,3.5843577446317454,-0.009640062542529023,0.9271791771341961,-0.2477862494546709
2.0523321882663668,3.4006809360279675,-0.009488721522350455,0.9095889089035967,-0.2825301866201493
2.050446718773246,3.2205122861280344,-0.00936597340886007,0.8920975900957316,-0.31845772239921627
2.0485830088663475,3.043832257591564,-0.009271125660122585,0.8747026952689704,-0.355473285742606
2.0467355524774513,2.870621808473942,-0.009203438228841397,0.8574017959072471,-0.39348272946929025
2.044898995836412,2.7008623731064247,-0.00916212818155093,0.840192557767923,-0.43239312364568394
2.043068145628959,2.534535843473332,-0.009146373892980869,0.8230727385630017,-0.47211254990968066
2.041237976355573,2.3716245510197,-0.009155318840876175,0.8060401859733191,-0.5125498958431095
2.039403636969123,2.2121112488225734,-0.009188075023628383,0.7890928359979313,-0.5536146484705342
2.037560456864737,2.0559790940584115,-0.009243726020224764,0.7722287116436827,-0.59521668592888
2.0357039512917923,1.9032116306977542,-0.009321329709225834,0.7554459219628947,-0.6372660663106096
2.0338298262547987,1.7537927723564302,-0.009419920660711071,0.7387426614503341,-0.6796728126323986
2.031933982967492,1.6077067852299827,-0.009538512212359082,0.7221172098141245,-0.7223466928207054
2.0300125219224534,1.4649382710346543,-0.009676098238022058,0.7055679321391471,-0.7651969935343876
2.0280617466372233,1.3254721498741624,-0.00983165461428305,0.6890932794657795,-0.808132286561568
2.0260781671370434,1.1892936429464207,-0.010004140387514373,0.6726917898116462,-0.8510601864321268
2.024058503234207,1.056388254998307,-0.01019249864084877,0.6563620896694801,-0.89388709777721
2.021999687664403,0.9267417564293261,-0.01039565705719115,0.64010289602033,-0.9365179508415432
2.0198988691415947,0.8003401649364577,-0.010612528170892574,0.6239130189083378,-0.9788559234115622
2.0177534153948127,0.6771697265824983,-0.010842009296929427,0.6077913646312643,-1.0208021472606998
2.015560916252887,0.5572168961583657,-0.011082982122323561,0.5917369396100656,-1.0622553970308175
2.0133191868466507,0.4404683166962329,-0.011334311940040273,0.575748855011294,-1.1031117592638715
2.011026271002583,0.3269107979742927,-0.01159484650063952,0.5598263322081427,-1.143264279068639
2.0086804449073736,0.2165312938354944,-0.011863414451451126,0.5439687091798509,-1.1826025816520032
2.006280221129538,0.10931687812098545,-0.012138823326905426,0.5281754479652291,-1.221012465661574
2.0038243530921704,0.005254718994002872,-0.012419857046772634,0.5124461433046017,-1.2583754649755308
2.0013118401003602,-0.09566794859904348,-0.012705272871327583,0.49678053262589705,-1.2945683752368344
1.9987419330378549,-0.19346385261717103,-0.01299379775372429,0.4811785075553824,-1.3294627410642605
1.9961141408604848,-0.2881457160889198,-0.013284124019977877,0.4656401271621273,-1.3629242994865263
1.9934282380289146,-0.37972629212295317,-0.013574904295724905,0.45016563317821234,-1.3948123747464207
1.990684273040727,-0.46821840218822786,-0.013864745586149002,0.43475546747450444,-1.4249792192233346
1.9878825782420266,-0.5536349781471799,-0.014152202400856984,0.41941029211501324,-1.4532692948474932
1.9850237811220652,-0.6359891085948632,-0.014435768798755877,0.4041310123618245,-1.4795184890626318
1.9821088173213175,-0.7152940901368012,-0.014713869208721524,0.38891880305758997,-1.5035532591893455
1.9791389456144888,-0.7915634843298918,-0.014984847859564901,0.37377513887333524,-1.525189699029456
1.976115765165849,-0.8648111811147317,-0.015246956626834432,0.35870182897504954,-1.544232521852571
1.973041235395821,-0.935051469685348,-0.015498341073442973,0.34370105673108914,-1.5604739546977038
1.969917698846006,-1.0022991178734486,-0.01573702442470651,0.32877542514991465,-1.573692540468674
1.9667479074861087,-1.066569461268145,-0.01596088917426856,0.31392800879707955,-1.5836518469905456
1.9635350529724067,-1.1278785034458352,-0.01616765596275084,0.29916241297983515,-1.5900990865987308
1.9602828014459859,-1.1862430288425898,-0.01635485930145793,0.28448284098770427,-1.5927636567984416
1.9569953335536248,-1.2416807299520016,-0.016519819622152238,0.26989417010643296,-1.5913556233095214
1.9536773904904476,-1.2942103506557174,-0.01665961100961997,0.25540203693075636,-1.5855641832484582
1.9503343270096734,-1.3438518475597405,-0.01677102379812121,0.2410129321094841,-1.575056171031578
1.946972172534321,-1.390626571164809,-0.016850520955402848,0.22673430394122676,-1.5594747068619639
1.9435977017600083,-1.4345574684599,-0.01689418678772409,0.21257466900969563,-1.5384381433775307
1.9402185164922212,-1.4756693079619794,-0.016897665890146362,0.19854372601111386,-1.5115395490119685
1.9368431409740219,-1.5139889271270874,-0.01685608929184919,0.18465246563994883,-1.4783470897447504
1.9334811337291486,-1.5495455001117193,-0.016763983156882746,0.1709132642063975,-1.4384058527389096
1.9301432201364652,-1.5823708205941927,-0.01661515276995027,0.15733994061831336,-1.3912419218361984
1.9268414518459118,-1.6124995890757816,-0.016402530135583612,0.14394774419756617,-1.3363699004483052
1.923589402221677,-1.6399696857937087,-0.016117966106764754,0.13075322298166978,-1.273305623086717
1.9204024120667633,-1.664822397824942,-0.015751935442372317,0.11777389733067678,-1.2015865392411573
1.9172979083133468,-1.6871025507618924,-0.015293102091793187,0.10502763203882731,-1.1208031903386164
1.9142958324388788,-1.7068584706843666,-0.014727656652887744,0.09253156718592052,-1.0306462020272493
1.9114192388438362,-1.7241416726765735,-0.014038279297537875,0.08030045273616154,-0.9309738189249582
1.9086951624286377,-1.739006146377065,-0.013202484854446658,0.06834428426872383,-0.821904021328008
1.9061559194530808,-1.7515071115077063,-0.01218994490112163,0.056665367037690276,-0.7039301241631284
1.9038411166540636,-1.761699202963868,-0.010958083089049928,0.04525554752394436,-0.5780451244794451
1.9018008545660308,-1.769634323976085,-0.00944453779128024,0.034095662598206754,-0.44583344518554857
1.9001011218877855,-1.7753600696164185,-0.00755278899117147,0.023161793805117493,-0.3094518743817986
1.8988341333328622,-1.778921170618169,-0.005117096558061865,0.012449216212407063,-0.17139667113694992
1.8981459000849095,-1.7803723079018994,-0.0017652359214642725,0.002062156624894524,-0.033993002236623826
