x,y,v_x,v_y,omega
2.375,32.48,0.0,3.435897435897436,-6.775510204081632
2.3732490628045855,31.801659148614473,-0.017509371954145325,3.347511077957805,-6.295706469547947
2.3682795151937364,31.140585116308767,-0.03218610415434524,3.263229245099252,-5.8671484855358385
2.360613663677632,30.495988095368272,-0.04447241100670277,3.182740964305698,-5.48276731979202
2.350692891962853,29.867137085531628,-0.05473530614108615,3.105769134060755,-5.136648496597908
2.338891283350503,29.253353625687822,-0.06328077998241287,3.0320654643772995,-4.823816392781072
2.325526704831411,28.65400643994249,-0.07036500520850618,2.9614063930760413,-4.540063902018783
2.3108698779916863,28.06850682555215,-0.07620326318873875,2.8935897508273403,-4.281816789304116
2.295151841178405,27.49630464966591,-0.08097710494407892,2.828432008035078,-4.046024888093108
2.2785701174773676,26.936884850917032,-0.08484013206628983,2.765765979453656,-3.8300742500844764
2.261293835250422,26.389764363662497,-0.08792269020316698,2.705438893091701,-3.6317157801286024
2.243467996279858,25.8544893991341,-0.09033569950247265,2.647310752192275,-3.449006935455817
2.2252170467641843,25.330633030375047,-0.09217379565426335,2.591252935398236,-3.280263847228136
2.206647875500012,24.817793037602694,-0.09351791698746356,2.5371469923253134,-3.1240218078263173
2.1878523393951403,24.315589978284436,-0.0944374440612531,2.484883600857288,-2.9790025114025607
2.168909397394495,23.82366545226132,-0.09499197594520065,2.434361659373859,-2.8440867750181447
2.149886918781302,23.341680537083327,-0.0952328101867248,2.385487492406081,-2.7182917296770435
2.13084321975505,22.8693143726124,-0.09520418007579498,2.338174152303166,-2.600751674021805
2.1118283725152347,22.406262877113257,-0.09494429232236073,2.2923408026882592,-2.490701942503309
2.0928853232844147,21.95223757964464,-0.09448619998584104,2.2479121719979567,-2.3874652649309387
2.074050849392579,21.50696455570471,-0.0938585389325106,2.2048180674013245,-2.290440193266405
2.0553563804128974,21.070183454864782,-0.09308615086430842,2.1629929409979654,-2.199091250225161
2.0368287041493325,20.64164661061597,-0.09219061177133912,2.1223755014901213,-2.1129405171563684
2.018490574843411,20.22111822390916,-0.09119068128787701,2.082908365578003,-2.03156042919438
2.000361238143963,19.808373612932215,-0.09010268570660104,2.044537744191411,-1.95456758643261
1.9824568850537965,19.40319852257474,-0.0889408451950654,2.0072131593833626,-1.8816174228917253
1.9647910451384671,19.005388487806105,-0.08771755395822992,1.9708871883029841,-1.8123996019154602
1.9473749276806656,18.614748245859918,-0.08644362061978418,1.9355152311588797,-1.7466340285625326
1.93021771812981,18.23109119269414,-0.08512847488877333,1.9010553004988995,-1.6840673875416645
1.9133268360823528,17.854238879696027,-0.083780345585797,1.8674678294822666,-1.624470130024411
1.8967081600953402,17.48402054703611,-0.08240641428432993,1.8347154971168818,-1.5676338448749052
1.8803662238523904,17.120272690455664,-0.08101294814516773,1.8027630686875655,-1.5133689599408455
1.8643043875419032,16.762838658605165,-0.07960541495970334,1.7715772498174376,-1.461502727443379
1.8485249877509513,16.41156827834436,-0.07818858294981654,1.741126552790585,-1.411877454496042
1.8330294687077946,16.06631750567285,-0.0767666074817496,1.7113811739245532,-1.3643489456253992
1.8178184973071412,15.726948100188395,-0.07534310652478556,1.682312880919992,-1.318785129061353
1.8028920640134896,15.393327321172862,-0.07392122641172967,1.6538949092353394,-1.2750648426780222
1.7882495714495104,15.065327643585384,-0.07250369922806339,1.6261018666394313,-1.2330767589307674
1.773889912230426,14.74282649240277,-0.07109289296278065,1.598909645186691,-1.1927184310610208
1.7598115373951226,14.425705993890105,-0.0696908553902531,1.572295339939945,-1.1538954453179122
1.7460125166046967,14.113852742512456,-0.06829935251400383,1.5462371738365546,-1.1165206660481468
1.7324905911247086,13.807157582313224,-0.06691990228587678,1.520714428155765,-1.080513562294094
1.7192432204746848,13.505515401687635,-0.0655538042143636,1.4957073781001022,-1.0457996060649233
1.7062822652368892,13.208827903788709,-0.0640557481635923,1.4711676008891614,-1.0081595551328533
1.6936178339378516,12.91700027366834,-0.06258856482678207,1.4471087003145513,-0.9722412260317368
1.681243751403461,12.629938058147363,-0.06115226051712477,1.423513454895214,-0.9379454410518846
1.6691538518991207,12.34755016922744,-0.059746734526277046,1.4003654343040195,-0.9051798203134023
1.657341998960864,12.069748730437567,-0.058371794856291626,1.3776489535947196,-0.8738582417449454
1.6458021022775366,11.796448932019302,-0.0570271719769818,1.3553490305879345,-0.8439003496888251
1.6345281319943654,11.527568894344302,-0.055712530854730685,1.3334513461620783,-0.8152311072484397
1.6235141307621839,11.263029539006247,-0.054427481467086154,1.3119422072184659,-0.787780388034307
1.612754223816467,11.002754467073323,-0.05317158799008114,1.2908085121107815,-0.7614826034400921
1.6022426273353108,10.746669844027458,-0.05194437682148147,1.2700377183478713,-0.7362763619984831
1.591973655294905,10.494704290953099,-0.05074534358257487,1.2496178123957247,-0.7121041577358602
1.581941725014324,10.246788781571553,-0.04957395922323694,1.229537281419722,-0.6889120847707374
1.5721413615580535,10.002856544747388,-0.04842967533946723,1.209785086821943,-0.6666495756893626
1.5625672011442004,9.76284297212112,-0.04731192879906242,1.1903506394407213,-0.6452691614873356
1.5532139936883635,9.526685530547965,-0.04622014575930832,1.1712237762908246,-0.6247262510927183
1.5440766045974033,9.294323679045604,-0.04515374515029488,1.1523947387327842,-0.6049789286873881
1.5351500159135252,9.065698789975418,-0.04411214168848515,1.1338541519690783,-0.5859877672223924
1.5264293268969438,8.84075407420119,-0.043094748477328616,1.1155930057732157,-0.5677156566824658
1.5179097541247257,8.619434509987332,-0.04210097924485077,1.0976026363653397,-0.5501276457969912
1.509586631174026,8.401686775415314,-0.041130250262146804,1.0798747093548586,-0.5331907960215554
1.5014554079496667,8.18745918411214,-0.04018198198144626,1.062401203676883,-0.5168740467276315
1.4935116497087417,7.976701624098954,-0.03925560042780182,1.0451743964549647,-0.5011480906393774
1.485751035828521,7.7693654995806725,-0.038350538374406044,1.0281868487278463,-0.48598525864741765
1.478169358358282,7.565403675509618,-0.03746623632798314,1.0114313919826985,-0.4713594132109782
1.4707625203907262,7.36477042476718,-0.03660214334757658,0.9949011154416677,-0.4572458496329109
1.463534092704467,7.167597864359262,-0.035682133515014834,0.9768244886375141,-0.4789868608011025
1.4564849473303636,6.974029259106771,-0.03480932022601892,0.9588615638873981,-0.5025027320235269
1.4496057569199543,6.784042178136229,-0.033982583878074665,0.9410092458180209,-0.5276792968058983
1.442887422704554,6.597614797341194,-0.0332007582759275,0.9232645621323425,-0.5544051358227483
1.4363210832583078,6.414725875232673,-0.03246263618653698,0.9056246589528837,-0.5825713235987896
1.429898122201208,6.235354729678761,-0.031766974384459586,0.8880867965862252,-0.6120711817212772
1.4236101749403578,6.059481215450614,-0.031112498224044414,0.8706483456952366,-0.6428000375455136
1.4174491345408071,5.887085702494261,-0.030497905771461768,0.8533067838683072,-0.6746549873720968
1.4114071568110207,5.718149054849672,-0.029921871526404065,0.8360596925775982,-0.7075346630834587
1.4054766646823524,5.552652610139802,-0.029383049760277412,0.8189047545211123,-0.7413390012286333
1.399650351956843,5.390578159553069,-0.02888007749481533,0.8018397513462252,-0.7759690135388795
1.3939211864931347,5.231907928242919,-0.028411577142269273,0.7848625617552748,-0.8113265578425489
1.3882824128963438,5.076624556067699,-0.02797615882563962,0.7679711599969057,-0.8473141083251264
1.3827275547743016,4.9247110785929955,-0.027572422394781596,0.751163614750147,-0.8838345240492845
1.3772504166196606,4.776150908276808,-0.02719895915162807,0.7344380884117278,-0.9207908146096154
1.3718450853749788,4.630927815755541,-0.026854353295190515,0.7177928368009432,-0.9580859017468525
1.3665059317360195,4.48902591114539,-0.026537183094403616,0.7012262093005535,-0.9956223756862188
1.361227611247155,4.350429625269658,-0.026246021794240723,0.6847366494567765,-1.033302244893286
1.3560050652419493,4.215123690717327,-0.02597943825781667,0.6683226960665225,-1.071026677857558
1.3508335216817298,4.083093122632107,-0.02573599734437975,0.6519829847856909,-1.1086957354179947
1.3457084959452776,3.9543231991236674,-0.02551426002014145,0.6357162502987124,-1.1462080920348854
1.3406257916236872,3.8287994411841275,-0.02531278319576327,0.6195213290966944,-1.1834607442878358
1.3355815013760135,3.7065075919824935,-0.025130119280973057,0.6033971629196467,-1.2203487047391548
1.3305720079035988,3.58743359539778,-0.024964815443173385,0.5873428029274751,-1.2567646791446347
1.3255939851039835,3.471563573637539,-0.024815412552980004,0.5713574146749276,-1.292598724818812
1.3206443994691521,3.358883803772283,-0.02468044379533277,0.555440283977634,-1.3277378877687642
1.3157205117976098,3.2493806929975158,-0.024558432920089922,0.5395908237700416,-1.3620658159992773
1.3108198792955232,3.143040752413345,-0.024447892100776237,0.52380858207166,-1.395462346163524
1.3059403581490132,3.0398505690865925,-0.024347319364323643,0.5080932511958587,-1.4278030604890912
1.3010801066577686,2.9397967761314234,-0.0242551955481228,0.49244467835581957,-1.458958810652874
1.2962375890296178,2.8428660205112983,-0.02416998073338563,0.47686287784543985,-1.488795205016138
1.2914115799467223,2.749044928226823,-0.024090110095570202,0.4613480449993222,-1.5171720553727832
1.2866011700268367,2.6583200665103135,-0.024013989103285015,0.44590057216576895,-1.543942779124698
1.2818057723178604,2.5706779025977227,-0.02393998798647891,0.43052106696013176,-1.5689537526009678
1.2770251299809527,2.486104758591406,-0.023866435382598618,0.4152103731030446,-1.5920436111165732
1.2722593253371475,2.4045867618622196,-0.023791611055455002,0.39996959418883044,-1.6130424913708872
1.2675087904750637,2.326109790366022,-0.023713737565381667,0.38480012077316,-1.6317712119893755
1.2627743196434902,2.2506594121672414,-0.023630970750353458,0.36970366121463477,-1.6480403885186077
1.258057083682925,2.178220818370768,-0.02354138885529812,0.3546822767501009,-1.6616494801470663
1.2533586467854163,2.1087787485633314,-0.023442980119788667,0.33973842132427307,-1.6723857670617235
1.2486809859133343,2.042317407758482,-0.0233336286010321,0.32487498672422266,-1.6800232599794056
1.2440265132565178,1.9788203737282473,-0.023211097967133207,0.31009535357813767,-1.684321547469179
1.2393981021656786,1.918270493495509,-0.023073012941258773,0.29540344874923596,-1.6850245928665288
1.2347991170710828,1.8606497676641318,-0.022916838004697883,0.2808038095645384,-1.681859501824524
1.2302334479839492,1.8059392211951284,-0.022739852866638943,0.2663016551254875,-1.6745352952291073
1.2257055502906902,1.7541187592232035,-0.022539124065952244,0.251902964593765,-1.662741742318198
1.221220490697944,1.7051670065897113,-0.022311471861508954,0.23761456174114845,-1.6461483382690885
1.2167840003864079,1.6590611300094302,-0.022053431253852746,0.22344420406165225,-1.6244035534122505
1.2124025367111049,1.6157766422866295,-0.021761205499176314,0.2094006731663563,-1.5971345435574489
1.208083355188886,1.5752871888978852,-0.021430609723011113,0.1954938607211013,-1.5639476011597542
1.203834594112009,1.5375643187837085,-0.021057001045760828,0.18173484042066276,-1.5244297570608953
1.1996653750358623,1.5025772436585072,-0.020635189715705514,0.1681359108313436,-1.4781521283957793
1.1955859237993978,1.4702925940147509,-0.020159322648940024,0.15471058560622056,-1.4246758706170084
1.1916077189592913,1.4406741858856549,-0.019622725752125713,0.14147349568473533,-1.363561954237847
1.1877436780594879,1.4136828211313492,-0.01901768324590821,0.12844015185831237,-1.294386470278827
1.1840083978350595,1.3892761563845433,-0.01833511899837619,0.11562649560975613,-1.2167637712539199
1.180418473570348,1.3674086924040054,-0.017564123648738963,0.10304814419561062,-1.1303804090852538
1.1769929374487473,1.3480319557830427,-0.016691237567268858,0.09071922201402396,-1.0350433056374824
1.1737538790189463,1.33109496473147,-0.015699346730739947,0.07865068850171245,-0.9307452998660969
1.1707273478118665,1.316545078339157,-0.014565965340058839,0.06684817542140677,-0.817748913938466
1.1679446971754477,1.3043292976587253,-0.013260541024129404,0.05530963138290161,-0.6966826695446547
1.165444628391032,1.294395965234198,-0.011740146820027669,0.044023692862355225,-0.5686307333244172
1.1632763930429009,1.2866965091633986,-0.009942206661284016,0.032970867845624766,-0.4351750956946545
1.1615051336387836,1.2811862427725913,-0.007770387379888917,0.02213179606246192,-0.2983267539616338
1.1602222432532336,1.2778217448840437,-0.005058516475611495,0.01151318282302115,-0.16027773888974925
1.1595744574119602,1.2765458218254189,-0.0014193419371237915,0.001246047763216471,-0.022963373379449675
