x,y,v_x,v_y,omega
2.375,32.48,0.0,2.4615384615384617,-7.63265306122449
2.373672497041627,31.992769905191217,-0.013275029583731777,2.410762486549324,-7.2293883266151004
2.369854327785753,31.515517238515926,-0.024906662975007064,2.3617641802036125,-6.857445287343435
2.363854786828201,31.04789760480489,-0.03508874660051219,2.3144321569067094,-6.513581800463714
2.3559469412456946,30.58958783097574,-0.043989709224552864,2.2686655813847976,-6.19496331962495
2.3463723327326114,30.140283995408456,-0.05175637590627835,2.22437277428806,-5.899102791049097
2.3353449829285147,29.699699712867922,-0.058517122134686995,2.1814700511172784,-5.62381078062343
2.3230548207690456,29.267564632893787,-0.06438449946000753,2.139880748624085,-5.3671538451449425
2.309670627401646,28.84362311773712,-0.06945743421398597,2.0995344029425635,-5.127419595666557
2.2953425761096753,28.42763307230494,-0.07382307870572258,2.060366051379261,-4.903087229970979
2.280204430488336,28.019364903601527,-0.0775583775076685,2.0223156356548264,-4.6928025626735685
2.264375452872945,27.618600591144922,-0.08073139864624025,1.98532748891123,-4.495356775413879
2.247962066043659,27.225132853023077,-0.08340246964662283,1.9493498923072474,-4.30966826048766
2.231059304008159,26.8387643948157,-0.08562515070837201,1.9143346897665046,-4.134767049608187
2.2137520818104606,26.45930723067921,-0.08744707126861447,1.8802369515983748,-3.969781412992379
2.1961163095387555,26.086582067577588,-0.0889106514484393,1.8470146794178788,-3.8139262883746294
2.178219871785541,25.72041774502096,-0.09005372608370664,1.8146285461483855,-3.666493259151221
2.160123490577554,25.360650723808366,-0.09091008599616104,1.7830416659775534,-3.526841848892157
2.1418814871079013,25.00712461820947,-0.09150994870036817,1.7522193900114178,-3.3943919383933303
2.1235424553636704,24.65968976680043,-0.09188036874194042,1.7221291240789798,-3.2686171431743625
2.1051498588667465,24.31820283782104,-0.09204559622729612,1.6927401657149017,-3.149039015320339
2.0867425601679086,23.982526465467753,-0.09202739076108267,1.664023557817992,-3.0352219549587143
2.0683552914020966,23.65252891399904,-0.09184529689703738,1.635951956869153,-2.9267687343489364
2.0500190730837398,23.328083766921033,-0.09151688628653347,1.6084995139108889,-2.823316552245803
2.031761587360994,23.00906963885451,-0.0910579709409228,1.5816417667543698,-2.724533548436649
2.0136075111288108,22.695369907969102,-0.0904827913809113,1.5553555420997078,-2.630115718592389
1.9955788137001076,22.386872467115253,-0.08980418290611918,1.5296188664387544,-2.539784178170244
1.9776950231332318,22.08346949199499,-0.08903372276263893,1.5044108847639102,-2.4532827313492986
1.9599734647968443,21.785057224894956,-0.08818186060123429,1.4797117862364095,-2.3703757071017253
1.942447647598663,21.4915448655426,-0.08707631138058028,1.4554118072871793,-2.2853304355170514
1.925146690332623,21.202844793450062,-0.08593326127981887,1.4315889136381712,-2.20417263688236
1.9080774846135609,20.91886332757223,-0.08475879591080335,1.4082257451401707,-2.1266782471278707
1.8912457685435697,20.639510176585745,-0.0835583647891059,1.3853057647246971,-2.0526385860137655
1.8746562475077246,20.36469827928871,-0.08233684556934662,1.3628132082456526,-1.9818591304415594
1.858312702798724,20.094343654658168,-0.08109860152065902,1.3407330380597529,-1.9141583989883075
1.8422180893466835,19.828365260850987,-0.07984753299974597,1.319050900012035,-1.849366936361432
1.8263746236879226,19.56668486249702,-0.07858712358786256,1.2977530835276356,-1.787326387745297
1.8107838631812605,19.309226905690082,-0.07732048147876093,1.2768264845417452,-1.7278886541262275
1.7954467773698355,19.055918400133237,-0.07605037663548779,1.256258571026719,-1.6709151206618313
1.780363812288933,18.80668880794064,-0.07477927417353651,1.2360373508992655,-1.6162759510214597
1.7655349484340768,18.561469938639526,-0.07350936437502598,1.2161513421118402,-1.5638494413830053
1.7509597530273453,18.320195849953222,-0.07224258969228989,1.1965895447511914,-1.513521428440333
1.7366374271522518,18.082802753979728,-0.07098066905864277,1.1773414149837584,-1.4651847463669256
1.722566848267548,17.8492289284111,-0.06972511978839621,1.158396840702549,-1.4187387282046722
1.7087466085570293,17.6194146324665,-0.06847727731679104,1.1397461187434494,-1.3740887476106443
1.6951750495250666,17.39330202723707,-0.06723831300283671,1.1213799335508605,-1.3311457973065344
1.6818502932054193,17.170835100163657,-0.06600925019363425,1.1032893371832313,-1.289826100941552
1.668770270313337,16.951959593389468,-0.06479097872719228,1.0854657305586775,-1.2500507554055056
1.6559327456374504,16.73662293574865,-0.06358426803167305,1.0679008458494963,-1.21174540091934
1.643335340938071,16.524774178169483,-0.062389778962118836,1.050586729942177,-1.1748399164897396
1.630975555591785,16.316363932286613,-0.06120807450074127,1.0335157288865182,-1.1392681385461825
1.6188507851983533,16.11134431207158,-0.0600396294335758,1.0166804732638164,-1.1049676007862321
1.606958338344545,15.909668878304217,-0.058884839104506856,1.00007386440982,-1.0718792934406705
1.5952954517003763,15.7112925857199,-0.057744027337181154,0.983689061433356,-1.0399474403367372
1.58386955701231,15.516370236860098,-0.056514919543481514,0.9655344271646662,-1.0484012610564166
1.5726849822725026,15.325066807279384,-0.05533082785459194,0.9474998686424815,-1.0589296521922398
1.5617328123490464,15.137358616568736,-0.054190871379968565,0.929582038464007,-1.0714030377928023
1.5510043152682422,14.953222639567976,-0.0530940994280745,0.9117777315436052,-1.0856951575978644
1.5404909554724275,14.772636478453865,-0.05203949853007405,0.894083879597492,-1.1016827737588786
1.5301844057333895,14.595578335880777,-0.05102599886030508,0.8764975461334044,-1.1192453862600154
1.5200765578377422,14.422026989074666,-0.05005248009616817,0.8590159219277126,-1.1382649558224713
1.510159532152491,14.251961764784323,-0.049117776756344,0.8416363209757388,-1.1586256331061866
1.5004256861715823,14.08536251499632,-0.04822068305274226,0.824356176904303,-1.1802134930459147
1.4908676221374813,13.922209593322009,-0.04735995728826982,0.8071730398387864,-1.2029162731730063
1.4814781938257184,13.762483831966097,-0.04653432582935713,0.7900845737203177,-1.2266231147803452
1.4722505125748653,13.606166519186857,-0.045742486679174355,0.773088554072087,-1.251224305785598
1.46317795263949,13.453239377157917,-0.04498311267457855,0.756182866217323,-1.2766110241372097
1.4542541559393285,13.303684540140669,-0.04425485432703691,0.7393655039551722,-1.3026750805882539
1.4454730362741204,13.157484532874687,-0.04355634232504349,0.7226345687046432,-1.3293086596350958
1.4368287830703297,13.014622249091126,-0.042886189712865716,0.7059882691309846,-1.3564040573805949
1.4283158647232634,12.875080930050686,-0.04224299375779579,0.6894249212734066,-1.3838534150349424
1.419929031595942,12.738844143003547,-0.04162533751541769,0.6729429491979994,-1.4115484467108685
1.4116633187344299,12.605895759463234,-0.04103179109970464,0.656540886205127,-1.4393801601035172
1.4035140483582587,12.476219933180065,-0.040460912662007985,0.6402173766265584,-1.4672385685684675
1.395476832184042,12.349801077691986,-0.039911249080156405,0.6239711782542335,-1.49501239302394
1.3875475736404344,12.226623843321565,-0.03938133635592203,0.6078011654499547,-1.522588752005059
1.3797224700332427,12.106673093477216,-0.03886969971599325,0.5917063329935529,-1.5498528380892533
1.371998014720815,11.989933880104228,-0.038374853408283754,0.5756858007363331,-1.576687578792962
1.3643709993618005,11.876391418116896,-0.0378953001818618,0.5597388191369832,-1.6029732799116903
1.3568385163001189,11.766031058626318,-0.037429530434954644,0.5438647757687872,-1.6285872491399174
1.3493979611554918,11.658838260759431,-0.03697602101131643,0.5280632029000677,-1.6534033976671325
1.342047035692292,11.55479856184298,-0.036533233620680776,0.512333786264436,-1.6772918173057254
1.3347837510448262,11.453897545701153,-0.036099612853978134,0.496676375153819,-1.7001183305720402
1.327606431383589,11.356120808787225,-0.035673583758395265,0.4810909939854507,-1.7217440110230924
1.3205137181146411,11.261453923837262,-0.03525354893108252,0.46557785551417047,-1.7420246710619571
1.3135045747132088,11.169882400697503,-0.03483788508324067,0.4501373758834286,-1.760810314384224
1.3065782923030576,11.081391643935937,-0.034424939018272704,0.4347701917322383,-1.7779445502739637
1.2997344961053858,10.995966906802657,-0.03401302295844351,0.41947717960057423,-1.7932639671095325
1.2929731528951662,10.913593241052428,-0.0336004091437525,0.4042594779017136,-1.8065974627624044
1.2862945796193832,10.8342554420867,-0.03318532361407849,0.3891185117555597,-1.8177655301433968
1.2796994533509232,10.757937988811133,-0.03276593907052262,0.37405602100012564,-1.8265794970786082
1.2731888227745285,10.68462497753952,-0.03234036669342329,0.3590740917159963,-1.8328407211340618
1.2667641214280327,10.614300049207326,-0.03190664677153381,0.3441751916059518,-1.836339742166404
1.260427182954125,10.546946309090558,-0.03146273796754508,0.3293622095617502,-1.8368553985556548
1.254180258656689,10.482546238163241,-0.03100650500681298,0.3146384997114018,-1.834153917693923
1.2480260377035335,10.421081595176421,-0.030535704524742774,0.30000793015681454,-1.8279879979494522
1.2419676703773017,10.362533308514806,-0.030047968737574253,0.2854749364593467,-1.8180959088245259
1.2360087948533705,10.30688135690146,-0.029540786501737942,0.27104457967411205,-1.8042006495386445
1.2301535680848255,10.25410463810194,-0.02901148118371284,0.2567226083210968,-1.7860092254213453
1.2244067015112157,10.204180824966105,-0.028457184552384874,0.24251552303725304,-1.7632121285652524
1.2187735024966446,10.157086208495269,-0.027874805593324704,0.22843064167109844,-1.7354831473283097
1.213259922670026,10.112795528217404,-0.02726099267286129,0.21447616110756157,-1.7024796828308832
1.2078726147266385,10.071281791113211,-0.026612086761012774,0.20066120993435693,-1.6638438254497268
1.2026189998187566,10.032516081830028,-0.025924062317805766,0.18699588289745778,-1.6192045482053299
1.1975073485128938,9.996467369182401,-0.02519245074082387,0.17349124357881532,-1.5681815165683564
1.192546879576155,9.963102317280196,-0.024412238626565563,0.16015927544322567,-1.5103912066340315
1.187747882813822,9.932385114440379,-0.02357772899676343,0.14701275295495378,-1.4454562759161937
1.1831218751842143,9.904277339769699,-0.02268234729931357,0.13406499375183342,-1.3730194460475176
1.178681804029163,9.878737896330254,-0.021718364251201293,0.12132944064262689,-1.2927635155958999
1.1744423183262351,9.855723051133946,-0.020676492778075983,0.10881901132043309,-1.2044394530976872
1.170420139640282,9.835186634849435,-0.019545294081454584,0.09654515152467533,-1.1079046439585327
1.1666345807423693,9.817080464695369,-0.018310294897673912,0.08451655001598676,-1.0031728894240781
1.1631082843774223,9.801355054475877,-0.016952668751794592,0.07273755217891559,-0.8904759482664002
1.1598682919709304,9.787960649674446,-0.015447255313124046,0.061206495835386246,-0.770332118181241
1.1569476123158935,9.776848543762714,-0.013759541237245683,0.04991456328193808,-0.6436092789949306
1.15438757344138,9.767972448236389,-0.0118408475078896,0.03884639198130758,-0.5115577820708356
1.1522415120198264,9.76128932883151,-0.009619766707645413,0.027984802067494347,-0.37577612395682863
1.1505812049874453,9.756758382507364,-0.006983303616165516,0.01732466117394082,-0.23806868974950637
1.14951107772882,9.75433455072385,-0.0037179689700868723,0.006913656661186039,-0.10017219599421626
