x,y,v_x,v_y,omega
2.375,32.48,0.0,3.230769230769231,-5.795918367346939
2.3735956694204408,31.841760125543647,-0.014043305795591272,3.151629513794251,-5.408083943510032
2.369598692508284,31.219004799034376,-0.025926463325978137,3.0759237512984705,-5.059218492238587
2.3634091559765893,30.61107146331669,-0.03596890199097031,3.003409605878392,-4.744250193346247
2.3553683990785568,30.017343597758973,-0.04443866698935297,2.9338690496987594,-4.458889176070668
2.345768375876872,29.437246188700637,-0.051561565027493574,2.8671050408846295,-4.1994897580849395
2.334859368841381,28.870241805764344,-0.057528505327418634,2.8029387884782735,-3.9629399301814
2.32285637523834,28.31582717902073,-0.0625014307029883,2.7412074789578704,-3.7465720999936365
2.3099444183841014,27.773530194233665,-0.06661813783940142,2.681762368912797,-3.5480905590194163
2.296282983014132,27.242907240206875,-0.06999621586029155,2.6244671713550956,-3.365512202719538
2.28200973339952,26.723540855079754,-0.0727362802858278,2.569196679916135,-3.19711782503638
2.267243641324687,26.215037628327714,-0.07492464046250556,2.5158355876042693,-3.0414119029198483
2.252087626384108,25.717026322956517,-0.07663550894328026,2.4642774661076707,-2.8970892368284358
2.236630791626842,25.229156188478584,-0.07793283862937964,2.414423878671683,-2.7630071575018564
2.2209503221658613,24.751095440114845,-0.07887185598042883,2.3661836049656997,-2.6381622746595284
2.2051131020700545,24.282529883567133,-0.079500344977638,2.319471960511422,-2.5216709492843687
2.1891770949872544,23.823161667867737,-0.07985972585036465,2.274210196482546,-2.4127528321669884
2.173192525986394,23.37270815139638,-0.07998596415824175,2.2303249682310065,-2.310716938030123
2.157202895656222,22.930900868282045,-0.07991033914347612,2.1877478629123583,-2.2149498247481674
2.141245852247631,22.49748458417129,-0.07966009494242887,2.146414978195184,-2.1249055268801538
2.125353943355668,22.072216431817967,-0.07925899397720733,2.1062665453380323,-2.0400969564628264
2.109555265116847,21.65486511818705,-0.07872778841099874,2.0672465909711297,-1.9600885352114787
2.0938740239986156,21.245210195811815,-0.07808462277131539,2.0293026327812274,-1.8844898635998788
2.0783310238626553,20.843041392033054,-0.0773453785882901,1.99238540500637,-1.8129502657860634
2.062944088998286,20.448157990509028,-0.0765239700554026,1.956448610233902,-1.7451540766120484
2.04772843217125,20.060368260037283,-0.07563259821495262,1.921448694483544,-1.6808165591791902
2.0326969753562447,19.679488926292272,-0.07468196993510498,1.8873446429665832,-1.6196803597670713
2.0178606296699524,19.30534468256993,-0.07368148692781676,1.8540977942568138,-1.5615124218965453
2.003228540055536,18.937767736054198,-0.07263940921634866,1.821671670900525,-1.5061012937513334
1.9888082994574474,18.57659738649006,-0.07156299676453451,1.7900318247408489,-1.4532547734570005
1.974606136540875,18.221679634471613,-0.07045863240119231,1.7591456954436309,-1.402797845263188
1.9606270804316768,17.87286681683788,-0.06933192869078783,1.7289824808936962,-1.3545708667995549
1.946875105462743,17.530017266919824,-0.06818782099855278,1.6995130182868678,-1.308427973531984
1.9333532584968074,17.192994997603304,-0.0670306486608005,1.6707096748783377,-1.2642356715388523
1.9200637710419426,16.86166940536894,-0.06586422588784833,1.642546247465301,-1.2218715939245501
1.9070081580743072,16.535914993644028,-0.0646919037885048,1.6149978697838432,-1.1812233997250678
1.8941873052250626,16.215611113956722,-0.0635166247039418,1.5880409270891747,-1.1421877971496315
1.881601545767795,15.900641723521172,-0.062340969868734476,1.5616529772663126,-1.1046696755343133
1.869250728653642,15.59089515800586,-0.0611672012727964,1.5358126778867902,-1.0685813325333346
1.857134278678798,15.286263918348457,-0.05999729847564208,1.5104997186872455,-1.0338417849033255
1.8452512497291962,14.98664447057984,-0.05883299102037644,1.4856947589989202,-1.0003761527963415
1.8336129993174282,14.69193961642156,-0.05754951309730542,1.4613537825838645,-0.9645117430330211
1.8222292022416902,14.402055598010726,-0.05628845766007323,1.437486401524481,-0.9302805321655138
1.8110953331657789,14.116899384016104,-0.05505023309904054,1.4140757384217402,-0.897588843540614
1.8002067979219936,13.836381241522016,-0.05383511933881223,1.39110568651916,-0.8663493926464025
1.7895589575102504,13.560414586331369,-0.05264328477861978,1.3685608653873138,-0.8364807816089613
1.7791471489129924,13.28891584182793,-0.05147480119395971,1.3464265796470654,-0.807907038999303
1.768966703108842,13.02180430581435,-0.05032965684754388,1.3246887804887193,-0.7805572004204177
1.7590129606214686,12.759002024788835,-0.04920776802619062,1.3033340297664324,-0.7543649258431931
1.7492812848995452,12.500433675165478,-0.04810898919304498,1.2823494664671145,-0.729268150098922
1.739767073788153,12.246026450981677,-0.04703312192087398,1.261722775370909,-0.7052087633229387
1.730465769320902,11.995709957670943,-0.04597992275163719,1.2414421577364216,-0.6821323184853353
1.7213728660347725,11.749416111511465,-0.04494911010965823,1.2214963038583437,-0.6599877634464532
1.7124839179857916,11.507079044389812,-0.04394037038015208,1.201874367358193,-0.6387271952419198
1.7037945446226477,11.268635013545921,-0.04295336325128537,1.1825659410807001,-0.6183056345387119
1.69530043565691,11.034022315989947,-0.041987726406092586,1.16356103447905,-0.5986808184138063
1.6869973550522794,10.803181207303854,-0.04104307964021197,1.1448500523818692,-0.5798130097936719
1.678881144241024,10.576053824561306,-0.04011902847234125,1.1264237750436221,-0.5616648220589806
1.6709477246631523,10.35258411311814,-0.03921516730637664,1.1082733393880464,-0.544201057466915
1.6631930997127906,10.132717757043185,-0.038331082197240816,1.0903902213615055,-0.5273885581754774
1.6556133561664366,9.916402112975064,-0.037466353266300885,1.072766219319721,-0.5111960687721112
1.6482046651591147,9.703586147205357,-0.03662055680691588,1.055393438377355,-0.495594109314381
1.6409632827668292,9.494220375802083,-0.035793267115940455,1.0382642756553908,-0.4805548579848299
1.6338855502469487,9.288256807599918,-0.03498405808286521,1.0213714063662493,-0.4660520425467211
1.6269678939821999,9.085648889895179,-0.03419250456462327,1.0047077706811585,-0.4520608398632547
1.62020682516865,8.886351456694218,-0.03341818357087535,0.9882665613284584,-0.4385577828110065
1.6136056377195414,8.690500952857231,-0.032593690920208834,0.9702384770413928,-0.4615713660069125
1.6071648945100412,8.498244844109895,-0.03181374117479375,0.9523226104319821,-0.4862991429591084
1.6008757911845497,8.309560990469137,-0.031077292080120857,0.9345159259755811,-0.5126290516690548
1.594729736667004,8.124427847042693,-0.030383253095335988,0.916815508288856,-0.5404516310461527
1.5887183622642471,7.942824440444149,-0.02973049093223409,0.8992185576965727,-0.5696597738334284
1.582833529712035,7.764730346053714,-0.029117834589883818,0.8817223862077848,-0.6001484854249919
1.5770673382610085,7.5901256660439955,-0.028544079920381108,0.8643244138894124,-0.6318146475644102
1.5714121308931797,7.4189910080922665,-0.028007993757908734,0.8470221656278851,-0.6645567859249346
1.5658604997533754,7.251307464702254,-0.027508317640133152,0.8298132682722374,-0.6982748405769398
1.5604052908745647,7.08705659305955,-0.027043771147974616,0.8126954481548012,-0.73286993834487
1.5550396082710756,6.926220395345222,-0.026613054886916652,0.7956665289884863,-0.7682441660452439
1.5497568174693588,6.7687812994321135,-0.026214853130252187,0.7787244301426068,-0.8043003435785754
1.5445505485421362,6.614722139887618,-0.025847836141971246,0.7618671653023421,-0.8409417958210688
1.5394146987085038,6.464026139205359,-0.02551066219435477,0.7450928415202582,-0.8780721222261911
1.534343434559796,6.316676889186141,-0.025201979292725236,0.728399658671915,-0.9155949630011844
1.5293311939688041,6.172658332385801,-0.02492042661719153,0.7117859093314919,-0.9534137606686219
1.5243726877382264,6.031954743543885,-0.02466463568858527,0.69524997908766,-0.9914315157575299
1.519462901043059,5.894550710902653,-0.024433231263090157,0.6787903473246661,-1.0295505352915453
1.5145970947210214,5.760431117320298,-0.024224831957283338,0.662405588498873,-1.0676721726522025
1.5097708064650526,5.62958112107572,-0.02403805060240553,0.6460943739469036,-1.1056965572927109
1.5049798519724504,5.50198613625421,-0.023871494323618077,0.6298554742681838,-1.1435223126604879
1.5002203261064135,5.377631812594174,-0.02372376433675068,0.6136877623321823,-1.1810462605541518
1.4954886041275834,5.2565040146640385,-0.023593455451549353,0.5975902169691623,-1.2181631099915855
1.4907813430557635,5.138588800225829,-0.02347915526665138,0.581561927412942,-1.2547651284990569
1.4860954832253594,5.023872397627013,-0.023379443037388595,0.565602098575202,-1.2907417935464143
1.4814282501023213,4.912341182045143,-0.02329288819299063,0.5497100572434884,-1.3259794216495466
1.4767771564355465,4.803981650389847,-0.023218048474757457,0.533885259309478,-1.3603607724386713
1.472140004821949,4.698780394643844,-0.02315346766121684,0.5181272981505672,-1.393764624750469
1.4675148907718185,4.596724073398118,-0.02309767284008789,0.5024359143067054,-1.426065321545818
1.4629002063698167,4.497799381305853,-0.023049171179933416,0.48681100661594345,-1.4571322801870183
1.458294644637165,4.401993016144587,-0.023006446146580966,0.47125264499672403,-1.4868294643359163
1.4536972047124486,4.30929164313563,-0.022967953100583673,0.45576108509284,-1.5150148134683912
1.4491071979821895,4.2196818561234934,-0.022932114202006887,0.44033678502851314,-1.5415396257583793
1.444524255308243,4.133150135165,-0.022897312537457717,0.4249804245564134,-1.566247889891843
1.439948335517371,4.049682800017287,-0.022861885371261475,0.4096929269206991,-1.588975561266121
1.4353797353394753,3.9692659589452077,-0.02282411640769731,0.3944754838000782,-1.609549778069162
1.4308191010053264,3.8918854521910227,-0.02278222693379136,0.379329583741774,-1.627788012998192
1.426267441742775,3.817526789362379,-0.022734365691723577,0.3642570445446586,-1.643497156987317
1.4217261454430445,3.746175079898311,-0.02267859730557989,0.34926005009601896,-1.6564725324405942
1.4171969968067128,3.6778149556680226,-0.022612889057736056,0.33434119220687814,-1.6664968353600054
1.412682198323564,3.6124304846455324,-0.02253509577375215,0.31950351801800686,-1.6733390087761557
1.40818439449334,3.5500050744886593,-0.022442942528488104,0.30475058355072215,-1.6767530545532237
1.4037066997579024,3.4905213647401467,-0.0223340048258897,0.29008651393440243,-1.6764767977007902
1.3992527306929397,3.4339611062740083,-0.022205685823736058,0.27551607072699913,-1.6722306278728805
1.3948266431043899,3.380305026550257,-0.022055190061762264,0.26104472651052724,-1.6637162583474006
1.3904331747992544,3.3295326792470483,-0.021879492989593075,0.24667874652157623,-1.6506155657453003
1.3860776949651255,3.2816222769586147,-0.021675305351697018,0.23242527636274443,-1.632589607381773
1.381766261317535,3.2365505059545967,-0.021439031124207922,0.21829243367743936,-1.6092779622259403
1.3775056864913382,3.1942923226044364,-0.021166717137760162,0.20428939982418126,-1.580298612847034
1.3733036156137897,3.154820732150448,-0.0208539916377255,0.19042650471571004,-1.5452486891882677
1.3691686176875733,3.1181065523184017,-0.020495987624439535,0.17671529360474833,-1.5037065440916335
1.365110294470647,3.084118167154731,-0.020087244544823295,0.16316855803197308,-1.455235843407643
1.361139412194144,3.0528212809970334,-0.019621578220207405,0.14980030354498855,-1.399392653163137
1.357268064083134,3.0241786893221665,-0.01909190288989269,0.13662561320367414,-1.3357369176355602
1.3535098758473156,2.998150093236905,-0.01848997946829041,0.12366034764893186,-1.263850262948581
1.3498802730758825,2.974691998442534,-0.017806048246041005,0.11092060029476514,-1.1833627156052378
1.346396840376879,2.9537577579659846,-0.017028278743996123,0.09842180447071627,-1.09399158522873
1.3430798196157059,2.935297839352895,-0.01614192886773411,0.08617738166016937,-0.995596094480754
1.339952822561871,2.9192604152706174,-0.015128041670612909,0.07419685916259808,-0.8882505541439784
1.3370438777655491,2.9055923753706914,-0.013961406292605994,0.06248353983664871,-0.7723353749478776
1.33438700383097,2.894240801597334,-0.012607333053185059,0.05103219789693625,-0.6486363519627328
1.3320246294823352,2.8851547734134257,-0.01101641043316213,0.03982808394216597,-0.5184256615248685
1.3300114598247146,2.878286964316988,-0.009115286143045123,0.02885000702221651,-0.38347375323823096
1.3284212112449578,2.8735936331594836,-0.006787199654521683,0.01808330455282197,-0.2459213548238943
1.3273610832970117,2.8710292608178527,-0.003814079824939487,0.0075604188634724075,-0.10794892012551713
