x,y,v_x,v_y,omega
2.375,32.48,0.0,2.871794871794872,-2.7346938775510203
2.3743448078652705,31.8838939488954,-0.006239925092663025,2.805405614915581,-2.563032250739855
2.3724751516104403,31.30145368401901,-0.011566324953337443,2.741644526764341,-2.407457959204981
2.3695694512824925,30.732144591159763,-0.016107011503306744,2.680346833799884,-2.26601464669593
2.365781318086656,30.17546519631976,-0.019970447504662966,2.621361688485878,-2.137026977648243
2.361243280443492,29.630944400675368,-0.02324895862070635,2.5645506509845206,-2.0190548155382273
2.3560698967280764,29.098139012533924,-0.026021362478488737,2.5097863789339745,-1.910855706069258
2.350360365033319,28.576631536268067,-0.028355129852535806,2.4569514902646885,-1.8113540137912822
2.34420071870999,28.066028184829754,-0.030308168464881872,2.4059375710525455,-1.7196154178761884
2.3376656794203474,27.565957087758417,-0.03193030096028596,2.3566443058173445,-1.634825746429378
2.33082022595462,27.07606667090062,-0.033264493951403934,2.308978711875977,-1.5562733398930588
2.3237209263117093,26.59602418757495,-0.03434788360012573,2.262854462654181,-1.483334298119851
2.316417071938324,26.125514383811996,-0.03521263424163849,2.218191287469214,-1.4154600938706527
2.3089516460959665,25.66423828270287,-0.035886659495102655,2.174914437379627,-1.3521671362244048
2.3013621527295394,25.2119120748984,-0.03639422970896517,2.1329542083771957,-1.2930279469791566
2.293681327671033,24.768266103990058,-0.0367564851339555,2.092245514559389,-1.2376636763291196
2.285937750313289,24.333043936932533,-0.03699187065408147,2.0527275050361244,-1.1857377345352254
2.2781563708649277,23.906001510883186,-0.037116505044593406,2.014343219243364,-1.1369503567310093
2.2703589658162997,23.48690634887235,-0.03714449541853407,1.9770392760979305,-1.0910339505477769
2.2625645322035037,23.075536837610407,-0.03708820565571229,1.9407655930634038,-1.047749102547959
2.2547896295701584,22.6716815615071,-0.03695848609043496,1.9054751317300265,-1.006881140802637
2.2470486771284683,22.275138687644535,-0.0367648704970884,1.8711236669610594,-0.9682371683382973
2.2393542124592187,21.885715397024534,-0.036515745400523776,1.8376695770389453,-0.9316434963941675
2.231717117121872,21.503227357915712,-0.036218495907542884,1.8050736525688815,-0.8969434180943693
2.2241468137365255,21.127498237567647,-0.03587963157194576,1.773298922174601,-0.8639952727393165
2.216651438421171,20.758359248947112,-0.03550489524095516,1.7423104932590603,-0.8326707588486207
2.2092379918977287,20.395648729492606,-0.035099357363258726,1.712075406307687,-0.8028534606549911
2.201912472100269,20.039211749184453,-0.03466749785064109,1.6825625013890035,-0.7744375582051316
2.1946799907134524,19.68889974549419,-0.03421327726189874,1.6537422956611059,-0.7473266957705045
2.1875448757261275,19.344570183013026,-0.033740198807860874,1.6255868708261536,-0.7214329870703827
2.1805107617940007,19.006086235769157,-0.033251362450489895,1.5980697695916566,-0.6966761389933552
2.1735806699578455,18.673316490430597,-0.032749512179562935,1.5711659002993803,-0.6729826781782468
2.166757078052925,18.34613466875708,-0.032237077391106685,1.5448514489721903,-0.6502852670684157
2.160041982965325,18.024419367813678,-0.031716209157468166,1.5191037981078508,-0.6285220979558367
2.1534369557369164,17.708053816592447,-0.031188812065467097,1.493901451618143,-0.6076363551417125
2.1469523743306995,17.39692651732004,-0.030569106088978528,1.469215684309559,-0.5851202528744623
2.1405973579597184,17.090930105827272,-0.029954859348936776,1.445035853716792,-0.5636719834377311
2.13437067069053,16.789960285010714,-0.02934692416714489,1.421343392155187,-0.5432279581417073
2.1282709115698624,16.49391656500585,-0.028746019839213502,1.3981206078911392,-0.5237290923493718
2.1222965408753716,16.20270208467131,-0.028152748679746976,1.3753506333902215,-0.5051204361066742
2.1164459031968956,15.916223443559371,-0.027567610162882318,1.3530173771996519,-0.48735083908062454
2.1107172477235716,15.634390543640649,-0.026991013392584518,1.3311054791691161,-0.4703726462536934
2.1051087460661444,15.357116440110051,-0.026423288106718405,1.3096002687413417,-0.4541414212275417
2.0996185079037057,15.084317200655033,-0.025864694392699058,1.2884877260683723,-0.4386156943435032
2.0942445947091364,14.815911772616044,-0.02531543126986671,1.2677544457315304,-0.42375673313816187
2.088985031777017,14.551821857513634,-0.024775644274125805,1.247387602862861,-0.4095283329255636
2.083837818751077,14.291971792457247,-0.024245432163397668,1.2273749214836822,-0.3958966255380259
2.0788009388249127,14.036288437987807,-0.023724852847693257,1.2077046448919402,-0.382829904469405
2.0738723667692507,13.784701071939974,-0.023213928634802376,1.1883655079445694,-0.3702984648517129
2.069050075921094,13.537141288940909,-0.02271265087145152,1.1693467110941618,-0.35827445686129206
2.064332044254334,13.293542905190655,-0.02222098405007497,1.150637896051107,-0.34673175129708705
2.0597162596375735,13.053841868195214,-0.021738869442877857,1.1322291229531045,-0.33564581620325223
2.055200724372736,12.817976171147102,-0.021266228317477882,1.1141108489336813,-0.3249936035234466
2.050783459097296,12.585885771670096,-0.020802964781950962,1.0962739079901929,-0.3147534448764698
2.046462506123539,12.357512514664844,-0.020348968301451387,1.0787094920598148,-0.30490495563392134
2.0422359322799064,12.132800059010531,-0.019904115923623466,1.061409133219342,-0.2954289465616692
2.0381018313121295,11.911693807894718,-0.019468274245677382,1.044364686931264,-0.28630734235925936
2.0340583258953537,11.694140842559147,-0.01904130115218816,1.0275683162646558,-0.27752310649601014
2.0301035693026948,11.480089859263739,-0.018623047349325465,1.011012477024957,-0.26906017180030734
2.0262357467705967,11.269491109284282,-0.018213357718273968,0.994689903731765,-0.26090337631033395
2.0224562740803416,11.06243141825642,-0.017781620284154757,0.9773071536764508,-0.27865334567673966
2.0187644932398356,10.85901005930004,-0.017378197244475535,0.9600391220986005,-0.2983040979288504
2.015154464305279,10.65920327656342,-0.017003030703683367,0.9428826182501523,-0.3197459611878723
2.0116202697960754,10.462987971301782,-0.016655964622065055,0.925834574717837,-0.34287221610733204
2.0081560344044385,10.270341676514903,-0.016336753393523553,0.9088920423000552,-0.36757886236627435
2.0047559429755144,10.081242532618742,-0.016045069739086922,0.8920521852824367,-0.39376439233137384
2.00141425689658,9.895669264069074,-0.0157805119650484,0.8753122770953445,-0.42132957099922186
1.9981253290240413,9.713601156858477,-0.01554261063055968,0.8586696963389,-0.4501772213518457
1.9948836172679352,9.535018036810737,-0.015330834665689535,0.8421219231633859,-0.4802120142744233
1.9916836969454121,9.359900248599093,-0.015144596977386482,0.8256665359951353,-0.5113402621941865
1.9885202720071575,9.188228635416575,-0.014983259577419543,0.8093012086002653,-0.5434697156036041
1.9853881852338937,9.019984519228053,-0.014846138263188374,0.7930237074808966,-0.5765093616290023
1.982282427493936,8.85514968153447,-0.014732506879267684,0.7768318896008309,-0.6103692237976259
1.979198146147224,8.693706344580175,-0.014641601184656078,0.7607237004400775,-0.644960162141538
1.9761306526763043,8.53563715293405,-0.014572622347911849,0.744697172380143,-0.6801936727553723
1.9730754296203599,8.380925155374545,-0.014524740089653737,0.7287504234246832,-0.715981685896412
1.970028136884574,8.22955378700734,-0.014497095489258706,0.7128816562629765,-0.7522363616792929
1.9669846174938543,8.081506851542617,-0.014488803469976814,0.6970891576867762,-0.7888698823732773
1.9639409028572286,7.936768503656186,-0.014498954974079444,0.681371298374475,-0.8257942402568607
1.9608932176070615,7.7953232313555425,-0.014526618837034978,0.6657265330602291,-0.8629210199217348
1.957837984075634,7.657155838267691,-0.014570843367037069,0.6501534011097987,-0.9001611738450009
1.9547718264705811,7.522251425760569,-0.014630657633464925,0.6346505275294496,-0.9374247899640795
1.9516915748102424,7.390595374803841,-0.014705072464999878,0.619216624439405,-0.9746208498919665
1.9485942686801294,7.2621733274675435,-0.01479308115512268,0.6038504930491323,-1.0116569763002388
1.9454771608725407,7.136971167948662,-0.014893659869532462,0.5885510261783184,-1.0484391678723075
1.9423377209728447,7.014975003005581,-0.01500576774661854,0.5733172113748466,-1.0848715200886316
1.9391736389582146,6.896171141668816,-0.01512834667843232,0.5581481346895961,-1.1208559299476673
1.9359828288776415,6.7805460740827606,-0.015260320755595523,0.5430429851776118,-1.1562917825500698
1.9327634326860097,6.668086449317446,-0.015400595355183,0.5280010602063265,-1.1910756172780208
1.9295138243099101,6.55877905197103,-0.015548055845766228,0.5130217716642973,-1.2251007710858026
1.9262326140288706,6.452610777362526,-0.015701565878420927,0.4981046531785882,-1.2582569961816716
1.9229186532628535,6.349568605089868,-0.0158599652265023,0.48324936846577915,-1.2904300491252978
1.919571039865392,6.249639570700062,-0.016022067130274674,0.4684557209609303,-1.3215012480914925
1.916189124031745,6.152810735185607,-0.016186655094934336,0.4537236648910172,-1.3513469947635055
1.9127725149431614,6.059069151983653,-0.016352479082051747,0.4390533179847462,-1.3798382570246668
1.9093210882819394,5.968401831111095,-0.01651825102482541,0.4244449760396218,-1.4068400083266808
1.90583499476774,5.880795700018933,-0.016682639586597603,0.4098991296000055,-1.4322106193438398
1.9023146698838387,5.796237560692052,-0.01684426406960484,0.3954164830369445,-1.4558011973012954
1.8987608449830329,5.714714042455178,-0.017001687366641274,0.380997976361845,-1.4774548682320008
1.895174559987192,5.63621154987128,-0.01715340783184128,0.3666448101514481,-1.4970059974297683
1.891557177922444,5.560716205034293,-0.017297849927664855,0.3523584740103351,-1.514279343611421
1.8879104015643502,5.488213783463181,-0.017433353482752947,0.33814077904787093,-1.529089142905477
1.884236292504947,5.418689642699043,-0.01755816136870663,0.32399389489628666,-1.5412381199322145
1.8805372929972015,5.352128642591662,-0.017670405371726747,0.3099203918406745,-1.5505164251981844
1.8768162509836446,5.288515056138884,-0.01776808999548098,0.2959232886619742,-1.5567005011869797
1.8730764487765543,5.227832469615635,-0.017849073881570143,0.2820061067975607,-1.5595518844546714
1.8693216359297538,5.170063670606975,-0.017911048468910652,0.2681729313801407,-1.5588159585592263
1.8655560669307993,5.115190522454906,-0.017951513425894315,0.2544284795919454,-1.5542206839737023
1.861784544452989,5.063193823563424,-0.01796774826753658,0.2407781765173958,-1.5454753480122496
1.8580124690484408,5.014053150016405,-0.01795677939482819,0.22722823821611446,-1.5322694028040655
1.8542458963509372,4.9677466801038435,-0.017915341533777867,0.21378576095114657,-1.5142714962290282
1.8504916031135767,4.92425099971134,-0.017839832155368544,0.2004588142155413,-1.4911288549258277
1.846757163769185,4.883540888239409,-0.01772625683883666,0.1872565331361918,-1.46246725786683
1.8430510397327362,4.845589085986813,-0.017570162555916348,0.1741892026028342,-1.4278919547943774
1.8393826844667225,4.81036604606027,-0.017366554263261776,0.16126832050709158,-1.3869900517207767
1.835762668571777,4.777839677306471,-0.017109787593362034,0.1485066200052749,-1.3393351267955154
1.8322028311274172,4.747975090131593,-0.01679342616244506,0.1359180197554673,-1.2844951804488707
1.8287164666596007,4.720734365221514,-0.016410044959616548,0.12351745557860844,-1.2220454916276564
1.82531856222755,4.696076377116498,-0.01595094963134129,0.11132052637393541,-1.1515885633204859
1.8220261074734103,4.673956721264041,-0.0154057623128463,0.09934286269709781,-1.0727840647556617
1.8188585141238947,4.654327814677057,-0.014761793396827672,0.08759910479798484,-0.9853923542611359
1.8158382036603071,4.637139264059439,-0.014003068161146937,0.07610137727457475,-0.889335331590593
1.8129914579212985,4.622338611858282,-0.013108796019888671,0.06485721511739684,-0.7847769393880399
1.8103496860941526,4.609872556371563,-0.01205093566721574,0.05386712285135915,-0.6722204968666885
1.8079513608535762,4.5996886466595726,-0.01079025710017767,0.04312249345331246,-0.5526080001038377
1.8058450667254329,4.591737185622819,-0.00926968697737862,0.03260570689672155,-0.4273850413980954
1.8040945723942414,4.585972476907454,-0.007401687605395377,0.022296280868669242,-0.2984681094351327
1.8027884477958327,4.5823511869741544,-0.0050375942842127465,0.012192194686573603,-0.16803688372591083
1.80206523535771,4.580820397873062,-0.0018501432217170855,0.0023867491333661277,-0.038110656141507576
