x,y,v_x,v_y,omega
2.375,32.48,0.0,2.923076923076923,-6.653061224489796
2.3735702392857974,31.90207294609018,-0.014297607142026958,2.8561936160212515,-6.245795093539744
2.3694830765421746,31.3372549241752,-0.0265740202942018,2.7919866031285614,-5.875718850839982
2.3631153510356424,30.785028694335303,-0.037103234771117946,2.730275695270388,-5.538392336296701
2.3547931718695825,30.244911280378837,-0.04611855688948352,2.6708984442942887,-5.230008587855752
2.344799379660184,29.716450663884668,-0.053819365204501646,2.613707720647394,-4.947289710867756
2.333379782325432,29.19922292004884,-0.06037660814301741,2.5585697177108746,-4.687402172038293
2.320748391114187,28.692829719010376,-0.0659373039694315,2.505362292673775,-4.447887448447482
2.307091836101498,28.19689613220073,-0.0706282461574583,2.4539735754226633,-4.226604911908822
2.29257310439152,27.711068695372184,-0.07455907094232277,2.404300792862833,-4.02168453388467
2.2773347163686775,27.235013689291968,-0.07782480928609967,2.3562492679392966,-3.83148752532674
2.261501433498904,26.76841560634579,-0.08050801941163642,2.3097315615224705,-3.6545734271266928
2.245182573941788,26.310975776987398,-0.08268057615952148,2.2646667320614773,-3.489672474126205
2.228473998517404,25.86241113447573,-0.0844051780843201,2.220979693055186,-3.3356622929488005
2.211459818581204,25.42245309993465,-0.08573662127767923,2.178600652355639,-3.1915481786789672
2.1942138684982004,24.990846572659425,-0.08672287955235927,2.1374646203966075,-3.0564463403327644
2.176800978219804,24.567349012934937,-0.08740602323160562,2.09751097684827,-2.929569619511373
2.1592780756056476,24.15172960654037,-0.08782300290995616,2.058683087097371,-2.8102152775869453
2.141695143330053,23.7437685016847,-0.08800631984598965,2.020927961459372,-2.697754519486737
2.1240960512595666,23.343256110415346,-0.08798460085887602,1.9841959512341645,-2.591623480594964
2.106519281920284,22.94999246762324,-0.08778309253394949,1.9484404766868642,-2.4913154505211126
2.088998563962081,22.563786641672444,-0.08742408704807843,1.9136177828211147,-2.396374145827371
2.07156342626854,22.184456191445022,-0.0869272898873365,1.879686719453091,-2.3063878750785975
2.0542396834741155,21.81182666523771,-0.08631013805690725,1.8466085426200483,-2.220984465188931
2.0370498620679003,21.4457311374966,-0.08558807600524422,1.8143467347910043,-2.139826839098424
2.0200135749328605,21.086009779846794,-0.08477479534515317,1.7828668417070805,-2.0626091521954932
2.003147851047436,20.732509463278152,-0.08388244350909257,1.752136323979338,-1.98905340930015
1.9864674261276254,20.385083388697836,-0.08292180568901217,1.7221244218238179,-1.9189064959917128
1.9699849991833336,20.043590743362877,-0.08190246375390597,1.692802031525801,-1.8519375680456962
1.9537114592791507,19.707896380969785,-0.08083293528792238,1.6641415924050962,-1.7879357510938323
1.9376560862073877,19.37787052340856,-0.07972079542970734,1.6361169832071463,-1.726708109626303
1.9218267282839663,19.053388482390304,-0.07857278380450676,1.6087034269754492,-1.6680778503493927
1.90622996005231,18.734330399335462,-0.0773948985120561,1.581877403572948,-1.611882729884726
1.8908712223155728,18.420581002066502,-0.0761924788553161,1.555616569116653,-1.5579736410030565
1.8757549466041055,18.112029376987508,-0.07497027825935608,1.5298996816732986,-1.50621335515329
1.8608846659152416,17.808568755556546,-0.07373252862928407,1.5047065326363152,-1.4564754020805724
1.846263113329772,17.510096313966162,-0.07248299722541073,1.480017883267517,-1.4086430699120294
1.8319074136698337,17.21651743361804,-0.07107399937397366,1.455770920213708,-1.3582086879628756
1.8178322526830084,16.927740807438198,-0.06967761049427945,1.431995341584725,-1.3100693962693775
1.8040349425549236,16.64367384337886,-0.06829549078656612,1.4086742990086583,-1.2640935968164344
1.7905124886324104,16.364227241645658,-0.06692904843856612,1.3857917183233461,-1.2201586700174607
1.7772616369210918,16.089314844356895,-0.06557946867461961,1.3633322545642832,-1.1781502645605557
1.7642789161014814,15.818853493891304,-0.0642477395214861,1.3412812500916331,-1.1379616509475425
1.7515606746818337,15.552762899322204,-0.06293467467498924,1.3196246955993784,-1.099493132349585
1.7391031138339037,15.29096551038488,-0.06164093380431265,1.2983491937738696,-1.0626515071068794
1.7269023163945108,15.033386398468426,-0.060367040589616075,1.2774419253906617,-1.0273495778188764
1.7149542724602682,14.77995314416357,-0.059113398752810346,1.2568906176578798,-0.993505702516699
1.7032549019539784,14.530595730934614,-0.057880306310087504,1.2366835146316841,-0.9610433838904159
1.691800074498217,14.28524644451695,-0.05666796824752735,1.216809349544968,-0.929890892968781
1.680585626893738,14.043839777672012,-0.05547650779726095,1.1972573189043987,-0.8999809240250584
1.6696073784669312,13.806312339959224,-0.05430597647080738,1.1780170582235037,-0.8712502778157004
1.6588611445210586,13.572602772209788,-0.05315636298792023,1.1590786192708542,-0.8436395705542481
1.648342748099942,13.342651665410436,-0.05202760122324656,1.1404324487226434,-0.8170929662854409
1.6380480302497151,13.11640148372635,-0.050919577279021536,1.1220693681182232,-0.7915579305581623
1.6279728589438482,12.893796491411972,-0.04983213577964659,1.1039805550255521,-0.7669850035039595
1.6181131368185726,12.674782683376307,-0.04876508547310872,1.0861575253311087,-0.7433275906134857
1.6084648078498012,12.459307719185624,-0.047718204214606805,1.0685921165757275,-0.7205417696689559
1.599023863088411,12.247320860301642,-0.04669124339929406,1.0512764722640904,-0.6985861124388865
1.5897863455581234,12.0387729103671,-0.045683931903582255,1.034203027081304,-0.6774215198740209
1.580748354408979,11.833616158363451,-0.044695979587860986,1.0173644929552044,-0.6570110696621914
1.5719060484094274,11.631804324477155,-0.043727080407656875,1.0007538459077563,-0.6373198751064885
1.5632556488511518,11.433292508522054,-0.04277691517509972,0.9843643136432549,-0.618314954386863
1.5548017833084207,11.23822453200706,-0.04176174025220995,0.9663154515067073,-0.637434463038963
1.546546208728064,11.0467549309047,-0.04079400555135647,0.9483805595168654,-0.6583567387290679
1.5384795507785978,10.858861221721746,-0.039872573943306115,0.9305565323126691,-0.6809647583075173
1.530592667309366,10.674521529440025,-0.03899626074901267,0.9128403905045384,-0.705144287602589
1.5228766573023336,10.49371456279156,-0.038163839321310816,0.8952292759801109,-0.7307836201628183
1.5153228687586755,10.316419590428826,-0.037374046115269434,0.8777204476472474,-0.7577733226729826
1.507922905618808,10.142616417904005,-0.03662558528340606,0.8603112776009628,-0.7860059859642203
1.5006686338076065,9.972285365373526,-0.03591713282860913,0.8429992477038303,-0.8153759805560447
1.4935521864903014,9.805407245945915,-0.03524734034444056,0.8257819465722998,-0.8457792156774907
1.48656596861891,9.641963344592256,-0.03461483836947301,0.8086570669643094,-0.8771129007162743
1.4797026608440198,9.481935397539164,-0.03401823937942954,0.7916224035665873,-0.909275308038513
1.4729552228622653,9.325305572064188,-0.03345614043811364,0.7746758511831733,-0.9421655361070581
1.466316896265912,9.17205644661287,-0.03292712552542111,0.7578154033299844,-0.9756832718035429
1.459781206957561,9.022170991155498,-0.032429767558088254,0.7410391512437476,-1.009728550827479
1.4533419671901295,8.875632547699386,-0.03196263011622759,0.724345283317375,-1.0442015150047073
1.446993277289896,8.732424810869855,-0.03152426888610936,0.7077320849779293,-1.0790021652866868
1.4407295271185812,8.592531808469285,-0.031113232827036527,0.691197939027769,-1.1140301091608915
1.434545397329127,8.455937881919073,-0.03072806506750635,0.6747413264743632,-1.1491843011203047
1.428435860469064,8.322627666483669,-0.030367303533123197,0.6583608278796891,-1.1843627747559096
1.4223961819851623,8.192586071169082,-0.030029481305893585,0.6420551252661839,-1.2194623649394043
1.4164219211834168,8.065798258180163,-0.029713126711561556,0.6258230046230072,-1.2543784184533102
1.410508932199411,7.9422496218114595,-0.029416763128493298,0.6096633590640067,-1.2890044913014345
1.4046533650357365,7.821925766635317,-0.029138908508253587,0.5935751926974128,-1.3232320307935876
1.3988516667254725,7.70481248483787,-0.028878074594387848,0.5775576252770599,-1.3569500403440447
1.3931005826838354,7.590895732538559,-0.028632765821982337,0.5616098977160286,-1.3900447247532504
1.3873971583140108,7.480161604911334,-0.028401477876264306,0.545731378556215,-1.422399113556988
1.3817387409380082,7.372596309905546,-0.02818269588376045,0.5299215715016763,-1.453892659827682
1.376122982129204,7.268186140341388,-0.027974892204282547,0.51418012413992,-1.4844008116008398
1.3705478405301588,7.166917444128014,-0.027776523786170206,0.4985068379938311,-1.513794552879667
1.3650115852474722,7.068776592321836,-0.027586029040694914,0.4829016800679485,-1.541939910948827
1.3595127999249825,6.973749944707386,-0.027401824184201697,0.4673647960765359,-1.5686974265138316
1.3540503876077326,6.881823812542976,-0.027222298988297117,0.4518965255675812,-1.5939215829902929
1.3486235765220014,6.7929844180675545,-0.02704581186901574,0.4364974191866313,-1.617460191118938
1.3432319269115798,6.707217850313167,-0.026870684235199522,0.42116825835725413,-1.6391537250096857
1.3378753390876565,6.624510016708374,-0.026695194004032783,0.40591007769068377,-1.6588346057673087
1.3325540628695105,6.54484658989178,-0.02651756817742754,0.3907241904752618,-1.6763264290887507
1.327268708616142,6.468212949080712,-0.02633597435625621,0.37561221763542746,-1.6914431337435152
1.3220202600755575,6.394594115258361,-0.02614851104958896,0.3605761205880879,-1.7039881087904583
1.316810089309387,6.3239746793537925,-0.02595319661211474,0.34561823845760925,-1.713753238942557
1.3116399739868414,6.256338722494675,-0.025747956613340926,0.33074133013356466,-1.7205178899457598
1.30651211738503,6.191669727315464,-0.025530609404772746,0.3159486216585351,-1.7240478395895402
1.3014291714842823,6.129950479209377,-0.025298849602704482,0.3012438594023272,-1.7240941655890318
1.2963942636100818,6.071162956329953,-0.02505022913929993,0.28663136939191586,-1.7203921098940067
1.2914110271516377,6.015288207091793,-0.024782135445140834,0.2721161229896876,-1.712659951167939
1.286483636987175,5.962306213913276,-0.02449176619948571,0.2577038087954711,-1.7005979349330174
1.2816168503772694,5.912195742022291,-0.024176099899570886,0.2434009101143923,-1.683887336619505
1.2768160542648637,5.864934172363885,-0.023831861224485627,0.22921478646968155,-1.662189769958101
1.2720873201674712,5.8204973180888615,-0.02345547974943858,0.21515375628055622,-1.635146906744822
1.2674374682008411,5.778859224888002,-0.02304303991686076,0.20122717572802476,-1.6023808509406035
1.2628741422938752,5.739991956750099,-0.022590219152799424,0.18744550565101817,-1.5634955199777407
1.2584058994380805,5.703865370827383,-0.0220922094051477,0.17382035357614228,-1.518079542012922
1.254042317016573,5.670446888363141,-0.02154361480992492,0.1603644710662674,-1.4657113963025408
1.2497941241279185,5.639701273581615,-0.020938314076621882,0.14709167674898105,-1.4059678240758116
1.2456733657612984,5.611590439706468,-0.020269269589578524,0.13401666200250179,-1.3384369364108635
1.241693613333735,5.586073311578335,-0.01952825468605413,0.12115461927883904,-1.262737945733225
1.2378702424798307,5.5631057882252115,-0.018705453852990262,0.10852061425238663,-1.1785500040615429
1.2342208106596628,5.5426408659106485,-0.01778886434868726,0.09612860889325843,-1.0856530843559293
1.2307655855133819,5.524629000031229,-0.01676338711412147,0.08399004990092448,-0.9839837832025928
1.2275283035831808,5.509018794813727,-0.01560943218788905,0.07211200227410053,-0.8737074761379895
1.2245372839642785,5.495758094503575,-0.014300764001133646,0.06049500082740404,-0.7553038213956897
1.2218270945279284,5.484795471794879,-0.012801130362367928,0.04913122625956661,-0.629652923116046
1.2194411025661016,5.476081905127547,-0.011058789255899608,0.03800444041375216,-0.49809296624436455
1.217435554517455,5.469572002468663,-0.008996691230565698,0.02709458617507056,-0.36239993490873923
1.2158868157990286,5.46522321528856,-0.006490695953699794,0.016393285625952478,-0.22462884195972807
1.2149078062614023,5.462988667793994,-0.00329939942256372,0.005952189319697147,-0.08677443886372374
