x,y,v_x,v_y,omega
2.375,32.48,0.0,2.051282051282051,-2.1224489795918373
2.374758769572647,32.11397071354369,-0.0026803380817005283,2.015710020454692,-2.0341080662915667
2.3740600558908196,31.754266555541765,-0.005083147271936884,1.9810028462333784,-1.9509007818095159
2.372951479348286,31.400735111991043,-0.007234369867323799,1.9471243043301663,-1.8724245272471474
2.3714762260196975,31.05323030690291,-0.009157333783658034,1.9140401966491134,-1.798314852262195
2.3696734920797478,30.71161205083984,-0.010873043326898547,1.8817182040516744,-1.728241303915413
2.367578879088043,30.375745914740328,-0.012400434358706766,1.8501277526095503,-1.6619037823349223
2.3652247461186704,30.045502826741828,-0.013756598634321847,1.8192398918182462,-1.5990293347567504
2.3626405239164043,29.72075878996747,-0.014956981390856574,1.7890271834523805,-1.5393693296284623
2.3598529955803946,29.401394619464075,-0.016015555675922218,1.7594635999186716,-1.482696960959126
2.3568865476926146,29.08729569667146,-0.01694497641052128,1.7305244311103718,-1.4288050402481927
2.353763395307204,28.778351739971207,-0.01775671676070536,1.7021861988924634,-1.3775040393594502
2.3505037837854297,28.47445659001003,-0.018461189036789106,1.6744265784539634,-1.328620352812449
2.347126170088837,28.17550800862219,-0.01906785203646082,1.6472243258553294,-1.2819947522968191
2.343647385821427,27.881407490289217,-0.01958530649031732,1.6205592111777123,-1.2374810099012543
2.340082784032973,27.592060085175838,-0.02002138004806222,1.5944119567487482,-1.1949446696928512
2.3364463715537016,27.307374232870394,-0.020383203054950557,1.568764179978402,-1.1542619499701525
2.3327509284202033,27.027261606037285,-0.02067727620614363,1.5435983403894784,-1.1153187608160904
2.3290081157691866,26.751636963259756,-0.020909531027374476,1.5188976904719629,-1.0780098235544882
2.3252285734157954,26.480418010414642,-0.02108538401030572,1.4946462300292993,-1.0422378804154397
2.3214208225759467,26.213526104508496,-0.02122295865468132,1.47081939115007,-1.007134174676136
2.3175920253683917,25.950885268279478,-0.02131923254037361,1.4474121225057046,-0.9735210056957068
2.3137492819181547,25.692421239349258,-0.0213779169067029,1.4244104211634008,-0.9413183131944094
2.309899052936758,25.43806222252238,-0.021402405108821226,1.401800876913045,-0.9104511461078093
2.3060472143789172,25.187738785959944,-0.021395801089408067,1.3795706404473438,-0.8808492843559761
2.302199107220407,24.94138376289707,-0.021360945116256146,1.3577073935846267,-0.8524468923714134
2.298359582823773,24.69893215855021,-0.021300437068570755,1.3361993213804297,-0.8251822014069229
2.294533044310503,24.460321061887115,-0.021216657523315554,1.3150350859873234,-0.7989972179529505
2.2907234843155355,24.225489561956152,-0.02111178686521206,1.2942038021344782,-0.7738374558674135
2.2869345194619064,23.994378668494207,-0.020987822619556982,1.2736950141093284,-0.749651690063849
2.2831694218594563,23.766931236552352,-0.020846595185445214,1.2534986741335117,-0.7263917298196702
2.2794311479012537,23.543091894897263,-0.02068978212791706,1.2336051220341453,-0.7040122099585996
2.2757223646043805,23.32280697796343,-0.0205189211706745,1.2140050661195654,-0.6824703983327887
2.272045473717574,23.10602446114683,-0.020335422016062678,1.194689565175959,-0.6617260181831666
2.2684026337966103,22.89269389924528,-0.020140577105754648,1.175650011507969,-0.6417410840933464
2.26479578042895,22.682766367863845,-0.019935571423805563,1.1568781149523983,-0.6224797503748153
2.2612266447718126,22.476194407616163,-0.019721491433278594,1.138365887799644,-0.6039081708307891
2.2576967705522675,22.272931970963565,-0.019499333228334213,1.120105630562523,-0.5859943689444655
2.254207529663933,22.072934371544633,-0.019270009975380926,1.102089918536728,-0.5687081176257179
2.2507601364822944,21.876158235857204,-0.019034358709490825,1.084311589101358,-0.5520208277296524
2.247355661009329,21.68256145716402,-0.018793146545683224,1.0667637297117887,-0.5359054446318832
2.243995040947927,21.4921031515013,-0.018547076358783353,1.0494396665406778,-0.5203363522097197
2.2406790927974103,21.30474361567729,-0.018296791980290193,1.032332953726107,-0.5052892836364818
2.2374085220531468,21.120444287154946,-0.018042882955968155,1.0154373631888312,-0.4907412384485214
2.2341839325857813,20.939167705719452,-0.01778588890364915,0.9987468749833143,-0.47667040539184546
2.231006344056473,20.7610983124955,-0.017520650310890364,0.9798019386161572,-0.5112609656950755
2.227873772282689,20.586429546206055,-0.01728570273115027,0.9609621312665615,-0.547112557082619
2.2247808326453065,20.41514272047143,-0.017080293239770165,0.9422248213404143,-0.5841219577985708
2.2217222805263606,20.24721961333117,-0.016903619192961353,0.9235874802180376,-0.6221873839399391
2.2186930198390336,20.0826424489432,-0.016754832888449114,0.9050476796482453,-0.6612082704730238
2.215688110757163,19.92139387972017,-0.016633045799002315,0.8866030894965399,-0.7010850529510987
2.2127027767189666,19.763456968839122,-0.016537332403178114,0.8682514758484683,-0.7417189489966431
2.209732410775554,19.608815173060286,-0.01646673363474477,0.8499906994719225,-0.7830117385839448
2.206772581351176,19.457452325789752,-0.016420259969447924,0.8318187146451147,-0.8248655421226342
2.2038190374790734,19.30935262031928,-0.016396894165031164,0.8137335683601284,-0.8671825952990637
2.200867713574129,19.164500593174484,-0.016395593667684512,0.7957333999153878,-0.9098650195797777
2.197914733801456,19.022881107499828,-0.016415292695346903,0.7778164409141537,-0.9528145872188972
2.194956416098379,18.884479336405423,-0.016454904005502886,0.7599810156903163,-0.9959324795382426
2.191989275906181,18.749280746196433,-0.01651332035225841,0.7422255421873725,-1.0391190371644905
2.1890100296673705,18.61727107940062,-0.016589415634523715,0.7245485333216396,-1.0822735008105828
2.1860155981442,18.488436337503682,-0.01668204573403686,0.7069485988665617,-1.1252937410778294
2.1830031096146545,18.362762763294555,-0.016790049038691194,0.6894244479015158,-1.1680759756294399
2.1799699030032897,18.240236822714582,-0.01691224664314077,0.6719748918759516,-1.2105144719442889
2.1769135310060657,18.120845186094414,-0.017047442214902512,0.6545988483481439,-1.2525012337002146
2.1738317632708157,18.004574708651006,-0.017194421510100203,0.6372953454674706,-1.2939256686577327
2.1707225896982374,17.891412410103722,-0.017351951518543657,0.6200635272801416,-1.3346742357164798
2.167584223932404,17.781345453252925,-0.017518779212941267,0.6029026599509145,-1.37463006859694
2.1644151071147926,17.674361121346642,-0.017693629871630003,0.5858121390077967,-1.413672573358397
2.1612139119819087,17.570446794039942,-0.017875204938189445,0.5687914977333263,-1.451676996700589
2.157979547393759,17.469589921727888,-0.018062179374588788,0.5518404168450697,-1.4885139617122218
2.154711163388917,17.371777998005147,-0.018253198456987016,0.5349587356298198,-1.5240489674268989
2.1514081568718524,17.276998529973575,-0.018446873954838922,0.5181464647209947,-1.5581418482310352
2.148070178049721,17.185239006082327,-0.018641779624404168,0.5014038007373295,-1.590646188847332
2.1446971377492,17.09648686114295,-0.01883644593693778,0.4847311430334975,-1.6214086903047813
2.141289215759416,17.010729438113422,-0.01902935394954826,0.46812911285014763,-1.6502684820227251
2.137846870364815,16.927953946189607,-0.019218928212688047,0.45159857519224683,-1.6770563749136103
2.1343708492523774,16.84814741467935,-0.019403528592171156,0.4351406638106205,-1.701594050293492
2.1308622020012247,16.771296642062325,-0.019581440865085092,0.4187568097118892,-1.7236931794499422
2.1273222943898973,16.69738813955744,-0.019750865927438112,0.40244877367572207,-1.7431544690546057
2.123752824788077,16.626408068428397,-0.019909907426120123,0.3862186833136206,-1.7597666283691167
2.120155842935932,16.558342170157047,-0.02005655759771604,0.37006907525694416,-1.7733052555918474
2.116533771456703,16.493175688504216,-0.020188681060382463,0.3540029431078306,-1.7835316430388612
2.1128894304978574,16.43089328236111,-0.0203039962601256,0.3380237918155672,-1.79019150459505
2.1092260659550104,16.371478928175325,-0.020400054215950675,0.3221356991376091,-1.7930136346635313
2.1055473818035044,16.31491581062231,-0.020474214134114786,0.3063433847847828,-1.791708516631543
2.101857577148891,16.261186200098972,-0.020523615361591384,0.2906522876967622,-1.7859669120391561
2.0981613887155213,16.21027131556328,-0.020545145009185153,0.2750686515887301,-1.7754584811917637
2.094464139631091,16.162151171267496,-0.020535400373371985,0.2595996183644211,-1.7598305148227387
2.090771795548688,16.116804406088452,-0.020490644986659524,0.24425332806940156,-1.7387068988406467
2.0870910293996405,16.074208094531997,-0.020406756669424278,0.22903902255787303,-1.711687496346901
2.0834292964275205,16.034337539212096,-0.020279165243023308,0.21396714766325942,-1.6783482218497334
2.0797949216769185,15.997166045876583,-0.02010277643033107,0.19904944495357169,-1.638242214521555
2.0761972029003912,15.962664684167109,-0.019871876642192882,0.1842990184850081,-1.590902707932288
2.0726465330692134,15.930802040690107,-0.019580010370895067,0.16973035348169158,-1.5358484662324194
2.0691545486033514,15.901543976242479,-0.019219817027569454,0.15535925149195748,-1.4725930399097875
2.065734312529023,15.87485340698056,-0.01878280602052321,0.1412026291960416,-1.4006596173743666
2.062400546779551,15.850690140889512,-0.018259035640274795,0.12727810514892332,-1.319603926378311
2.0591699360046074,15.82901081694106,-0.01763663963687843,0.11360327205607981,-1.229048431028671
2.056061538524128,15.809769014799993,-0.01690111014622687,0.10019452951132367,-1.128731786191839
2.05309736160475,15.792915625151412,-0.016034188957976356,0.08706535547290396,-1.0185776185992423
2.050303193058131,15.778399585388971,-0.015012128226680608,0.07422397522087801,-0.8987849837448337
2.0477098377254674,15.766169069434572,-0.0138029310251326,0.06167064649467011,-0.7699369591554641
2.0453550031105365,15.756173125881453,-0.012361898029658546,0.04939539298442566,-0.6331103082603033
2.043286262331392,15.748363499344002,-0.010624110627503307,0.037378235209481615,-0.4899454283174184
2.041565976588559,15.74269579624811,-0.008490175403967688,0.025596243633759393,-0.3426066615589205
2.0402806154571667,15.73912785062793,-0.005791614944842238,0.014047596590444073,-0.19354853710004033
2.03956506601587,15.737608174395643,-0.002158934402896597,0.002837694879404277,-0.04504497769025004
