x,y,v_x,v_y,omega
2.375,32.48,0.0,2.871794871794872,-5.183673469387755
2.373899150993263,31.91209965984012,-0.01100849006737187,2.807208529803909,-4.871622672111158
2.3707504693131494,31.356867296213608,-0.02047832673376223,2.7451151064611885,-4.587510870231237
2.3658411529343137,30.81382017540923,-0.028614837054594867,2.6853561015826113,-4.328072176051504
2.3594203179946103,30.282505831846557,-0.03559351234243922,2.6277873340441085,-4.0904949035805025
2.3517044851957527,29.762499380875475,-0.04156481564613487,2.572277175666691,-3.8723491710872957
2.3428821908012507,29.253401156512346,-0.04665812829888777,2.518705067964619,-3.6715274929051316
2.3331178772805066,28.7548346230784,-0.050985006908550776,2.46696026637486,-3.486195764554959
2.322555188162153,28.26644451952815,-0.05464188427498824,2.416940769127639,-3.3147526190026686
2.3113197678238215,27.787895202885103,-0.057712319108326575,2.3685523973028086,-3.155795566257865
2.299521648154254,27.318869163184203,-0.06026887758734375,2.321707999706206,-3.0080926605094342
2.2872572890981338,26.859065687053135,-0.06237471297386272,2.2763267616044587,-2.8705586949067388
2.274611328158407,26.40819965084143,-0.06408489642340592,2.2323336005126166,-2.7422351229321613
2.261658084327179,25.96600042724496,-0.06544754188887145,2.189658635452049,-2.6222730609300227
2.2484628541451843,25.53221089183814,-0.06650475993107588,2.148236718616141,-2.5099188489744075
2.2350830312690992,25.10658651793979,-0.06729346882977626,2.1080070203673844,-2.4045017444771695
2.22156907576029,24.68889454989639,-0.06784608625831381,2.068912660066643,-2.3054234004664558
2.2079653550682203,24.27891324624001,-0.06819112066238352,2.0309003764971396,-2.212148842628281
2.1943108751866194,23.876431185324066,-0.06835367815362768,1.993920232662287,-2.1241987092972447
2.180639917568605,23.481246627001717,-0.06835589802651751,1.9579253505612173,-2.0411425591423438
2.1669825949855177,23.093166924723665,-0.06821732780435265,1.922871672219285,-1.9625930842810557
2.153365337513342,22.71200798312131,-0.06795524691740538,1.8887177438042502,-1.888201093496406
2.1398113181581024,22.337593756729248,-0.06758494663498987,1.8554245201163886,-1.8176511523232133
2.126340826229425,21.969755786005486,-0.06711997265178066,1.8229551871212384,-1.7506577849527365
2.112971595392444,21.608332767242175,-0.06657233571803223,1.791275000511842,-1.6869621579247256
2.0997190923342024,21.253170153335518,-0.06595269486438564,1.760351138554756,-1.626329178025181
2.0865967711404254,20.904119782710037,-0.06527051707338216,1.7301525677000265,-1.5685449471605488
2.0736162977664425,20.561039533977322,-0.0645342166664462,1.7006499196271063,-1.5134145256147353
2.0607877483811388,20.22379300415839,-0.0637512771865954,1.671815378562209,-1.4607599623204561
2.0481197848477812,19.892249208517907,-0.0629283581469752,1.6436225778426485,-1.4104185568388605
2.0356198101660783,19.56628230025123,-0.062071388670056495,1.6160465048241208,-1.3622413228422314
2.0232941063239727,19.245771308435735,-0.06118564975099962,1.589063413330836,-1.3160916271978402
2.011147956685645,18.930599892808804,-0.06027584663227519,1.562650742938459,-1.2718439823907497
1.999185754765643,18.62065611406915,-0.05934617256774504,1.5367870444581104,-1.22938297310949
1.9874111010011744,18.315832218517542,-0.058400365076942434,1.5114519110579558,-1.188602300441551
1.9758268889295596,18.016024435959878,-0.057441755639206414,1.4866259145186678,-1.149403929360209
1.9644475383540705,17.721135659373303,-0.05635175011568456,1.4622618513470589,-1.1081497121573827
1.9532854502763048,17.431072224248016,-0.05526913066197269,1.4383724999058254,-1.0687783583890835
1.9423389924467909,17.14574088300782,-0.05419544763316575,1.414940912496125,-1.031181644692124
1.9316062447502302,16.865051699996997,-0.05313202933243951,1.3919509176121068,-0.9952587472185076
1.921085041083901,16.588917900725562,-0.05208000733085326,1.3693870751022426,-0.9609156553176689
1.910773006457904,16.31725572977268,-0.05104033892911705,1.347234634426603,-0.9280646378791747
1.9006675898553462,16.049984316754,-0.05001382709646174,1.32547949576019,-0.8966237570590511
1.8907660933276689,15.787025549806422,-0.04900113818030999,1.3041081737155604,-0.8665164246955366
1.8810656977451947,15.528303956086997,-0.04800281764443307,1.2831077634786883,-0.8376709972325086
1.8715634855745575,15.273746588822071,-0.04701930406193817,1.2624659091705772,-0.8100204054202311
1.8622564610121515,15.023282920478632,-0.0460509415621223,1.2421707742638086,-0.7835018154613116
1.853141567765299,14.77684474166243,-0.04509799090640267,1.222211013898214,-0.7580563186215967
1.8442157047398866,14.53436606537727,-0.044160639347719355,1.20257574895337,-0.7336286466370499
1.8354757398641546,14.295783036307153,-0.04323900940960227,1.1832545417478018,-0.7101669105234714
1.826918522252679,14.061033844807792,-0.042333166705154086,1.1642373732457985,-0.6876223606406461
1.8185408928919409,13.830058645316942,-0.04144312690222686,1.1455146216626924,-0.6659491660799103
1.8103396940088374,13.602799478913823,-0.040568861928806446,1.127077042368489,-0.6451042116375331
1.8023117772657724,13.379200199777184,-0.03971030550184433,1.1089157489979027,-0.6250469108085693
1.794454010910258,13.159206405309163,-0.0388673580533005,1.0910221956822888,-0.6057390333894648
1.786763285993046,12.942765369708365,-0.03803989111881831,1.0733881603257125,-0.587144546414863
1.779236521756454,12.72982598079044,-0.03722775124710017,1.0560057288535365,-0.5692294672766892
1.7718706702835876,12.520338679868335,-0.036430763481567485,1.038867280367512,-0.551961727983327
1.7646627204894145,12.314255404516938,-0.03564873446016162,1.0219654731464605,-0.5353110496150418
1.7576097015259902,12.111529534058661,-0.03488145517408179,1.0052932314362952,-0.5192488261200088
1.750708685666404,11.912115837617293,-0.034128703421779094,0.9888437329773933,-0.5037480166745089
1.7439631116541963,11.716152056862907,-0.033327036700298046,0.9707940745664719,-0.5250409180405601
1.7373736640926332,11.523786880724312,-0.0325674389153324,0.9528576868194669,-0.5480904232271248
1.7309320193991211,11.33499796263786,-0.03184900801978756,0.9350314940450442,-0.5727828188157237
1.7246300400637455,11.149763558930111,-0.031170785333969327,0.9173125430324407,-0.599007055152543
1.7184597853736225,10.968062504776142,-0.030531761567259678,0.8996979985072289,-0.6266544962491433
1.7124135209862643,10.789874191025003,-0.029930882306322636,0.8821851390041555,-0.6556186757490803
1.7064837274549125,10.615178541810128,-0.029367053007195186,0.8647713531446062,-0.6857950579420904
1.7006631078016747,10.443955992864769,-0.028839143525181313,0.8474541363089677,-0.7170808028202795
1.6949445942278352,10.276187470464183,-0.02834599221321589,0.8302310876968991,-0.7493745341761808
1.6893213540448864,10.111854370917364,-0.027886409616273394,0.813099907771307,-0.782576109740514
1.683786794904615,9.950938540531762,-0.02745918178643876,0.7960583960846885,-0.8165863923478048
1.67833456940193,9.793422255974345,-0.02706307324040944,0.7791044494894914,-0.8513070211004659
1.6729585791200459,9.639288204951669,-0.02669682957843386,0.7622360607372862,-0.8866401814761458
1.6676529781841039,9.488519467130452,-0.02635917978098744,0.7454513174748961,-0.9224883732887175
1.662412176386323,9.341099495218039,-0.02604883819681732,0.7287484016492327,-0.958754175369676
1.657230841943309,9.197012096119465,-0.025764506233325414,0.7121255893364997,-0.9953400057833622
1.6521039039442185,9.056241412084244,-0.025504873757578577,0.6955812510157142,-1.0321478763256424
1.64702655454711,8.918771901751551,-0.02526862021350628,0.679113852311223,-1.0690791399806692
1.6419942509799554,8.784588320997013,-0.025054415458039422,0.6627219552341521,-1.1060342299232961
1.637002717402549,8.653675703477738,-0.02486092031602604,0.646404219958601,-1.1429123885546737
1.6320479466858768,8.526019340764378,-0.024686786850695062,0.6301594071749967,-1.1796113849445669
1.6271262021664885,8.401604761939833,-0.024530658343188808,0.6139863810704738,-1.2160272189249903
1.6222340194350489,8.280417712533328,-0.024391168971205936,0.5978841129945822,-1.2520538099349066
1.6173682082206242,8.162444132646048,-0.02426694317304135,0.5818516858782145,-1.2875826685540832
1.6125258544353975,8.047670134109772,-0.024156594679225093,0.5658882994845508,-1.3225025484851143
1.6077043224485261,7.93608197650299,-0.024058725189489264,0.5499932765832733,-1.3566990765457283
1.6029012576627908,7.827666041829314,-0.023971922667863188,0.5341660701535057,-1.3900543580191294
1.5981145894736808,7.722408807640246,-0.023894759223236337,0.5184062717371641,-1.4224465544793723
1.5933425346976924,7.620296818358238,-0.02382578853664895,0.5027136210829319,-1.4537494309641923
1.5885836015650505,7.521316654525727,-0.023763542789770928,0.4870880172421877,-1.483831869113788
1.583836594381934,7.4254548996712835,-0.023706529041393642,0.47152953130223957,-1.5125573426382346
1.5791006189787797,7.332698104444116,-0.023653224990147645,0.4560384209694335,-1.5397833512301746
1.5743750890745745,7.243032747622635,-0.023602074051905054,0.4406151472453736,-1.565360808820967
1.5696597337024616,7.15644519355072,-0.02355147966922415,0.4252603934737768,-1.5891333819141884
1.5649546058597905,7.072921645496006,-0.023499798757486895,0.40997508707337893,-1.6109367736594065
1.5602600925662684,6.992448094357318,-0.023445334177735193,0.39476042431351466,-1.6305979494086933
1.5555769265375763,6.915010262072695,-0.023386326109183897,0.3796178985327175,-1.6479342998114084
1.550906199709221,6.840593538994888,-0.023320942174368822,0.36454933224536124,-1.6627527381693237
1.546249378877183,6.769182914407931,-0.023247266146013416,0.34955691362418867,-1.6748487299672263
1.54160832375901,6.7007628992572315,-0.023163285035715547,0.33464323788282835,-1.684005254463033
1.5369853078225786,6.635317440058504,-0.023066874328600034,0.31981135410443323,-1.6899917013253256
1.5323830422814866,6.572829822842241,-0.02295578108231806,0.3050648180582121,-1.692562710062723
1.527804703718373,6.513282565886833,-0.02282760454881811,0.29040775149586434,-1.691456967145327
1.5232539658738622,6.456657299907707,-0.02267977389629172,0.27584490829538666,-1.6863959863516922
1.5187350362346619,6.402934634320626,-0.02250952249570984,0.2613817475754145,-1.677082913542935
1.5142526981776954,6.352094008216003,-0.022313858073955292,0.24702451347081808,-1.6632014200190064
1.5098123595907444,6.304113524815264,-0.022089527795552854,0.23278032053657885,-1.6444147820978874
1.5054201091140245,6.258969768503821,-0.02183297697164919,0.21865724257783864,-1.620365293246674
1.5010827814635066,6.216637604159889,-0.021540299533527464,0.20466440086150178,-1.5906742256568007
1.4968080337575298,6.177089959592006,-0.02120717752624093,0.19081204481733732,-1.5549426600144582
1.492604435457387,6.140297593708883,-0.02082880547518662,0.1771116140139064,-1.5127536483949096
1.4884815755873402,6.1062288559318105,-0.020399793225284325,0.1635757637568147,-1.463676383052074
1.4844501925437852,6.074849446826583,-0.019914037210264145,0.15021832729547469,-1.4072733349238578
1.4805223344023828,6.0461221966500815,-0.01936454420375889,0.137054174469549,-1.3431117229009177
1.4767115617788398,6.020006888290585,-0.018743182031674,0.12409890912540944,-1.2707811931759014
1.4730332119477538,5.996460164720862,-0.018040316279184503,0.11136832657182175,-1.1899202088303658
1.469504753588044,5.975435578839964,-0.01724426731791182,0.09887753223715812,-1.1002542628230962
1.466146278563627,5.956883863932045,-0.016340482926259163,0.0866396168420365,-1.0016493078895385
1.4629812042092465,5.940753519904085,-0.01531026061754607,0.07466382343755795,-0.894182981187032
1.4600373024809152,5.9269918083082835,-0.014128756665769083,0.06295329252044757,-0.7782327684358902
1.4573482417720953,5.915546194292045,-0.012761850422428918,0.05150284764192984,-0.6545717441851612
1.4549559499085563,5.906366104145132,-0.011161068212961946,0.0402980538271926,-0.5244463904656699
1.4529143726853102,5.899404480393919,-0.009254704019498924,0.029318183684935502,-0.3895881700018222
1.4512959792891653,5.894617804109473,-0.006929229941950163,0.01854857915953055,-0.25209185301091575
1.45020556194358,5.891961062719119,-0.00397494351390373,0.00801883474402253,-0.1141010850596339
