x,y,v_x,v_y,omega
2.375,32.48,0.0,2.871794871794872,-2.612244897959184
2.3743735979981615,31.883892526351044,-0.005965733350843332,2.8054191629570564,-2.448276487256948
2.3725861422502055,31.301448273065812,-0.01105765472492919,2.7416689635689546,-2.2996739342360932
2.369808290367338,30.73213313130234,-0.015398077492855357,2.68038000560696,-2.164568773937415
2.366186959065821,30.175446037105374,-0.0190907920454013,2.621401843887983,-2.041360873013803
2.361848891108076,29.630916225648292,-0.022224140885503996,2.564596360465157,-1.9286746997076734
2.3569036350550547,29.09810077826481,-0.02487353580993789,2.509836471758491,-1.8253235121933613
2.351446043436503,28.576582423235045,-0.027103527223888094,2.457005004715465,-1.7302798930777352
2.3455583743030766,28.06596755766654,-0.028969512142077984,2.4059937149845796,-1.642651397104306
2.339312064846569,27.565884462943014,-0.03051914934846664,2.3567024252394866,-1.5616603393089763
2.3327692328667977,27.075981690383216,-0.03179353617316516,2.3090382658062136,-1.486626951823329
2.3259839515748424,26.59592659716859,-0.032828190416888815,2.2629150029045073,-1.416955293702613
2.319003334981013,26.125404015419743,-0.03365387238148212,2.2182524423225947,-1.3521214202702565
2.3118684644843834,25.66411503964867,-0.03429727520546832,2.174975898354316,-1.2916634144859176
2.3046151819214558,25.211775919779097,-0.03478160634622532,2.1330157194511243,-1.2351729587373717
2.297274769982749,24.76811704858358,-0.03512707878431381,2.092306863363329,-1.1822881857446492
2.2898745373635054,24.33288203378938,-0.03535132711324228,2.0527885156290595,-1.1326875953833435
2.2824383231182157,23.90582684630105,-0.035469760937136406,2.0144037461645636,-1.0860848628122246
2.2749869323120295,23.48671903701118,-0.03549586578844575,1.977099199453245,-1.0422243943523852
2.2675385131054515,23.075337015551074,-0.03544145998849005,1.9408248144525233,-1.000877512677789
2.260108883792576,22.671469385093253,-0.0353169144198508,1.9055335708600574,-0.961839173259372
2.2527118169740885,22.274914327976617,-0.035131340994311346,1.8711812588221932,-0.924925130609886
2.2453592869334917,21.88547903749837,-0.0348927546304212,1.8377262695420498,-0.8899694864532417
2.238061685357601,21.502979191717245,-0.03460821275901357,1.8051294045639525,-0.8568225630810415
2.230828009767311,21.127238465550683,-0.034283935719939325,1.7733537017842402,-0.8253490543284633
2.2236660283751135,20.758088077833637,-0.03392541087241674,1.74236427647333,-0.7954264141741939
2.216582424540188,20.395366370345307,-0.03353748279354156,1.7121281757964768,-0.7669434492422715
2.2095829235322646,20.038918416109603,-0.033124431567632534,1.6826142454959274,-0.7397990866960472
2.202672403927418,19.688595654539853,-0.03269004085948181,1.653793007549325,-0.7139012933579977
2.195854995630527,19.344255551233246,-0.032237657206143716,1.6256365477516872,-0.6891661255188147
2.1891341662405908,19.005761280429503,-0.03177024174562903,1.5981184122839556,-0.6655168919406468
2.182512797238257,18.67298142833429,-0.03129041541945292,1.5712135124323725,-0.6428834151146569
2.1759932512732036,18.34578971567415,-0.03080049853343857,1.5448980367118184,-0.6212013779853947
2.169577431656768,18.024064737998344,-0.03030254543261519,1.5191493697244358,-0.6004117451719386
2.1632668350179105,17.707689722376127,-0.029798374937457153,1.4939460171538088,-0.5804602492541565
2.1570713722349817,17.396553092868352,-0.02920603251900643,1.4692599781583215,-0.5589511451150831
2.150999751783552,17.09054741173178,-0.028618924161278887,1.4450798421899982,-0.5384621070570087
2.145050789085868,16.789568388471707,-0.028037863435708306,1.421387046001192,-0.5189323922996755
2.1392231420613874,16.4935155389504,-0.027463536797440354,1.398163901820755,-0.5003055603818543
2.1335153362102863,16.202292006965536,-0.02689651892733165,1.375393545654144,-0.4825291203525908
2.127925786666487,15.915804396304615,-0.02633728625171223,1.3530598892117536,-0.4655542107300448
2.122452817579305,15.633962612544504,-0.025786228864305916,1.3311475751702715,-0.44933530883605594
2.117094679138765,15.356679713924219,-0.02524366104559911,1.3096419354991256,-0.4338299665009556
2.111849562521244,15.083871770672914,-0.02470983054983703,1.2885289526085528,-0.418998569471576
2.1067156129986575,14.815457732223749,-0.02418492680812889,1.2677952230977787,-0.4048041181523206
2.1016909414251805,14.551359301788821,-0.023669088177368274,1.2474279239015338,-0.3912120275700586
2.096773634289974,14.291500817810814,-0.023162408348406677,1.227414780650915,-0.37818994468320494
2.0919617625020472,14.035809141844002,-0.02266494201280266,1.2077440380806141,-0.3657075813577129
2.0872533890538065,13.784213552450993,-0.02217670987520558,1.1884044323290013,-0.35373656151132143
2.0826465756926944,13.536645644732431,-0.021697703087764798,1.1693851649906177,-0.34225028108528477
2.0781393887152446,13.293039235135208,-0.02122788717366339,1.1506758787924602,-0.33122377964256183
2.0737299039846384,13.053330271210505,-0.020767205498772798,1.1322666347761448,-0.32063362251531313
2.0694162112612156,12.817456746016845,-0.020315582343350402,1.1141478908777553,-0.31045779253449446
2.0651964179251143,12.585358616885049,-0.019872925619518773,1.0963104818060023,-0.3006755904720401
2.061068652161205,12.35697772828205,-0.019439129274854614,1.0787456001273255,-0.2912675434130705
2.0570310656684896,12.132257738528924,-0.01901407541767576,1.0614447784738743,-0.2822153203530181
2.0530818359491105,11.911144050145488,-0.018597636195458286,1.0443998727969364,-0.27350165438366586
2.0492191682259,11.693583743609395,-0.01818967545416734,1.02760304659444,-0.2651102708937998
2.0454412970318887,11.479525514332078,-0.017790050203079538,1.011046756046682,-0.25702582126536067
2.0417464875103457,11.26891961266723,-0.017398611906854957,0.9947237359994833,-0.24923382159537244
2.038136080984989,11.06185249749781,-0.016986212144162117,0.9773440275188099,-0.2672528335763049
2.034609354165563,10.858423091611797,-0.016601662326557423,0.9600788856812957,-0.28716500382593935
2.031160462800252,10.658607670344804,-0.01624492210497886,0.9429251263852969,-0.30886105246280676
2.0277835814746563,10.462383164792872,-0.01591585242450657,0.9258796883950035,-0.33223463394228125
2.024472923437062,10.269727136545796,-0.015614224124006197,0.9089396282438122,-0.3571821047767624
2.021222758689714,10.080617753449118,-0.015339725850737836,0.8921021155340888,-0.3836022983451228
2.018027430484808,9.895033766313283,-0.015091971338847238,0.8753644286167319,-0.41139630590897336
2.014881370354088,9.712954486491718,-0.01487050609657803,0.858723950636259,-0.44046726297455224
2.011779111791908,9.534359764252326,-0.014674813543232185,0.8421781659293902,-0.4707201401544508
2.008715302703369,9.359229967869169,-0.014504320633330948,0.8257246567673494,-0.5020615376929544
2.0056847167216527,9.187545963362993,-0.014358403002061993,0.8093611004343393,-0.5343994828224503
2.00268226349183,9.019289094820511,-0.014236389662913821,0.7930852666369159,-0.5676432291160189
1.9997029980122605,8.854441165223296,-0.01413756728536987,0.7768950152413121,-0.6017030569927956
1.9967421291191445,8.692984417717451,-0.014061184077637574,0.7607882943381606,-0.6364900745177242
1.99379502719485,8.5349015172551,-0.01400645329659725,0.7447631386365927,-0.6719160176155987
1.9908572311762402,8.380175532538061,-0.013972556404447974,0.7288176681923508,-0.7078930487904086
1.987924454935441,8.228789918192735,-0.013958645888878138,0.7129500874774167,-0.7443335534044973
1.9849925931022065,8.080728497103422,-0.013963847760972242,0.6971586848017396,-0.7811499325273504
1.9820577263943466,7.9359754428286315,-0.013987263742456981,0.6814418321010223,-0.8182543913103022
1.979116126520506,7.794515262021662,-0.014027973151262065,0.6657979851082256,-0.8555587217803421
1.9761642607179954,7.65633277677259,-0.014085034491696003,0.6502256839305589,-0.8929740788726848
1.973198795987325,7.521413106783758,-0.014157486752784092,0.6347235540583062,-0.9304107484368869
1.9702166030846602,7.389741651284755,-0.01424435041545226,0.6192903078369738,-0.9677779058540249
1.9672147603335834,7.26130407058567,-0.014344628166230767,0.6039247464400435,-1.0049833637916572
1.9641905573183738,7.136086267158916,-0.014457305311956888,0.5886257623861758,-1.0419333074977677
1.9611414985225324,7.01407436612989,-0.014581349886532575,0.5733923426521736,-1.0785320158933795
1.9580653069785516,6.89525469504505,-0.014715712437093645,0.5582235724415214,-1.1146815665647363
1.9549599279980003,6.779613762772495,-0.014859325472917836,0.5431186396780504,-1.1502815225786756
1.9518235330549663,6.667138237374232,-0.015011102555979912,0.5280768403054251,-1.1852285988479612
1.948654523900834,6.55781492277114,-0.015169937007184928,0.51309758448594,-1.2194163055561282
1.945451536994405,6.4516307340004,-0.015334700196899177,0.498180403806809,-1.2527345659135434
1.9422134483385824,6.348572670840689,-0.015504239382364393,0.48332495961901245,-1.285069305258442
1.9389393788234126,6.24862778955211,-0.015677375047824578,0.4685310526531605,-1.3163020082405053
1.9356287001853527,6.151783172445224,-0.015852897695600693,0.4537986340790813,-1.3463092405338493
1.9322810417043976,6.058025894955783,-0.016029564027782262,0.43912781820132285,-1.374962131227786
1.928896297774387,5.967342989858402,-0.01620609244850909,0.4245188970118346,-1.4021258117482864
1.9254746364976842,5.879721408202478,-0.01638115780580268,0.40997235685411965,-1.4276588068878922
1.9220165094737434,5.795147976496306,-0.016553385279347917,0.3954888974903917,-1.4514123732930437
1.918522662972257,5.713609349599807,-0.01672134330623814,0.38106945390484775,-1.4732297806147445
1.914994150705989,5.635091958711499,-0.01688353542012091,0.3667152212219129,-1.4929455305293986
1.9114323484465823,5.559581953750602,-0.01703839085994496,0.35242768316757367,-1.5103845090672945
1.9078389707591812,5.487065139339915,-0.01718425378196975,0.3382086445532396,-1.525361068271986
1.9042160901694687,5.4175269034890405,-0.017319370881959856,0.32406026831222146,-1.5376780343378045
1.9005661591206269,5.350952137961524,-0.017441877202247585,0.3099851176641115,-1.5471256413015613
1.89689203512923,5.287325149185307,-0.017549779858675122,0.2959862040141453,-1.55348039248645
1.89319700960997,5.226629558437811,-0.017640939372371718,0.2820670412001079,-1.556503856776816
1.889484840912111,5.168848189912708,-0.017713048226284733,0.2682317066580042,-1.5559414142663666
1.8857597921995477,5.113962945168101,-0.017763606179080835,0.2544849099573198,-1.5515209770728768
1.8820266749172296,5.061954662387329,-0.01778989174775806,0.24083206890717151,-1.5429517279070972
1.8782908987286313,5.012802958889303,-0.017788929096036153,0.22727939297878458,-1.5299229438903437
1.8745585289962998,4.966486055460539,-0.017757449307120803,0.21383397300945664,-1.512103009882554
1.8708363531334042,4.922980581433251,-0.01769184462521806,0.2005038748694906,-1.4891387796660676
1.8671319575161298,4.8822613601365354,-0.017588113634538764,0.18729823271826057,-1.4606555226206337
1.8634538171762327,4.8443011756045316,-0.0174417943644814,0.17422733425320214,-1.4262578093013332
1.8598114012917426,4.809070523541163,-0.017247880725899882,0.1613026853979248,-1.3855318573796198
1.856215298730532,4.776537352962322,-0.01700071509515431,0.14853703440057187,-1.3380501009993622
1.8526773698574623,4.7466668102961265,-0.0166938456007463,0.1359443243250843,-1.283379088385561
1.8492109339591762,4.719421005870448,-0.016319829621027224,0.12353952734805554,-1.2210922829275512
1.845831006747371,4.694758834681188,-0.015869953348545983,0.11133829350203059,-1.150789959150672
1.842554610747352,4.672635900076067,-0.01533381808020793,0.0993563217848517,-1.07212911795557
1.8394011950339562,4.653004610650552,-0.0146987125235603,0.08760833941051645,-0.9848670370782714
1.8363932230527,4.635814544690614,-0.01394863967887905,0.0761065744936448,-0.8889222606201935
1.8335570234454237,4.621013193599293,-0.013062785152324495,0.06485867399511727,-0.7844554316961788
1.8309240577867143,4.608547182110851,-0.012013078263956842,0.05386524494244284,-0.6719672560423187
1.828532859004933,4.598363968349215,-0.01076024346729287,0.043117743263594036,-0.5523988005211884
1.8264320855451897,4.590413759162974,-0.009247122815978025,0.03259853470060843,-0.4271976661996772
1.8246856067018802,4.584650775764871,-0.007386009025064778,0.022287021471806105,-0.29828627458999646
1.8233821488032391,4.581031632842542,-0.005027875723897795,0.01218100635990823,-0.1678538541317024
1.822660554774778,4.579503374725228,-0.0018444483566848343,0.0023738328526253342,-0.037930167085664795
