x,y,v_x,v_y,omega
2.375,32.48,0.0,3.435897435897436,-4.081632653061225
2.3740385949137957,31.83519203969591,-0.010120053538995427,3.3515547778297656,-3.806298366540534
2.3713042572411784,31.206064247769213,-0.01866244827802529,3.2708430319249895,-3.5588603461631165
2.367074313723394,30.591950257390387,-0.02586327296181048,3.193514761536311,-3.33566820204678
2.361584867210812,29.992228525047807,-0.03192037453905183,3.1193455789118985,-3.13363479734548
2.3550374169111734,29.40631821894003,-0.0370001549308291,3.048131327485789,-2.950137603926215
2.347604312945341,28.833675600992077,-0.04124304470951134,2.979685703545287,-2.7829392798467776
2.339433269895308,28.273790827044312,-0.04476793476452239,2.913838232746968,-2.6301233514166196
2.330651116797069,27.726185103993807,-0.04767578205904808,2.850432536205699,-2.4900418442519556
2.321366924594386,27.190408153715293,-0.05005255691655843,2.7893248351471023,-2.3612724258755184
2.311674623751464,26.666035942263814,-0.05197166248262154,2.7303826538158225,-2.2425831635847184
2.301655202564941,26.152668639748065,-0.053495928954463076,2.673483688455215,-2.132903412517871
2.2913785592705738,25.649928781785917,-0.05467926361782215,2.6185148164095358,-2.031299663688806
2.28090506722656,25.15745960792445,-0.05556802105600717,2.565371224237464,-1.9369554245226854
2.270286901459522,24.674923556057745,-0.056202144912811516,2.513955637517315,-1.849154392840506
2.2595691660627057,24.20200089488128,-0.056616122422100124,2.4641776380244265,-1.767266332369148
2.248790854866288,23.738388478915077,-0.05683978490861339,2.415953056356654,-1.6907351734036085
2.2379856720930476,23.283798612709976,-0.056898981125494685,2.3692034300128357,-1.6190689534858906
2.227182735087165,22.837958012601753,-0.05681614525221862,2.323855518494755,-1.5518312853729266
2.2164071774401055,22.400606855857824,-0.05661077734840388,2.2798408682834417,-1.488634097306946
2.205680667763451,21.97149790831938,-0.056299850826913,2.23709542159492,-1.4291314368573567
2.1950218568388395,21.550395722716907,-0.0558981589058366,2.1955591636942953,-1.3730141668193931
2.1844467638029283,21.13707590075976,-0.05541860989322863,2.155175804275642,-1.3200054117224167
2.17396911031539,20.731324412896097,-0.05487247944927573,2.115892489026113,-1.2698566378894052
2.163600610242761,20.332936970327886,-0.05426962657840299,2.077659538007666,-1.2223442698467375
2.1533512212160395,19.941718444464186,-0.05361867896603397,2.040430207926041,-1.1772667621107102
2.1432293634417907,19.557482329517068,-0.05292719234184752,2.004160475727832,-1.1344420586845427
2.1332421103298227,19.18005024440097,-0.05220178778413232,1.9688088412837186,-1.093705383549239
2.1233953548168705,18.80925147049615,-0.05144827024693922,1.9343361471880811,-1.0549073144706649
2.1136939546919375,18.444922522189017,-0.05067173106814455,1.9007054139396107,-1.0179120999304203
2.1041418597461568,18.0869067474126,-0.04987663678218108,1.867881688970057,-0.982596185205451
2.09474222316286,17.735053955684876,-0.04906690619989204,1.8358319081638623,-0.9488469188007848
2.0854974992192883,17.389220071386216,-0.04824597741664973,1.8045247686641392,-0.91656141476684
2.0764095290797,17.049266810233227,-0.04741686615796238,1.7739306118936387,-0.8856455500576809
2.067479616211931,16.715061377098927,-0.04658221666066009,1.7440213158358469,-0.8560130791314272
2.0587085927486823,16.38647618350079,-0.045744346110382084,1.7147701957234762,-0.8275848505582529
2.0500968779350552,16.063388583231777,-0.044905283506742555,1.686151912371394,-0.8002881125663017
2.04164452965027,15.745680624746832,-0.04406680370152372,1.6581423874701247,-0.7740558962881047
2.0333512898600024,15.43323881904071,-0.04323045724866272,1.6307187252258963,-0.7488264670244772
2.0252166247430043,15.125953921863726,-0.04239759661447404,1.6038591397949886,-0.7245428351646178
2.017239760138744,14.823720729221783,-0.04156939921984552,1.5775428880149291,-0.7011523195275674
2.009419712879375,14.52643788519691,-0.04074688772088056,1.5517502069837446,-0.6786061568522923
2.0017553184974037,14.234007701205684,-0.03993094787881907,1.52646225608178,-0.6568591519871574
1.9942452557382737,13.94633598588634,-0.03912234432254697,1.5016610630692104,-0.6358693640358936
1.9868880682533294,13.663331884871713,-0.03832173446633976,1.477329473926842,-0.6155978243242433
1.979687971269357,13.384908698139256,-0.037468760101793064,1.4534409127306027,-0.594306562234494
1.9726483260251748,13.110982711468516,-0.03663276878433428,1.4299905259087715,-0.573942894338784
1.9657659077549525,12.841472097484854,-0.03581373932326764,1.4069633054981867,-0.5544557807452647
1.9590375006177843,12.576297818316075,-0.035011598962715204,1.3843448962784413,-0.5357975206517673
1.9524599067925115,12.315383504968555,-0.03422623077699888,1.3621215600112357,-0.5179234990665939
1.9460299542527975,12.058655343276929,-0.03345748016735912,1.340280142005881,-0.500791955307312
1.939744503382912,11.806041966002017,-0.03270516056827554,1.318808039835309,-0.48436377118861906
1.9336004525753991,11.55747435068367,-0.031969058458176484,1.2976931740420135,-0.4686022770310295
1.9275947429348999,11.312885722884417,-0.0312489377576036,1.2769239606869618,-0.45347307381741325
1.9217243621975968,11.072211464486504,-0.030544543687693618,1.2564892856068497,-0.438943869997428
1.9159863479627361,10.835389026729512,-0.029855606152945115,1.2363784802562303,-0.4249843315933972
1.9103777903212809,10.602357847698158,-0.029181842704477656,1.2165812990211873,-0.41156594439755845
1.9048958339567004,10.373059273990606,-0.028522961133211906,1.197087897900419,-0.3986618871719184
1.8995376797840804,10.147436486316558,-0.027878661736471872,1.1778888144579671,-0.38624691486999685
1.894300586185965,9.925434428791906,-0.027248639296322416,1.1589749489594348,-0.37429725099609185
1.8891818698964904,9.706999741712764,-0.026632584803409798,1.1403375466104737,-0.3627904883037236
1.8841789065793382,9.492080697606617,-0.026030186956086845,1.1219681808226474,-0.3517054971118094
1.8792891311397049,9.280627140371898,-0.02544113346110559,1.10385873743755,-0.34102234058593667
1.8745100378057868,9.072590427330024,-0.024865112159086274,1.0860013998453333,-0.3307221963937558
1.8698391800111231,8.867923374025548,-0.024301811995268974,1.0683886349386258,-0.3207872841988087
1.8652741701054734,8.666580201620892,-0.02375092385367548,1.0510131798472357,-0.3112007985067646
1.8608126789186563,8.46851648674211,-0.023212141270714394,1.0338680294030858,-0.3019468464226597
1.856452435198909,8.273689113641407,-0.022685161042416056,1.0169464242885338,-0.29301038991789713
1.8521912249447832,8.082056228550655,-0.022169683737855373,1.000241839824639,-0.2843771922419311
1.848026890647348,7.893577196108204,-0.02166541412988314,0.9837479753590687,-0.2760337681461713
1.8439616406631507,7.708418270851027,-0.02112669096693048,0.965293343137535,-0.31099752946796655
1.8399947185385217,7.526755756115037,-0.020630384029164544,0.9469436540833943,-0.3472796028847453
1.836118183405619,7.3485699684879116,-0.020175248948758606,0.9286962156758146,-0.3847775462547448
1.8323243334037553,7.173841726262754,-0.019760014228754442,0.9105484393258441,-0.4233906424841061
1.8286057104758469,7.002552329980752,-0.019383385012387896,0.8924978373268039,-0.46301967571457564
1.8249551044852397,6.8346835435192155,-0.019044046467689216,0.874542020163067,-0.5035667097237361
1.8213655567237121,6.670217575657162,-0.01874066681154756,0.8566786941743469,-0.5449348675782713
1.817830362877125,6.5091370620509466,-0.018471899994632193,0.8389056595753058,-0.5870281115645738
1.814343075511379,6.351425047552148,-0.01823638806585263,0.8212208088331152,-0.6297510223968965
1.8108975061380457,6.197064968799186,-0.018032763232391627,0.8036221254085862,-0.6730085766707893
1.8074877269162388,6.046040637012748,-0.01785964962873265,0.7861076828696952,-0.7167059214881943
1.8041080720449867,5.898336220923095,-0.017715664805501855,0.768675644389796,-0.7607481451296467
1.800753138898563,5.753936229754636,-0.01759942094632558,0.7513242626466025,-0.8050400425877798
1.7974177889559293,5.6128254961897,-0.01750952581823951,0.7340518801422006,-0.8494858747038877
1.7940971485746444,5.474989159229139,-0.017444583458443918,0.7168569299689845,-0.8939891195646501
1.790786609659344,5.340412646862184,-0.01740319459734743,0.6997379370515936,-0.938452214718149
1.787481830275186,5.209081658451712,-0.017383956814843227,0.6826935199007497,-0.9827762886557485
1.784178735257536,5.0809821467336,-0.01738546442357695,0.6657223929214774,-1.0268608798778902
1.780873516870689,4.9561002993201235,-0.017406308069550378,0.6488233693256554,-1.070603641715884
1.7775626355705942,4.834422519586987,-0.01744507403671076,0.6319953647073574,-1.1139000309167666
1.7742428209294827,4.715935406811617,-0.01750034323814747,0.6152374013491633,-1.1566429778126257
1.7709110727840098,4.600625735416266,-0.0175706898720943,0.5985486133387671,-1.1987225356878277
1.767564662673136,4.488480433153221,-0.017654679716048005,0.581928252588002,-1.240025506725841
1.7642011356375575,4.379486558050555,-0.017750868026883176,0.5653756958611243,-1.2804350416605847
1.7608183124591696,4.273631273914813,-0.017857797008781713,0.5488904529361497,-1.3198302099747325
1.7574142924269553,4.1709018241618345,-0.0179739928040001,0.5324721760425623,-1.3580855371792755
1.7539874567249591,4.071285503717377,-0.018097961953853586,0.5161206707412218,-1.3950705053763868
1.7505364725488195,3.9747696286953342,-0.018228187268668945,0.4998359084381881,-1.4306490129547564
1.7470602980699053,3.88134150352208,-0.01836312303569133,0.4836180407539471,-1.4646787888998032
1.7435581883806446,3.7909883851301096,-0.018501189482842885,0.46746741600362035,-1.497010756831852
1.740029702571432,3.7036974437919135,-0.0186407664036045,0.451384598082641,-1.5274883435317692
1.7364747121088724,3.6194557201048987,-0.0187801858338648,0.4353703880964769,-1.5559467264040094
1.7328934107074276,3.5382500775690957,-0.018917723655027814,0.4194258491225151,-1.5822120141046407
1.7292863259122346,3.46006715012048,-0.01905158997858202,0.40355233454713413,-1.6061003544912158
1.7256543326404783,3.3848932838928363,-0.019179918145171282,0.3877515204806983,-1.6274169642281475
1.7219986689628883,3.312714472379625,-0.01930075214524666,0.37202544281625566,-1.645955074946777
1.7183209544465177,3.243516284053765,-0.019412032237603308,0.35637653956120113,-1.6614947920211487
1.7146232114259654,3.1772837813781116,-0.019511578505051738,0.3408076991298879,-1.673801864082936
1.7109078896240948,3.114001430004393,-0.019597072040954552,0.32532231533029843,-1.6826263648078479
1.7071778946069156,3.053652996817501,-0.019666033403037162,0.30992434979488415,-1.687701293914542
1.7034366206334566,2.9962214353427257,-0.019715797896530194,0.29461840257116734,-1.6887411126837641
1.6996879885541312,2.9416887569093326,-0.01974348714900171,0.27940979146455736,-1.6854402420368655
1.6959364895264053,2.8900358858768946,-0.01974597630074289,0.26430464045585517,-1.6774715703763268
1.6921872354639822,2.841242497217774,-0.01971985593529123,0.24930997700856594,-1.6644850470261079
1.688446017330191,2.795286834868268,-0.01966138757830258,0.2344338371967461,-1.6461064796831044
1.6847193726520375,2.752145509604212,-0.01956645113910222,0.21968537610912178,-1.6219367173497312
1.6810146640079355,2.7117932759071586,-0.019430481956705808,0.2050749785967141,-1.5915514933034371
1.6773401707948252,2.6742027885838517,-0.0192483939707717,0.1906143616486384,-1.5545023395262074
1.6737051974179207,2.639344342115624,-0.019014483680855624,0.17631665380639425,-1.5103191841003243
1.6701202023507273,2.6071855993355975,-0.018722306500126667,0.1621964280886114,-1.4585155328568642
1.6665969545897215,2.5776913217614563,-0.01836451203677736,0.14826965163918732,-1.3985975497007062
1.663148727389824,2.55082312270234,-0.017932616383195408,0.13455349635149239,-1.3300789232327805
1.6597905446700647,2.526539277276079,-0.017416675403744208,0.12106592918809042,-1.2525041645128645
1.656539504542211,2.5047946418310794,-0.016804799626293054,0.10782497023295634,-1.1654838892815753
1.6534152193557818,2.4855407591774323,-0.016082412862436873,0.09484747875279984,-1.0687465019398172
1.650440436196,2.468726252640959,-0.01523109408263697,0.0821473268942859,-0.9622109312526239
1.6476419418854547,2.4542976305675133,-0.014226740765207791,0.0697329054577792,-0.8460832719133157
1.6450519223359308,2.442200605861892,-0.01303662291398807,0.057604196706662884,-0.7209735945909624
1.6427100585048429,2.4323819235437654,-0.0116145753079914,0.045750354010476564,-0.588013592475918
1.6406668609608652,2.4247913756683523,-0.009892767260195912,0.03415014994124582,-0.44892799294210717
1.6389893073928907,2.4193829768600636,-0.0077656913500614745,0.022780363830218538,-0.30597884784812507
1.637771893934688,2.416112601530674,-0.005049187157333998,0.011644639637033072,-0.16168690889928378
1.6371682281658249,2.4149221073680245,-0.0013051893570168727,0.0008868778645265904,-0.01829941738159538
