x,y,v_x,v_y,omega
2.375,32.48,0.0,2.2051282051282053,-7.755102040816326
2.3736906120081147,32.02154757348412,-0.012470361827480066,2.1610853807373136,-7.36558338355394
2.369917625229466,31.572188507322675,-0.02346284558822016,2.1185247731811723,-7.004680453593189
2.3639738922523033,31.131621171090735,-0.03314413514666436,2.077354619503993,-6.669567305456612
2.3561194749358476,30.699562293670635,-0.04165983929577172,2.0374918321159914,-6.357759731779345
2.346585746305735,30.275745261110448,-0.049137576229108,1.9988608589334156,-6.067066395473504
2.3355788999385023,29.859918634153352,-0.05568953203024983,1.9613927311341786,-5.79554808999957
2.3232829663883856,29.451844849817398,-0.0614145970184816,1.9250242625415457,-5.5414835765549935
2.309862416854334,29.051299078151782,-0.0664001604486766,1.8896973723690995,-5.303340781660653
2.295464419217301,28.658068210611386,-0.07072362657068712,1.8553585089679905,-5.079752392955826
2.2802207997375086,28.27194996070861,-0.07445370180828612,1.8219581567727392,-4.869495086134714
2.264249754315192,27.892752060968625,-0.07765149268996648,1.7894504121795174,-4.671471766994562
2.247657345716222,27.52029154291981,-0.08037144634784198,1.7577926168567848,-4.484696330457519
2.230538817121557,27.15439408903757,-0.08266215931563697,1.726945039164564,-4.308280531172764
2.2129797474575743,26.794893447336733,-0.08456707557943481,1.6968705960814825,-4.141422633804789
2.19505706996099,26.44163090076009,-0.08612509105469944,1.667534609410386,-3.9833975697653004
2.176839972142038,26.094454784703203,-0.08737107864960665,1.638904591131389,-3.833548374254245
2.1583906925900034,25.753220047000646,-0.08833634565548622,1.6109500536548744,-3.691278715543528
2.1397652278049173,25.41778784551551,-0.08904903325009468,1.583642341441649,-3.5560463593771128
2.1210139603511524,25.088025179155114,-0.08953446630957333,1.5569544810383056,-3.4273574366441704
2.102182218044078,24.763804548705828,-0.0898154604244683,1.5308610470501272,-3.304761403247667
2.0833107725452265,24.445003644359463,-0.08991259194554603,1.5053380419628892,-3.1878465982282727
2.064436284610861,24.131505057208592,-0.08984443600079225,1.4803627880454215,-3.07623632041083
2.0456211925166756,23.823208717445105,-0.08934691727716357,1.455792828749665,-2.9623403692635795
2.0269208030445993,23.520018290029604,-0.08875203007594565,1.4317350513980047,-2.853859928294971
2.0083543792899476,23.221828273425995,-0.08807105330168792,1.4081698686363462,-2.7504707594427313
1.9899389320966645,22.928537174950918,-0.08731415806291361,1.3850786882691644,-2.6518717986174662
1.9716894410657446,22.64004730870258,-0.08649051842203638,1.362443847429275,-2.5577832274952237
1.9536190535455498,22.356264606746052,-0.08560841034172455,1.3402485521567078,-2.4679447284696936
1.935739263939647,22.077098442475396,-0.08467530019068349,1.3184768218495388,-2.3821139031595315
1.918060075399639,21.80246146517942,-0.08369792399986782,1.2971134381121618,-2.3000648372082657
1.9005901457358922,21.532269444931664,-0.08268235851200668,1.2761438975807498,-2.2215867961462528
1.8833369191734952,21.266441127008633,-0.08163408493939248,1.255554368352837,-2.1464830388513736
1.8663067454002769,21.004898095114235,-0.08055804623411644,1.235331649689065,-2.0745697366855285
1.8495049871949196,20.747564642754323,-0.07945869857880816,1.2154631346910483,-2.005674987729552
1.8329361177833006,20.49436765216423,-0.07834005772232815,1.195936775690785,-1.9396379167169533
1.8166038089476968,20.245236480244657,-0.07720574071199249,1.1767410521146564,-1.8763078522998928
1.8005110108043594,20.000102851008634,-0.07605900351026945,1.1578649406093733,-1.8155435741885477
1.7846600240683193,19.758900754084593,-0.07490277492820678,1.1392978872386783,-1.757212623504157
1.7690525655386582,19.52156634885878,-0.07373968725904188,1.121029781578565,-1.7011906703908106
1.7536898274614363,19.288037873874693,-0.07257210395259457,1.103050932555584,-1.6473609335536665
1.7385725313599116,19.058255561138147,-0.07140214463335488,1.0853520458877128,-1.5956136469422229
1.7237009768615512,18.83216155500488,-0.07023170773198378,1.0679242030005431,-1.545845569285571
1.7090750859977732,18.60969983535297,-0.06906249097066292,1.0507588413033602,-1.4979595326200035
1.694694443404583,18.39081614476549,-0.0678960099168632,1.0338477357202602,-1.451864026334671
1.6805583328096039,18.17545791946987,-0.0667336147972222,1.0171829813808972,-1.4074728136040309
1.6666657701528855,17.96357422379956,-0.06557650574295458,1.0007569773839282,-1.3647045773816553
1.6530155336547492,17.755115687961094,-0.06442574662024889,0.9845624115538305,-1.3234825934029872
1.6396174065828677,17.55020644615493,-0.06317546358814578,0.9669541770763322,-1.3158477581986139
1.626478206224181,17.348981418315944,-0.061959777923156836,0.9494746594854505,-1.310784271661275
1.6135906682555112,17.1514139729345,-0.060778678921315034,0.9321200584330492,-1.3081495627490012
1.6009475435564111,16.95747825920282,-0.059632032498687655,0.9148867390115187,-1.3078054586978702
1.5885416230160398,16.767149173050203,-0.0585195916953222,0.8977712243467209,-1.3096178564776313
1.5763657602204224,16.580402324671688,-0.05744100635817865,0.880770188781982,-1.3134564074615689
1.5644128921862963,16.397214007429096,-0.05639583206207064,0.8638804516236874,-1.3191942139459714
1.5526760582958752,16.21756116800923,-0.055383538322892216,0.8470989714226619,-1.3267075362183947
1.5411484175759063,16.041421377729105,-0.054403516153000805,0.8304228407689986,-1.3358755089284102
1.5298232644543661,15.868772804882319,-0.053455085004524665,0.8138492815813534,-1.3465798655601569
1.5186940431189253,15.699594188024403,-0.05253749914253168,0.7973756408749926,-1.358704669843183
1.5077543605928867,15.533864810097938,-0.05164995348640595,0.7809993869961045,-1.3721360529670723
1.496997998636602,15.371564473300474,-0.05079158895440049,0.7647181063130867,-1.3867619554864195
1.4864189245753598,15.212673474599931,-0.04996149734314306,0.7485295003587474,-1.402471872816042
1.4760113011483915,15.057172581803098,-0.049158725770841766,0.7324313834206373,-1.4191566032219591
1.4657694954678986,14.90504301008302,-0.04838228071004458,0.716421680580102,-1.4367079972116992
1.4556880871718758,14.756266398870672,-0.04763113163302903,0.7004984262041563,-1.455018707217894
1.4457618758499353,14.610824789014949,-0.04690421429021207,0.6846597628979629,-1.4739819364518494
1.435985887817331,14.468700600113053,-0.046200433639353874,0.6689039409296169,-1.4934911857787512
1.426355382308919,14.329876607910414,-0.04551866644076043,0.6532293181431184,-1.5134399974333053
1.4168658571618689,14.194335921665491,-0.04485776353114523,0.6376343603799408,-1.5337216943538263
1.4075130540535405,14.062061961369974,-0.04421655178626769,0.622117642434512,-1.5542291138640303
1.398292963359093,13.933038434709047,-0.04359383577989993,0.6066778495742978,-1.5748543343750863
1.389201828692077,13.807249313639332,-0.042988399144059414,0.5913137796610842,-1.5954883937159718
1.3802361511905117,13.68467881045368,-0.04239900563275532,0.576024345916568,-1.6160209976281996
1.3713926936107588,13.565311353192268,-0.041824399888701076,0.560808580382584,-1.6363402168821537
1.3626684842919463,13.449131560247995,-0.04126330790951365,0.5456656381342964,-1.656332171387627
1.354060821054732,13.336124214000968,-0.04071443720681377,0.5305948023135736,-1.6758806995823088
1.3455672750999428,13.22627423330178,-0.04017647664832182,0.515595490059631,-1.6948670112913775
1.3371856949750753,13.119566644605896,-0.03964809596946362,0.500667259424972,-1.7131693221626072
1.3289142106798857,13.015986551541715,-0.03912794493710464,0.48580981737675877,-1.7306624676997018
1.3207512379863953,12.915519102672462,-0.03861465214375616,0.4710230289970648,-1.7472174948493069
1.3126954830536854,12.818149457186717,-0.03810682340586199,0.45630692801002526,-1.762701229054755
1.3047459474239493,12.723862748223798,-0.037603039734482535,0.4416617287796683,-1.7769758146866577
1.2969019334935534,12.632644043508336,-0.037101854840717555,0.42708783993903776,-1.7898982268172616
1.2891630505614824,12.54447830293271,-0.03660179213138649,0.4125858798288151,-1.8013197524502074
1.281529221567714,12.459350332686828,-0.036101341142596804,0.39815669394148206,-1.811085439588887
1.2740006906460357,12.377244735491626,-0.03559895334957795,0.38380137458426544,-1.8190335129787945
1.2665780316299167,12.298145856446403,-0.03509303728012722,0.3695212829892838,-1.824994756066308
1.2592621576667136,12.222037723950944,-0.03458195284561742,0.3553180741103386,-1.8287918597806432
1.2520543321152977,12.148903985112668,-0.03406400478691553,0.3411937243494402,-1.8302387403085918
1.2449561809259606,12.078727834998976,-0.03353743511153365,0.3271505624476268,-1.8291398302882318
1.2379697067302855,12.011491939048554,-0.03300041437108637,0.3131913037468612,-1.8252893510676131
1.2310973049041614,11.94717834791803,-0.03245103159200099,0.29931908797241424,-1.8184705782300703
1.2243417819115394,11.885768404019693,-0.031887282623445756,0.2855375205831574,-1.808455118994377
1.2177063762932216,11.827242639013729,-0.031307056598628126,0.27185071756887963,-1.7950022290672603
1.2111947827388234,11.771580661571658,-0.030708120109926997,0.2582633533079768,-1.7778582090402844
1.2048111797783743,11.718761034851738,-0.030088098561017584,0.24478071069124913,-1.7567559378349138
1.198560261763745,11.668761143358097,-0.029444453959261596,0.23140873210534976,-1.73141462486031
1.1924472759957263,11.621557049245705,-0.028774458117105613,0.2181540689650407,-1.7015398959723766
1.1864780661151713,11.577123338756895,-0.028075159792942964,0.2050241261664877,-1.6668243743771456
1.1806591232542274,11.53543296043538,-0.027343343644618136,0.192027095943186,-1.6269489807164872
1.1749976469944075,11.49645705820323,-0.02657547787747637,0.17917197293443476,-1.5815852622701936
1.1695016189905743,11.460164804494742,-0.025767645968553594,0.16646853857499067,-1.5303991760591815
1.1641798933285108,11.426523241662217,-0.02491545557490817,0.15392729792522947,-1.4730569013533081
1.1590423094923565,11.39549714409128,-0.02401391429322798,0.14155934560749658,-1.4092334482055968
1.1540998365325048,11.367048919181805,-0.02305725675297911,0.12937612972083098,-1.3386250570247442
1.149364761097272,11.341138572752648,-0.022038699773049036,0.11738907436638853,-1.2609666274871683
1.1448509380818455,11.317723773335928,-0.020950090850059326,0.10560901531666911,-1.1760556090309142
1.1405741316978941,11.296760059164392,-0.019781398520905907,0.0940454053646401,-1.0837837832313804
1.136552488114018,11.27820123845403,-0.018519968944580623,0.08270526806735372,-0.9841778785718458
1.1328072004346432,11.262000031308592,-0.01714943752565668,0.07159194284160007,-0.8774484687850057
1.1293634560569827,11.248108977713649,-0.01564812797587103,0.06070380568166486,-0.7640433667212754
1.126251802981069,11.236481569442077,-0.0139866632233073,0.05003341595236621,-0.6446959757587978
1.1235101574492021,11.227073421915179,-0.012124246603996566,0.03956798906570625,-0.5204508453657692
1.1211868736665613,11.219843034316696,-0.010002265611629363,0.029292845205558297,-0.3926403993800703
1.119345880469031,11.214751163354496,-0.0075310029362789035,0.019201163958269117,-0.262784265904239
1.118077126973561,11.211756400896867,-0.004552363687245523,0.00932038325723771,-0.13239293638311445
1.1175294424928133,11.210796257006521,-0.0006636789865416123,-0.0001761557301450927,-0.0027398971416013607
