x,y,v_x,v_y,omega
2.375,32.48,0.0,3.0769230769230766,-2.979591836734694
2.374376467473326,31.901994807825115,-0.006563500280775833,3.007342103865136,-2.7976772392868203
2.372594879437141,31.336956201211336,-0.012190057994854557,2.940432702595724,-2.632299292064477
2.369821135376014,30.78439207747907,-0.017007247911750407,2.8760317577439194,-2.4815031559069674
2.366198681580392,30.243840049495553,-0.021123844673743935,2.813989589450978,-2.3436072812975715
2.361851794388246,29.714865028753263,-0.024632862612002017,2.7541685236257742,-2.2171600031402816
2.3568883369496136,29.197057061903873,-0.02761405779465622,2.696441653736205,-2.10090380427077
2.351402081849764,28.690029387354926,-0.03013599588797108,2.640691762568528,-1.9937457600514779
2.345474674301274,28.193416683944065,-0.03225776778034062,2.586810378598395,-1.8947329905013697
2.339177296635944,27.706873488067377,-0.03403041817050496,2.5346969464194014,-1.8030321887784455
2.332572083679369,27.230072759187195,-0.03549813926712589,2.4842580944246193,-1.717912483103376
2.3257133296555974,26.76270457655707,-0.03669927150941693,2.4354069858924916,-1.638731036372214
2.318648520073474,26.3044749524092,-0.037667145144515204,2.388062741979814,-1.5649209034017741
2.31141921622563,25.85510474885507,-0.03843079009594378,2.342149927011051,-1.4959807572068202
2.304061815203068,25.41432868743101,-0.039015536457342306,2.29759808797905,-1.4314661683737233
2.296608204472597,24.981894441638502,-0.03944352386340541,2.2543413414157363,-1.3709821796112538
2.2890863269082855,24.557561804031867,-0.03973413470829786,2.2123180018120254,-1.3141769640917689
2.2815206695753734,24.141101920431815,-0.03990436353287976,2.1714702466095965,-1.2607363936809581
2.2739326874279726,23.7322965847225,-0.03996913275555125,2.1317438134884332,-1.2103793734761306
2.2663411713145054,23.330937588446346,-0.039941563175681524,2.0930877262605674,-1.162853823697748
2.2587625682187227,22.936826120065092,-0.039833206253612675,2.055454046173703,-1.1179332100527266
2.251211260444228,22.549772209323283,-0.039654244004224556,2.0187976458453107,-1.0754135401114102
2.243699809432516,22.1695942126448,-0.039413661382217365,1.9830760034018755,-1.0351107567237243
2.236239169052737,21.796118335925115,-0.03911939524703278,1.9482490147000535,-0.9968584706071552
2.2288388724867696,21.429178191460913,-0.038778463342101596,1.9142788217652578,-0.9605059834182363
2.2215071962320208,21.068614386091667,-0.0383970761815708,1.8811296558057429,-0.9259165602284491
2.2142513042374605,20.71427413792165,-0.03798073428748055,1.8487676933523474,-0.8929659166522665
2.207077374759864,20.366010919250336,-0.037534312845118524,1.8171609242404216,-0.8615408911508868
2.199990712164162,20.023684123569467,-0.03706213553069109,1.7862790302950349,-0.8315382774469353
2.192995845583487,19.687158754689317,-0.036568039002729896,1.7560932737065407,-0.802863795684627
2.1860966160920663,19.356305136238795,-0.03605542932801463,1.726576394193709,-0.7754311840798089
2.179296253820334,19.03099863994632,-0.03552733142705998,1.6977025141481348,-0.749161395425497
2.17259744625035,18.711119431253593,-0.03498643246750912,1.669447051038436,-0.7239818850332691
2.166002398765816,18.396552230944337,-0.034435120001267965,1.6417866364274307,-0.6998259785667073
2.1595128883904477,18.087186091586695,-0.03387551552892655,1.614699041021419,-0.6766323098155761
2.1531303115276317,17.782914187692903,-0.03330950407966181,1.5881631052290186,-0.6543443198144594
2.1468557264102643,17.48363361859407,-0.03273876031368102,1.562158674758713,-0.6329098098651137
2.140689890879881,17.189245223113122,-0.03216477158509088,1.5366665408302023,-0.6122805420093314
2.1346332960366183,16.899653405195778,-0.031588858343987156,1.5116683846155277,-0.5924118813448392
2.1286861962343706,16.61476596972888,-0.031012192205989317,1.487146725562384,-0.5732624753025368
2.1228532411155276,16.334494693804217,-0.030387335360781337,1.4630772315392893,-0.5533506601758399
2.1171382511054206,16.058754412540008,-0.02977045421929101,1.4394520449260655,-0.5343117974225391
2.1115396691189017,15.787462158241897,-0.02916198774406853,1.416255895054034,-0.5160975788704324
2.1060558622638124,15.520537801292491,-0.028562294941080694,1.3934741780976303,-0.49866287439177004
2.10068513613362,15.257903926933508,-0.027971664324103047,1.3710929204179945,-0.4819654895489227
2.095425747403692,14.999485718785426,-0.027390322306717025,1.3490987442986653,-0.4659659441863634
2.090275914923117,14.745210848667291,-0.02681844064670281,1.3274788358922163,-0.4506272699497156
2.0852338294717034,14.495009372312367,-0.026256143052385446,1.3062209152122601,-0.43591482492699757
2.080297662332241,14.248813630605365,-0.025703511047221888,1.2853132080193286,-0.4217961237967518
2.0754655728109075,14.00655815599465,-0.025160589177342332,1.2647444194618749,-0.40824068203560837
2.070735714823578,13.76817958375798,-0.024627389636651828,1.2445037093451903,-0.3952198728866681
2.066106242652446,13.533616567823596,-0.024103896375261172,1.224580668911492,-0.38270679592224144
2.0615753159656145,13.30280970086973,-0.023590068749281143,1.2049652990239426,-0.3706761561519633
2.0571411041819254,13.075701438445137,-0.02308584476323604,1.1856479896559984,-0.35910415273188406
2.0528017902541293,12.85223602687126,-0.022591143950406557,1.1666195005953464,-0.34796837642334455
2.048555573935378,12.632359434703211,-0.02210586993119036,1.1478709432788412,-0.3372477150336168
2.0444006745868415,12.416019287541989,-0.021629912684978686,1.1293937636813878,-0.3269222661445998
2.040335333577903,12.20316480600443,-0.021163150567007877,1.1111797261876626,-0.3169732565023243
2.0363578163247187,11.993746746670407,-0.020705452098087072,1.0932208983810163,-0.3073829674995378
2.032466414007964,11.787717345838768,-0.020256677551966338,1.0755096366888686,-0.29813466623699636
2.0286594450061046,11.58503026593462,-0.01981668036234127,1.0580385728284627,-0.28921254169697236
2.0249352560766227,11.38564054442082,-0.01938530836904496,1.0408006010010196,-0.28060164560550865
2.021292223314086,11.189504545076037,-0.018962404920816484,1.0237888657861511,-0.2722878375986391
2.017728752910847,10.996579911510622,-0.018547809850122395,1.0069967506919069,-0.26425773434262706
2.014243281743373,10.806825522799581,-0.018141360333813798,0.9904178673190467,-0.2564986622896657
2.0108375321072334,10.620402850193088,-0.01770863583607373,0.9719260548545563,-0.29101795357064686
2.0075103324588754,10.437483559143715,-0.017314518357169024,0.953540166717796,-0.3268872512160516
2.004254446084793,10.258047783367786,-0.016957969791069186,0.9352574730288108,-0.36400409965934355
2.0010628370768986,10.082076165318899,-0.016637914502555914,0.9170753485384224,-0.4022678114717519
1.9979286770479645,9.90954983660718,-0.0163532436967496,0.8989912694796809,-0.4415792457557474
1.9948453510566444,9.740450398983004,-0.016102819369777404,0.881002810774791,-0.4818405888653092
1.9918064628191408,9.57475990581797,-0.015885477867103162,0.8631076435940022,-0.5229551365165499
1.9888058392798198,9.412460844016312,-0.01570003307311721,0.8453035332655569,-0.5648270763370403
1.9858375346088613,9.253536116289926,-0.015545279252761609,0.8275883375385263,-0.6073612698793123
1.9828958336913434,9.097969023729458,-0.015419993563217705,0.809960005203247,-0.6504630330930824
1.9799752551689942,8.94574324860282,-0.01532293825098303,0.7924165750771605,-0.6940379142111979
1.9770705540931872,8.796842837310606,-0.01525286254698673,0.7749561753671996,-0.7379914679555121
1.974176724245601,8.651252183425491,-0.015208504269709353,0.7575770234234982,-0.7822290249101314
1.9712890001813408,8.508956010739453,-0.015188591143555403,0.7402774259032074,-0.8266554548398506
1.9684028590481932,8.369939356238724,-0.015191841836944327,0.7230557793676391,-0.8711749226501563
1.9655140222351217,8.234187552921412,-0.015216966721704946,0.7059105713409067,-0.9156906355908017
1.9626184569030871,8.101686212366964,-0.01526266835234341,0.6888403818637954,-0.960104580196417
1.9597123774518606,7.972421206959531,-0.015327641660566526,0.6718438855828687,-1.0043172473335369
1.9567922469776882,7.846378651659073,-0.01541057385703727,0.6549198544219383,-1.048227343582318
1.953854778778546,7.723544885204333,-0.01551014402866939,0.6380671608911251,-1.0917314870214818
1.9508969379663235,7.603906450620368,-0.01562502241577954,0.6212847820979976,-1.1347238853049775
1.9479159432486648,7.487450074890148,-0.015753869349048103,0.6045718045358826,-1.1770959937168146
1.9449092689474698,7.374162647634261,-0.015895333821426005,0.5879274297366192,-1.218736150664836
1.9418746473262796,7.264031198624824,-0.01604805166478787,0.5713509808890417,-1.259529187823424
1.938810071305082,7.157042873939005,-0.016210643295184474,0.5548419105406163,-1.299356011858219
1.9357137976485699,7.05318491053341,-0.016381710983891056,0.5383998095182658,-1.3380931543624703
1.9325843507227232,6.952444608992717,-0.016559835603969,0.5220244172258742,-1.3756122863053926
1.9294205269249516,6.8548093041736955,-0.016743572793626448,0.50571563350069,-1.4117796929403057
1.926221399905085,6.760266333428394,-0.016931448468127837,0.4894735322393152,-1.4464557047495346
1.9229863267085001,6.668803002047177,-0.017121953601187283,0.47329837703665045,-1.4794940796231324
1.919714954988862,6.580406545512432,-0.017313538184478044,0.4571906391185696,-1.5107413310944695
1.9164072314566505,6.495064088096459,-0.017504604259851685,0.4411510178916623,-1.5400359971112996
1.9130634117512004,6.412762597271012,-0.017693497902781758,0.42518046448145286,-1.5672078435424794
1.9096840719488166,6.333488833320274,-0.01787850001704827,0.40928020868419485,-1.5920769964630517
1.906270121948166,6.257229293462725,-0.018057815779272363,0.39345178981634,-1.614452997305933
1.9028228210071751,6.183970149689312,-0.018229562546946455,0.37769709200907675,-1.634133775338466
1.899343795743867,6.113697179415183,-0.018391756014192233,0.3620183845607149,-1.6509045327955991
1.8958350609579058,6.046395687919727,-0.018542294364348184,0.34641836802304427,-1.664536539641503
1.8922990436813438,5.982050421416105,-0.018678940125776113,0.3309002267519399,-1.67478583772406
1.8887386109278999,5.920645469449553,-0.018799299384162194,0.31546768868545033,-1.6813918585982814
1.8851571016824178,5.862164155179471,-0.01890079793670024,0.3001250931048989,-1.684075966356852
1.8815583637594546,5.806588911964283,-0.01898065388396368,0.28487746705498973,-1.6825399476406449
1.8779467962673562,5.753901144558718,-0.019035846032864068,0.2697306108983438,-1.6764644874068608
1.8743273985497173,5.704081073180646,-0.019063077310701795,0.2546911930813566,-1.6655076936542053
1.8707058266522796,5.657107558758035,-0.019058732136011454,0.23976685347245755,-1.6493037710399918
1.8670884586002006,5.61295790790351,-0.019018826306926005,0.22496631341727177,-1.6274619979017833
1.8634824701010064,5.571607656706316,-0.01893894736880318,0.21029948865845777,-1.5995662420025853
1.8598959227663596,5.5330303334669715,-0.018814182469583603,0.19577759807148298,-1.5651753695288428
1.8563378676609128,5.497197202315576,-0.01863902916669796,0.18141325615372175,-1.5238250768864032
1.8528184680894433,5.464076992679079,-0.018407282111929272,0.1672205294936272,-1.4750319298415218
1.8493491472773178,5.43363562442072,-0.018111884331496627,0.15321492585749988,-1.4183007614204048
1.8459427694103718,5.405835946037705,-0.01774472479424876,0.1394132676479433,-1.3531370964447431
1.8426138670946806,5.380637514695525,-0.017296352213030476,0.12583337805920258,-1.2790669702306117
1.8393789358697894,5.3579964633284085,-0.016755555417401997,0.11249347843675614,-1.1956673905408715
1.836256828932946,5.337865522305528,-0.016108728128318116,0.09941116390936089,-1.1026116408257713
1.83326930591116,5.3201942899741645,-0.015338882627321835,0.08660180799972914,-0.9997342340307285
1.8304418235040003,5.304929870749021,-0.014424090079623699,0.07407628910706412,-0.8871195530128564
1.8278047116018419,5.292018001117228,-0.013334982574674505,0.06183812806972375,-0.7652138136184301
1.8253949720680187,5.281404716710629,-0.012030696728727587,0.04988065515762795,-0.6349480951888717
1.8232591094695216,5.273038387907722,-0.01045206746598117,0.03818596382034539,-0.4978364961385374
1.821457797295344,5.266871411198686,-0.008509113314834855,0.026729580485303925,-0.3559792251304834
1.8200744409648704,5.262859634085778,-0.006052532269097348,0.015499652282142768,-0.21187352559443276
1.8192357359405884,5.260953693151478,-0.002775941670713584,0.004562883868379957,-0.06795474553774211
