x,y,v_x,v_y,omega
2.375,32.48,0.0,2.3076923076923075,-5.918367346938775
2.374239023321111,32.06845837107511,-0.00845529643209969,2.2649924581397984,-5.647667959499599
2.372039743633469,31.664492355541903,-0.015981144541700576,2.2235188255624903,-5.394711562052198
2.3685609273437933,31.267886888145718,-0.022672369788028925,2.1832085899506586,-5.157934987740829
2.3639452284866174,30.878437786505597,-0.028613173069480684,2.1440036504951374,-4.935942356709163
2.358320980048115,30.495950946233243,-0.033878476247211235,2.1058501303087684,-4.72748419597251
2.3518037605456144,30.120241619154065,-0.03853507378057726,2.0686979483487704,-4.531439546955549
2.344497767897644,29.7511337635204,-0.042642622307979355,2.0325004475808592,-4.3468005757674275
2.33649702742303,29.38845945689645,-0.046254494076618954,1.9972140704630543,-4.172659289768
2.3278864565669735,29.03205836385461,-0.049418515435122934,1.9627980744462767,-4.0081960344893215
2.318742805469807,28.68177725182097,-0.05217760786672674,1.9292142814830053,-3.8526695015339545
2.309135489617931,28.337469549395735,-0.05457034604300534,1.8964268565751663,-3.7054080237167266
2.2991273284279243,27.99899494229306,-0.05663144495706864,1.864402111232349,-3.5658019707681565
2.288775201621305,27.666219002726763,-0.05839218622758812,1.8331083283931626,-3.433297089157515
2.2781306335757217,27.33901284863871,-0.059880792056673425,1.8025156059185337,-3.3073886544002957
2.2672403144303814,27.01725282964613,-0.061122754002663496,1.7725957162212682,-3.1876163246630687
2.2561465655328363,26.700820236988818,-0.06214112263672994,1.7433219799710973,-3.073559601410831
2.2448877558034357,26.38960103510023,-0.06295676324549894,1.714669152124301,-2.964833816922794
2.2334986747326218,26.083485612718462,-0.06358858198576332,1.6866133187842354,-2.861086580259717
2.222010866990135,25.782368551702668,-0.06405372626409081,1.6591318036134795,-2.761994623120466
2.210452932994018,25.486148411934657,-0.06436776258165046,1.6322030826977416,-2.667260995315271
2.198850799244506,25.194727530869745,-0.06454483463515469,1.6058067069123994,-2.5766125665806325
2.187227961759768,24.90801183646036,-0.06459780408415504,1.5799232309696694,-2.489797797386647
2.175605705545764,24.625910672314205,-0.06453837607144226,1.5545341484320125,-2.406584746421375
2.164003302681656,24.348336634069135,-0.0643772113075394,1.5296218320687975,-2.326759286725578
2.1524381912974717,24.075205416071938,-0.06412402629450618,1.5051694790111907,-2.250123506115258
2.1409261374553745,23.806435667540505,-0.0637876830621325,1.481161060226924,-2.1764942706682553
2.129482366806861,23.541954152056313,-0.06336532414357045,1.4575224451529916,-2.1035056122841267
2.118119370535582,23.2816900921054,-0.06289018998175555,1.4343004431905015,-2.0335970252776545
2.1068461352171304,23.02556976453937,-0.06236798022326066,1.4114809742098553,-1.966603803613049
2.0956706676370334,22.77352192563019,-0.06180388177781634,1.389050569225458,-1.902371721217604
2.0846000828912583,22.52547770414214,-0.06120261539746208,1.366996336197306,-1.84075625676606
2.073640684505904,22.281370500349333,-0.06056847777313927,1.3453059281672093,-1.781621883700208
2.062798037341252,22.041135890595807,-0.05990537961188306,1.3239675135386533,-1.7248414193266604
2.05207703396663,21.804711537027842,-0.059216880106136495,1.302969748327649,-1.6702954274804975
2.041481955122561,21.572037102157815,-0.05850621816130086,1.2823017502282146,-1.617871669812947
2.0310165248243566,21.343054167945713,-0.05777634070763912,1.2619530743506702,-1.567464601266758
2.020683960605806,21.1177061591088,-0.05702992838736645,1.241913690503899,-1.5189749057515893
2.0104870193520497,20.895938270392058,-0.05626941887659313,1.2221739619043408,-1.4723090684304934
2.000428039126477,20.67769739755223,-0.055497028074212806,1.2027246252048818,-1.4273789813835365
1.9905089773569111,20.462932071826636,-0.054714769365405744,1.1835567717461544,-1.3841015797309906
1.9807314457109058,20.251592397674777,-0.053924471145765526,1.164661829941153,-1.3423985055809295
1.9710967419582328,20.043629993596024,-0.053127792772821925,1.1460315487116497,-1.3021957974184635
1.961605879090162,19.838997935840823,-0.05232623909463135,1.1276579819017147,-1.2634236027797072
1.9522596119395557,19.637650704845683,-0.0515211736898843,1.1095334735998263,-1.2260159122559582
1.9430584615228288,19.4395441342341,-0.05071383094041573,1.0916506443066345,-1.1899103130551067
1.93400273730415,19.24463536223636,-0.04990532704490506,1.0740023778905097,-1.155047760510358
1.925092557563651,19.052882785391226,-0.0490966700717485,1.056581809277603,-1.1213723660729613
1.916327868034645,18.864246014401783,-0.04828876913942948,1.0393823128273194,-1.0888312004576248
1.90770845895973,18.678685832026012,-0.04748244280407213,1.0223974913479108,-1.0573741107282233
1.8992339807020122,18.49616415289077,-0.0466784267261247,1.0056211657103553,-1.0269535502187075
1.8909039580353544,18.31664398512487,-0.04587738068118316,0.9890473650218546,-0.997524420281011
1.882723168793006,18.140326055991594,-0.04502027756713323,0.97004073645899,-1.0206685421135102
1.8746931441665544,17.967419398303043,-0.044202218282327475,0.9511443489693588,-1.0453035922285472
1.8668069525103979,17.79790441985576,-0.043422133452746196,0.9323554115560009,-1.0713130030524962
1.8590578587653466,17.631762020180958,-0.04267890815893495,0.9136712514973506,-1.0985820815389917
1.8514393322385538,17.46897356953449,-0.041971386583206295,0.8950893112411832,-1.1269977562105353
1.8439450535861253,17.30952088840781,-0.04129837622155604,0.8766071457218865,-1.1564483265931864
1.8365689210744196,17.153386227483836,-0.040658651686284505,0.8582224201000914,-1.1868232139733432
1.8293050561916342,17.000552247961405,-0.04005095812244332,0.8399329079269007,-1.2180127123912667
1.822147808677354,16.851002002171533,-0.03947401425844787,0.8217364897383365,-1.2499077387635755
1.8150917610343305,16.704718914407053,-0.03892651510848122,0.8036311520892094,-1.282399580996123
1.808131732583819,16.561686761885476,-0.038407134341643424,0.7856149870394546,-1.3153796429091071
1.801262783123358,16.421889655762012,-0.03791452633014667,0.7676861921101383,-1.348739184747527
1.794480216243887,16.28531202210632,-0.03744732788619607,0.7498430707308711,-1.3823690579917236
1.7877795823616243,16.151938582752063,-0.037004159694502686,0.732084033205339,-1.416159433114194
1.7811566815191031,16.021754335923138,-0.03658362744462138,0.7144075982271666,-1.449999518849631
1.7746075660092855,15.894744536534095,-0.03618432266446215,0.696812394984434,-1.4837772714546709
1.7681285428766818,15.770894676054677,-0.03580482325335812,0.6792971658979893,-1.5173790923316384
1.7617161763499838,15.650190461819687,-0.03544369370995175,0.6618607700463384,-1.5506895122762823
1.755367290261872,15.532617795655053,-0.035099485046845555,0.6445021873384769,-1.583590860482843
1.7490789705134187,15.418162751679077,-0.03477073438041322,0.627220523505695,-1.615962916300888
1.7428485676429513,15.306811553124078,-0.03445596418033513,0.6100150159942904,-1.6476825415876517
1.736673699562388,15.198550548007784,-0.03415368115925729,0.5928850408534279,-1.678623291338297
1.7305522545279974,15.093366183465612,-0.03386237477841547,0.5758301207262757,-1.7086550001066572
1.7244823944173355,14.991244978534109,-0.03358051534004989,0.5588499340682077,-1.737643341554115
1.7184625583898616,14.892173495151958,-0.03330655163188232,0.5419443257334797,-1.7654493582897262
1.7124914670155453,14.796138307117705,-0.033038908082744484,0.5251133190915515,-1.7919289589987157
1.706568126963761,14.703125966712399,-0.032775981381524946,0.5083571298562723,-1.8169323797111459
1.700691836354081,14.613122968660132,-0.032516136503806956,0.49167618183557704,-1.8403036059554367
1.6948621908813823,14.526115711059678,-0.03225770208173381,0.4750711248361211,-1.861879752497779
1.6890790908401971,14.442090452875664,-0.03199896504254722,0.4585428549862331,-1.8814903974242947
1.6833427491877024,14.361033267527496,-0.03173816442961482,0.44209253777118557,-1.8989568675291804
1.6776537008014776,14.282929992058534,-0.0314734843062153,0.4257216341061619,-1.9140914724012246
1.6720128131075462,14.207766171306726,-0.03120304562635535,0.4094319298028157,-1.9266966853549239
1.6664212982767808,14.135526996431363,-0.030924896937706416,0.393225568812334,-1.9365642705745667
1.660880727214141,14.06619723708,-0.03063700375828963,0.3771050906472334,-1.9434743577324316
1.6553930455963657,13.99976116640672,-0.030337236439215338,0.3610734723892268,-1.9471944681908664
1.6499605922508964,13.93620247808126,-0.030023356288220362,0.34513417567144944,-1.9474785011045765
1.644586120213816,13.87550419436397,-0.029692999679340706,0.329291198965094,-1.9440656938714809
1.6392728208600187,13.817648564272858,-0.029343659807296158,0.31354913538057333,-1.936679580239296
1.6340243515686341,13.762616950850564,-0.028972665652530632,0.2979132359782407,-1.9250269820924302
1.6288448674767078,13.710389706572357,-0.028577157591097455,0.2823894782240448,-1.9087970891174788
1.623739057993233,13.6609460360538,-0.028154058891955658,0.26698463864880945,-1.887660706426915
1.6187121889075473,13.614263845467043,-0.02770004206010582,0.2517063678707377,-1.8612697869693213
1.6137701511521183,13.570319578529585,-0.02721148855577173,0.23656326476767794,-1.8292574175746472
1.6089195176031728,13.529088039693328,-0.02668443976584559,0.22156494452408562,-1.7912385008381095
1.6041676097757378,13.490542206385381,-0.026114536094542548,0.20672209223085558,-1.746811477915902
1.5995225769748882,13.454653034048526,-0.025496939470454512,0.19204648928973914,-1.695561580342572
1.5949934915323807,13.421389260590498,-0.02482623211296031,0.1775509935772241,-1.6370662952005537
1.590590465392335,13.390717221062467,-0.024096280554212673,0.16324944562313448,-1.5709039913161778
1.5863247958326911,13.36260068941538,-0.023300047886275124,0.1491564615667234,-1.496666994815943
1.5822091520211812,13.337000772510951,-0.022429327797171335,0.13528705959361317,-1.4139808149940218
1.5782578201742323,13.31387589248141,-0.0214743593911472,0.12165605184572545,-1.3225316586633544
1.57448703447639,13.293181906632299,-0.020423259473769603,0.1082771242555097,-1.222104689593889
1.570915435354724,13.274872427183901,-0.019261175211407945,0.09516153628224894,-1.1126353503072448
1.5675647187656678,13.258899410222423,-0.017969009111439647,0.08231642995638244,-0.9942747765439446
1.5644605739666793,13.24521407091639,-0.016521488655098466,0.06974289566621573,-0.867466696733939
1.5616340609184882,13.233768124780948,-0.014884211880358541,0.057434283616472626,-0.7330255740896964
1.5591236734921714,13.224515209627224,-0.013008981745382855,0.04537588475823433,-0.5921929694259725
1.5569785427999743,13.217412042251933,-0.01082580372347405,0.03354819718946188,-0.4466331870729783
1.5552638334989939,13.212418264816645,-0.008226521842975907,0.021938218758180444,-0.2983188944132573
1.5540716966599963,13.209492378892385,-0.005019443034774905,0.010571624844719251,-0.1492667598781748
1.5535557274630967,13.208572510132253,-0.0007135480418872442,-0.00035086084325259594,-0.0011857927005984592
