x,y,v_x,v_y,omega
2.375,32.48,0.0,2.0,-6.285714285714286
2.374336671484617,32.12314076594668,-0.00737031683759048,1.9651026005924102,-6.0277883854881615
2.372413901629223,31.772483047371725,-0.013993792666782252,1.9310942724626494,-5.784661317989616
2.3693599389623072,31.427870649219983,-0.019939125854506967,1.8979323736677955,-5.555172343748109
2.3652912942464233,31.089154778587517,-0.025268037655315136,1.865577300026282,-5.338272894219778
2.3603139232846293,30.756193525232828,-0.030036084142395,1.833992181692501,-5.133013789043207
2.3545242733978253,30.428851393216306,-0.034293359044318045,1.8031426184910662,-4.938534141508955
2.348010211688553,30.10699887722064,-0.03808510439204273,1.77299644812745,-4.754051696936783
2.3408518504332188,29.790512078072886,-0.041452242889446635,1.7435235424031557,-4.578854392353228
2.333122282655997,29.479272352792098,-0.044431843524124735,1.7146956273833667,-4.4122929612038275
2.3248882390385623,29.173165995155664,-0.04705753000292858,1.6864861241325566,-4.253774435580671
2.3162106757356593,28.872083943337575,-0.04935984002932628,1.6588700071795528,-4.102756421954683
2.307145301338542,28.575921511642427,-0.05136654216087157,1.631823678322078,-3.9587420457262343
2.2977430501098253,28.284578143755873,-0.05310291593597677,1.6053248537507554,-3.8212754758696863
2.2880505076671276,27.997957185268202,-0.054592000093999546,1.5793524627789322,-3.68993795419323
2.278110294489067,27.715965673513356,-0.05585481299556025,1.5538865567193623,-3.564344264775425
2.267961411931713,27.438514143009098,-0.056910548752822074,1.528908226661274,-3.4441395883798616
2.257639554856769,27.16551644499245,-0.05777675207988435,1.504399529079281,-3.328996694413429
2.247177394468746,26.896889579723354,-0.058469474453707114,1.4803434183550939,-3.218613429542205
2.2366004866368954,26.632560719811217,-0.05905172367796509,1.4566439140019796,-3.110525984419674
2.2259302281849997,26.3724596733451,-0.05950670356532006,1.4333677133992972,-3.007018457282499
2.21518855017718,26.116511566463647,-0.05984527429933922,1.4105001408390991,-2.907844477892757
2.2043955096740673,25.864644106869115,-0.06007739795747277,1.3880271879890456,-2.8127734956759616
2.1935694443303895,25.616787467301798,-0.060212216972282656,1.3659354738700251,-2.7215895929170224
2.1827271135401713,25.372874175948805,-0.06025812514124793,1.3442122078298981,-2.6340903999650056
2.171883827400786,25.132839013272452,-0.0602228319630376,1.3228451552406688,-2.550086102521385
2.1610535646351656,24.89661891478999,-0.0601134209882986,1.301822605675604,-2.4693985321696847
2.150249080494697,24.664152879377824,-0.059936402794681716,1.2811333433484475,-2.391860332256019
2.1394820055617116,24.435381882710715,-0.059697763127382036,1.2607666196194298,-2.3173141920676894
2.12876293627846,24.21024879547963,-0.05940300668652424,1.2407121273926323,-2.24561214299579
2.1181015179475633,23.988698306062076,-0.05905719699010668,1.2209599772468314,-2.176614911020588
2.107506520875909,23.77067684734569,-0.05866499269494267,1.2015006751574724,-2.1101913204363316
2.0969859102688106,23.556132527430208,-0.058230680717258135,1.182325101681208,-2.046217744244551
2.0865469104229835,23.345015063955096,-0.05775820645860304,1.1634244924866817,-1.9845775971001072
2.0761960637147285,23.137275721819943,-0.05725120141089292,1.1447904201261365,-1.925160867099158
2.065939284832991,22.932867254082897,-0.056713008386188375,1.1264147769521604,-1.8678636830590432
2.0557819106649733,22.73174384583887,-0.05614670459178951,1.1082897590925689,-1.8125879142620835
2.045728746204304,22.53386106089416,-0.05555512274897654,1.0904078514042093,-1.7592407999230508
2.035784106817843,22.339175791067774,-0.054940870433928146,1.0727618133334498,-1.707734605897593
2.0259518571766364,22.147646207962197,-0.05430634780170154,1.0553446656173893,-1.6579863063796973
2.0162354471290262,21.95923171705774,-0.05365376383840732,1.0381496777654622,-1.6099172885433704
2.0066379447690323,21.773892913994892,-0.052985151272635866,1.0211703562662011,-1.5634530782697926
1.9971620669306818,21.591591542918767,-0.0523023802645965,1.0044004334685086,-1.5185230852686074
1.9878102073186548,21.412290456768417,-0.05160717098014646,0.9878338570909414,-1.4750603660527764
1.9785876747418005,21.236200284733144,-0.05086541320712344,0.9687236099676673,-1.4857430360385044
1.9694965108108011,21.06353943657151,-0.05014751935953506,0.9497302584949003,-1.4981845650286578
1.9605324440906036,20.8942871421678,-0.04945322197599533,0.9308507904352111,-1.5122573069516472
1.9516912595137326,20.728423161641782,-0.04878216221145972,0.9120823265205665,-1.5278358700968764
1.9429688141837795,20.56592776174552,-0.04813389701024077,0.8934221167712096,-1.5447968451458691
1.9343610519397794,20.40678169288049,-0.04750790570087218,0.8748675372847174,-1.5630185367270424
1.9258640167823886,20.250966166650585,-0.04690359604791233,0.8564160874919854,-1.582380697388458
1.9174738652567604,20.098462833867085,-0.046320309792402196,0.8380653878802605,-1.6027642628773129
1.9091868778815928,19.949253762921046,-0.04575732770946012,0.8198131781868534,-1.6240510876017775
1.9009994697089871,19.803321418437854,-0.045213874208379745,0.8016573160708477,-1.646123679129929
1.8929082000954516,19.660648640126812,-0.044689121497572884,0.7835957762740388,-1.668864930551799
1.8849097817606333,19.52121862173636,-0.04418219333374058,0.7656266502865231,-1.692157849493781
1.8770010892071403,19.385014890022255,-0.04369216837173738,0.7477481465368818,-1.7158852825296131
1.8691791665721018,19.25202128363207,-0.04321808312869049,0.7299585911318158,-1.7399296336786978
1.8614412349789478,19.122221931804418,-0.04275893457301962,0.7122564291754675,-1.7641725756204862
1.8537846994562317,18.995601232775215,-0.04231368234604755,0.6946402267045715,-1.788494752182983
1.8462071554892094,18.872143831776413,-0.04188125062086614,0.6771086732821098,-1.8127754705841788
1.8387063952693319,18.75183459850408,-0.041460529599995785,0.6596605852993762,-1.8368923818176808
1.831280413706822,18.63465860392314,-0.04105037665011444,0.6422949100443995,-1.8607211474785683
1.823927414272129,18.52060109626482,-0.04064961706869751,0.6250107306036162,-1.8841350912235901
1.8166458147333078,18.409647476059863,-0.04025704447376076,0.6078072716736534,-1.9070048329529363
1.8094342528583103,18.301783270035827,-0.03987142080398763,0.5906839063711755,-1.9291979036915456
1.8022915921538447,18.196994103689725,-0.039491475912296875,0.5736401641410833,-1.9505783390400973
1.7952169277159207,18.095265672328097,-0.039115906731303246,0.5566757398770323,-1.9710062489650957
1.788209592271537,17.996583710344662,-0.038743375984070016,0.5397905043833316,-1.9903373616117987
1.7812691624962547,17.90093395848102,-0.03837251040795732,0.5229845163238378,-2.008422538764518
1.7743954656987573,17.808302128787943,-0.03800189845312507,0.5062580358214417,-2.025107260561951
1.7675885869710568,17.71867386697382,-0.03763008741021407,0.48961153989102135,-2.040231077122917
1.7608488769119024,17.632034711791817,-0.03725557991372344,0.4730457399090021,-2.053627024880996
1.7541769600414123,17.548370051079104,-0.03687682975838877,0.4565616013433696,-2.0651210057078906
1.7475737440371966,17.467665074019266,-0.036492236955119356,0.44016036598819613,-2.0745311273839238
1.7410404299366062,17.389904719153478,-0.0361001419403294,0.4238435769649785,-2.081667004731619
1.7345785234666313,17.315073617617596,-0.035698818837167925,0.40761310676704265,-2.086329021877519
1.7281898476829376,17.24315603103191,-0.03528646764831722,0.3914711886294645,-2.088307557804029
1.7218765571233146,17.174135783420244,-0.03486120523638577,0.3754204515001602,-2.087382179812294
1.7156411537094598,17.107996186487803,-0.03442105491755493,0.35946395886031285,-2.0833208130364085
1.709486504666001,17.04471995754792,-0.03396393445421006,0.34360525158281324,-2.0758788991401613
1.7034158627690523,16.984289129363617,-0.03348764217855081,0.3278483949094435,-2.06479856435942
1.6974328892915118,16.92668495117151,-0.032989840905233735,0.31219802944731,-2.0498078269139097
1.6915416800831875,16.87188778019941,-0.03246803918725681,0.2966594257982698,-2.030619887590018
1.6857467953174647,16.819876963098203,-0.03191956932077412,0.2812385419928533,-2.0069325664917477
1.6800532935626098,16.77063070691787,-0.031341561288726845,0.2659420822331068,-1.9784279756287282
1.6744667710102379,16.72412593961552,-0.030730911515405048,0.2507775544596861,-1.9447725539610097
1.6689934069390637,16.680338160660938,-0.03008424483097527,0.23575332281339445,-1.9056176425175682
1.6636400168441654,16.639241283199567,-0.029397867334560346,0.2208786489796529,-1.8606008472085458
1.6584141151747063,16.600807470580722,-0.028667706770541992,0.20616371345194226,-1.809348532265875
1.6533239903791503,16.565006972042244,-0.02788923540230024,0.19161960364225733,-1.7514799154107805
1.6483787960831182,16.531807965196613,-0.027057367886946265,0.1772582501981008,-1.686613404818476
1.643588663913925,16.50117641697249,-0.02616632288186581,0.16309228562546546,-1.61437603371254
1.6389648460290442,16.473075980126797,-0.025209431394587454,0.14913479043781339,-1.5344171092457344
1.6345198992389784,16.447467949569038,-0.024178866272808946,0.13539888242616366,-1.446427476458099
1.630267928380266,16.424311311425317,-0.023065254379554707,0.12189709694853032,-1.3501660393987318
1.6262249152223216,16.403562927098456,-0.021857114042045694,0.10864050668326149,-1.2454952251608071
1.6224091720233589,16.385177901897812,-0.020540032613097375,0.09563755110167979,-1.1324266083448145
1.6188419778812932,16.3691101871265,-0.01909545785429823,0.08289261302401241,-1.0111763712725403
1.6155484846319228,16.35531344413543,-0.0174989115831517,0.07040453132119419,-0.882226809723693
1.6125590245413846,16.343742138581593,-0.01571731164505208,0.05816553038811609,-0.7463837801393467
1.609911034844837,16.334352701578332,-0.013704796094362775,0.0461615474258885,-0.604810673246182
1.6076520011257345,16.327104342401892,-0.011395578562331907,0.03437577675676382,-0.45900956270099724
1.6058443588716895,16.321958606819628,-0.0086893353715017,0.02279906304616191,-0.3107159773918574
1.6045752996922846,16.31887547595236,-0.00541132217744194,0.011457946590132698,-0.16168375422193493
1.603986244097587,16.31779680512948,-0.0011337399858652123,0.0005272847752076544,-0.013413776420753115
