x,y,v_x,v_y,omega
2.375,32.48,0.0,3.230769230769231,-3.591836734693878
2.3742084629713576,31.87334750785803,-0.00833196872255035,3.155046475988326,-3.3627092158262473
2.3719512157443763,31.28079153999071,-0.015428528403569584,3.0823847647203158,-3.1554343487456067
2.368446336253283,30.701769174834904,-0.02146493992372879,3.012587500077606,-2.9673101153979853
2.3638811599719047,30.13575321229347,-0.026589547248673854,2.9454752635164696,-2.7960291554921426
2.358416963067808,29.58224909603757,-0.03092831489971672,2.8808838549666422,-2.6396132840855926
2.3521928630236655,29.040792181187257,-0.03458852767019836,2.8186626171419267,-2.496360102515854
2.345329079870502,28.51094529820761,-0.03766182131047072,2.758672993170154,-2.3647992475623356
2.337929672629728,27.992296572493615,-0.04022667596083838,2.700787277503487,-2.2436563671074894
2.330084843198949,27.48445746594616,-0.04235047594209612,2.6448875282591784,-2.1318233236080086
2.3218728822875954,26.987061012297982,-0.04409121786162392,2.590864615405879,-2.0283334431146267
2.3133618180288904,26.499760222349273,-0.045498932230009594,2.538617384054207,-1.9323408717441608
2.3046108167487636,26.022226638854313,-0.04661687071869326,2.4880519158927505,-1.843103291174172
2.2956713764407253,25.55414902373919,-0.047482500944868285,2.4390808747927517,-1.759967392981049
2.286588346304758,25.09523216276105,-0.04812834259162933,2.3916229249771535,-1.6823566281946152
2.277400799893121,24.645195774743154,-0.04858267226770485,2.3456022120533033,-1.6097608405741175
2.2681427846837368,24.20377351421699,-0.04887011941002794,2.300947898748421,-1.541727465312429
2.25884396705201,23.770712057733903,-0.04901217145025162,2.2575937484419617,-1.4778540333189443
2.2495301884616206,23.345770265323093,-0.04902760318542881,2.2154777506192174,-1.4177817681067957
2.2402239461076925,22.928718409608194,-0.04893284264539048,2.1745417832218386,-1.361190100070586
2.230944809113965,22.519337465982122,-0.04874228360437116,2.1347313075788943,-1.3077919534855034
2.2217097796232226,22.117418458003677,-0.048468553140289194,2.0959950921942028,-1.257329686364388
2.2125336066588157,21.72276185283968,-0.04812274122188988,2.058284962163645,-1.2095715835307352
2.2034290594195562,21.335177002149514,-0.047714598138735645,2.0215555714171027,-1.1643088198099287
2.194407165656342,20.95448162430786,-0.047252704631940014,1.9857641953371563,-1.1213528238240655
2.1854774199307845,20.580501324297718,-0.04674461879497849,1.9508705416116878,-1.080532984065047
2.1766479658448468,20.213069147987923,-0.04619700316226109,1.9168365774387763,-1.0416946481677947
2.1679257557324374,19.852025167845675,-0.045615734863101484,1.883626371426987,-1.0046973739714324
2.1593166907998005,19.497216097430943,-0.0450060012699166,1.8512059487280823,-0.9694133973305454
2.1508257442755836,19.148494932281597,-0.044372383195523925,1.8195431581071597,-0.9357262869542541
2.14245706977072,18.805720615030307,-0.043718927381989556,1.7886075498011587,-0.9035297609961176
2.1342140967420566,18.46875772280053,-0.04304920976183437,1.7583702631438778,-0.8727266438454415
2.1260996146931714,18.13747617511241,-0.04236639075274909,1.7288039230468073,-0.8432279447045464
2.118115847523758,17.81175096069333,-0.04167326366213006,1.6998825445224974,-0.8149520421782255
2.110264519249279,17.491461881734025,-0.040972297121854385,1.6715814445227806,-0.7878239613338585
2.1025469121502187,17.176493314262608,-0.04026567234194163,1.6438771604395388,-0.7617747315814688
2.094963918271022,16.866733983426037,-0.03955531586012972,1.6167473746822514,-0.7367408153283903
2.0875160850691934,16.56207675257471,-0.03884292836964513,1.5901708448054186,-0.712663598729361
2.080203655912025,16.262418425140638,-0.03813001012685972,1.5641273387111352,-0.689488937018005
2.0730266060296483,15.967659558385726,-0.03741788337184717,1.5385975744984393,-0.6671667479015405
2.0659846744563826,15.677704288174006,-0.03670771213620929,1.5135631645723044,-0.6456506473535367
2.0590773924260173,15.392460163991757,-0.03600051976237657,1.4890065636619103,-0.6248976228716427
2.0523096546921282,15.111838910952699,-0.0352388248048765,1.4649013630650323,-0.6031801622724338
2.045685459840021,14.835755311490686,-0.034489542059410405,1.4412417891666882,-0.5824151388794065
2.039202424229446,14.564126153237812,-0.03375293805190079,1.418012508231994,-0.5625498269589125
2.0328581205098137,14.296871073522482,-0.03302920636528382,1.395198857192537,-0.5435349710679717
2.0266500906034173,14.033912435451398,-0.03231847685994143,1.3727868067136053,-0.5253245212720429
2.020575857038775,13.775175210779317,-0.031620823820505094,1.3507629266767172,-0.5078753912613825
2.014632932826022,13.52058686912509,-0.030936273155839942,1.3291143538940742,-0.49114723715709396
2.008818830043695,13.27007727312585,-0.03026480876339323,1.307828761887394,-0.47510225503264153
2.0031310672864007,13.02357857915165,-0.029606378155493034,1.2868943325778592,-0.45970499538409737
1.9975671761054623,12.781025143230803,-0.028960897433333705,1.2662997297468483,-0.4449221929661054
1.992124706559311,12.542353431861663,-0.028328255684047482,1.2460340741388194,-0.4307226105734318
1.9868012319769395,12.307501937410084,-0.027708318867232812,1.2260869200883246,-0.4170768954925825
1.9815943530258577,12.076411097813232,-0.027100933249415413,1.2064482335627704,-0.40395744747651763
1.9765017011655526,11.849023220330245,-0.026505928438007472,1.187108371521285,-0.3913382972099148
1.9715209415582158,11.62528240909841,-0.025923120060274914,1.1680580624980175,-0.3791949943344019
1.9666497755003762,11.405134496270183,-0.025352312127510802,1.149288388325441,-0.3675045041941683
1.9618859424318675,11.188526976521882,-0.024793299119948875,1.1307907669198383,-0.3562451125436423
1.9572272215722064,10.975408944739065,-0.02424586782385184,1.1125569360571772,-0.34539633753162036
1.9526714332288233,10.765731036696689,-0.023709798948602617,1.0945789380730895,-0.3349388483413273
1.948216439816603,10.559445372564305,-0.023184868548450987,1.0768491054256997,-0.3248543899242328
1.9438601466237773,10.35650550307772,-0.02267084927076928,1.059360047064653,-0.315125713317817
1.939600502355285,10.156866358228957,-0.022167511450201665,1.0421046355539145,-0.30573651108451433
1.9354354994812542,9.960484198335855,-0.021674624065911904,1.0250759948997739,-0.29667135745136913
1.9313631744151578,9.767316567361668,-0.02119195557720836,1.0082674890390382,-0.2879156527680212
1.9273816075434664,9.57732224836312,-0.020719274651121975,0.9916727109456532,-0.27945557193495596
1.9234928194299812,9.390662430470137,-0.02021533706977354,0.9731674774015422,-0.31332937537231137
1.9196959261756419,9.207508498658282,-0.019751960344324908,0.9547686469337708,-0.34857497410773103
1.9159833272220648,9.027840497362355,-0.019328028640698332,0.9364734719707055,-0.38508892012880197
1.9123476373164647,8.851638983006907,-0.018942391418248484,0.9182793107182146,-0.42276958681305293
1.9087816927018948,8.678885004214095,-0.018593867682488933,0.9001836239429701,-0.46151694438922586
1.9052785565387567,8.509560082588457,-0.01828124982422851,0.8821839721163708,-0.5012323379634548
1.9018315236336585,8.343646194010464,-0.018003307071541005,0.8642780129151342,-0.5418182671615963
1.8984341245469438,8.181125750371187,-0.01775878857808623,0.846463499077248,-0.5831781664255358
1.8950801291460184,8.02198158168045,-0.017546426168496252,0.8287382766147167,-0.6252161849801964
1.8917635496679241,7.866196918480245,-0.01736493675881264,0.8111002833874461,-0.6678369654587952
1.888478643351445,7.713755374494095,-0.01721302446728331,0.7935475480457121,-0.7109454201361063
1.8852199146963766,7.564640929441314,-0.017089382428175138,0.7760781893519977,-0.7544465036725005
1.8819821174054325,7.4188379119426955,-0.01699269431860375,0.758690415896627,-0.7982449812146221
1.8787602560626242,7.276330982441081,-0.0169216356056965,0.7413825262256207,-0.8422451906308966
1.8755495876008104,7.137105116056304,-0.016874874518658326,0.7241529094036196,-0.8863507975807116
1.8723456226105282,7.001145585289194,-0.016851072747470563,0.7070000460396572,-0.9304645420239873
1.869144126542155,6.868437942483563,-0.016848885866984836,0.6899225098090874,-0.9744879746717784
1.8659411208539975,6.738968001948134,-0.0168669634820393,0.6729189695112126,-1.0183211817571836
1.862732884160045,6.612721821632192,-0.016903949085880658,0.6559881917092141,-1.0618624963677747
1.8595159534329317,6.489685684239149,-0.016958479620575624,0.6391290440070251,-1.1050081944244308
1.8562871253201791,6.369846077650919,-0.017029184724187643,0.6223404990269493,-1.1476521732152976
1.8530434576350854,6.25318967452294,-0.017114685645220295,0.6056216391623238,-1.1896856101959628
1.8497822710877778,6.139703310894319,-0.01721359380012206,0.5889716621915613,-1.230996599546298
1.846501151327045,6.029373963640015,-0.017324508944433846,0.5723898878537445,-1.271469763729456
1.8431979513696999,5.922188726571232,-0.01744601692235648,0.5558757655018682,-1.310985837028257
1.8398707945015387,5.818134784966578,-0.017576686953024688,0.5394288829681662,-1.3494212177384408
1.8365180777425754,5.717199388288879,-0.017715068404486767,0.5230489767970845,-1.3866474853778743
1.833138475979322,5.619369820810707,-0.01785968699817989,0.5067359440257919,-1.4225308789284075
1.8297309468786405,5.524633369834849,-0.01800904037741299,0.49048985572007864,-1.4569317317679795
1.8262947367113154,5.43297729115341,-0.018161592962852864,0.4743109725055772,-1.4897038585840363
1.8228293872292693,5.344388771340146,-0.018315770006052435,0.4581997623708911,-1.5206938892004658
1.8193347437585443,5.258854886414127,-0.01846995073842183,0.44215692106087484,-1.5497405439228544
1.8158109646911387,5.176362556347943,-0.01862246049742706,0.42618339542527467,-1.5766738447472384
1.8122585325829685,5.096898494819214,-0.018771561693837,0.4102804101402937,-1.6013142566403442
1.8086782670930643,5.020449153519472,-0.018915443463048878,0.3944494982780419,-1.6234717531659393
1.8050713400312444,4.947000660238338,-0.01905220981926832,0.3786925362602207,-1.6429448011224812
1.801439292818655,4.876538749833042,-0.019179866102724565,0.36301178379554067,-1.659519259748433
1.7977840567086845,4.8090486870736555,-0.019296303475912914,0.34740992946115473,-1.672967191702419
1.7941079761660654,4.744515180224077,-0.01939928118323411,0.33189014263968714,-1.683045585815228
1.7904138358611852,4.682922284080735,-0.019486406236558146,0.31645613255340155,-1.6894949960950563
1.7867048918070405,4.624253291051147,-0.019555110122861125,0.3011122151264867,-1.6920381084603766
1.782984907251346,4.56849060872328,-0.019602622042344316,0.2858633883247585,-1.6903782573703325
1.7792581940411116,4.515615622272421,-0.019625938065384964,0.2707154164211257,-1.6841979306736088
1.7755296603093866,4.465608540004627,-0.019621785426456408,0.2556749232398557,-1.6731573251791383
1.7718048655061434,4.41844822039279,-0.019586580923472836,0.2407494937268603,-1.6568930514503026
1.7680900840271547,4.3741119791988545,-0.019516382013249064,0.22594778199876203,-1.635017139689865
1.7643923790182534,4.332575375812336,-0.0194068286067646,0.21127962206986967,-1.6071165774246252
1.7607196884002392,4.293811978953578,-0.019253072635490042,0.19675613433813421,-1.5727537257607063
1.7570809258593534,4.257793113668235,-0.01904969095278243,0.1823898160338839,-1.5314681310058356
1.7534861006256364,4.224487594491379,-0.018790574665291968,0.16819459635407963,-1.4827804956471233
1.7499464615613434,4.193861454387864,-0.018468783906212524,0.15418582578816498,-1.4261999275354562
1.7464746738145296,4.165877686418437,-0.018076350270773114,0.14038015283737895,-1.3612360846589868
1.7430850407462994,4.14049602611809,-0.017603997815861343,0.12679521874523733,-1.2874185070337152
1.7397937911569032,4.117672818484326,-0.017040734704099995,0.11344907213647615,-1.2043262757976214
1.7366194638939525,4.097361034996819,-0.016373236484854278,0.10035917510044935,-1.111632054359351
1.733583441764059,4.079510532045749,-0.01558489119823668,0.08754085596343796,-1.0091651658285739
1.7307107191473616,4.064068665984056,-0.01465429424068117,0.07500510258068617,-0.8969976610746185
1.7280310407835922,4.05098138279936,-0.01355284643057732,0.0627557730477072,-0.7755532261907252
1.7255806376679832,4.04019483875026,-0.012240870575833175,0.05078679589020988,-0.6457276218251786
1.7234049469072115,4.031657398226116,-0.010661137432289415,0.03908099910077583,-0.5089869920903174
1.7215630643602444,4.025321350989444,-0.008727099904206607,0.027614234969466522,-0.3673776294312417
1.7201358056707123,4.021142574858445,-0.006296675775076696,0.016372882198941122,-0.2233538864570041
1.719244456844788,4.019072948227333,-0.0030859434451799466,0.0054126612864412536,-0.07934550892087294
