x,y,v_x,v_y,omega
2.375,32.48,0.0,2.871794871794872,-5.551020408163265
2.3738238300623475,31.912107368032316,-0.011761699376522829,2.8071314478819147,-5.216771384764196
2.3704595730221922,31.35689667918725,-0.021880871025032902,2.7449754405687434,-4.912465747732542
2.365213818294439,30.81388256321449,-0.030576676252498908,2.6851657191588623,-4.634599097268086
2.3583525119150255,30.28261039279998,-0.03803638754163788,2.6275559849862336,-4.380155549633283
2.3501068185934986,29.762653504593555,-0.04442054567362791,2.572012897078046,-4.146529556521053
2.3406780453269853,29.253610764361376,-0.04986718699150789,2.5184145052437437,-3.931461837788248
2.330241793842781,28.755104420912634,-0.05449532785053545,2.4666489292436555,-3.7329865828453834
2.318951475921234,28.266778204310725,-0.05840785136493027,2.4166132367754485,-3.5493877115351555
2.3069412997784204,27.78829563228111,-0.061693910063208776,2.3682124835207157,-3.379162464563822
2.294328815357791,27.319338495288832,-0.06443093414308068,2.321358886402024,-3.2209909584772816
2.281217090277046,26.859605495927788,-0.06668631666437391,2.275971107208452,-3.0737106205720024
2.2676965753298175,26.408811022371776,-0.068518832807908,2.2319736283516662,-2.936294636367951
2.2538467081258142,25.966684038929344,-0.06997983923212779,2.1892962060726266,-2.807833711859734
2.239737295119746,25.532967079402965,-0.07111429082855314,2.147873389191172,-2.6875205860876306
2.225429705510956,25.107415331117092,-0.07196160525934875,2.1076440936675658,-2.5746368350701228
2.210977904970625,24.689795799253584,-0.07255640014395988,2.068551224967504,-2.468541592126382
2.1964293526225247,24.27988654259734,-0.07292912333704199,2.0305413415949616,-2.368661876854322
2.1818257809716597,23.877475973011908,-0.07310659317161106,1.9935643542593484,-2.2744842791404594
2.1672038753895664,23.482362211982554,-0.07311246264932143,1.9575732560342018,-2.1855477883387318
2.152595867204132,23.094352498420193,-0.07296761920502202,1.9225238795894,-2.1014375933095084
2.1380300523089106,22.713262642644022,-0.07269052974718883,1.888374678172306,-2.0217797080218265
2.123531245424699,22.338916522076577,-0.07229753909492828,1.8550865275021347,-1.94623630119229
2.109121178652264,21.971145614711666,-0.07180312862942274,1.8226225461469456,-1.8745016279855427
2.094818851699298,21.609788566867948,-0.07122014090023791,1.7909479322902784,-1.8062984779417568
2.0806408401059864,21.254690792131193,-0.07055997503287699,1.7600298150772755,-1.7413750666678538
2.06660156689872,20.90570409872663,-0.06983275703978696,1.7298371189683466,-1.679502309943255
2.0527135423431684,20.562686342856793,-0.06904748851572821,1.700340439729985,-1.620471428158313
2.0389875758237714,20.225501105797424,-0.06821217667824386,1.6715119308637307,-1.5640918367546073
2.0254329633282198,19.894017392768987,-0.06733394827727121,1.6433251994206166,-1.5101892848380276
2.012057653547455,19.568109351799535,-0.06641914953037678,1.615755210273944,-1.4586042096047112
1.9988683952014217,19.24765601096901,-0.06547343392995694,1.5887781980312863,-1.409190278832829
1.9858708678577826,18.93254103257988,-0.06450183950643366,1.5623715858600142,-1.3618130975941205
1.9730697982162286,18.622652482935713,-0.06350885690910646,1.5365139105816419,-1.316349058646128
1.960469063577578,18.31788261653147,-0.062498489477398264,1.5111847534607903,-1.2726843187764776
1.9480717839983999,18.018127673567783,-0.06147430631438382,1.4863646761761273,-1.2307138857644946
1.9358934240720866,17.72329097756719,-0.06030929294874907,1.4620022838298,-1.1865415705082485
1.9239472858071545,17.43327927105026,-0.05915208970057167,1.438114781339485,-1.144385392057434
1.9122316409744449,17.1479992731239,-0.0580043586265252,1.4146851979241069,-1.104129452510988
1.9007444526729178,16.867361019191733,-0.05686752438874644,1.3916973413975664,-1.065665779769955
1.8894834201063182,16.591277709744546,-0.05574280127724913,1.3691357530743327,-1.028893699343007
1.8784460182598977,16.319665567857086,-0.05463121718695623,1.3469856658002306,-0.9937192625950632
1.8676295330506112,16.052443704791575,-0.053533634905907006,1.3252329648548997,-0.960054725780222
1.8570310924573035,15.789533993156482,-0.052450771027171404,1.3038641514960165,-0.9278180748254653
1.8466476940787127,15.53086094711323,-0.05138321275873794,1.2828663089365027,-0.8969325913814433
1.8364762295156054,15.276351609163093,-0.0503314328723339,1.2622270705648604,-0.8673264561409428
1.826513505928061,15.025935443083032,-0.04929580300310818,1.241934590235766,-0.8389323858528493
1.8167562650790727,14.779544232612125,-0.04827660548677472,1.2219775144733112,-0.8116873008368136
1.8072012001405273,14.53711198552049,-0.04727404389868114,1.2023449564430257,-0.7855320201377243
1.7978449705066688,14.298574842720068,-0.04628825243990454,1.1830264715611967,-0.7604109817548907
1.7886842148328264,14.06387099210183,-0.04531930429851857,1.164012034621184,-0.7362719856432643
1.7797155624930439,13.832940586807059,-0.04436721909930694,1.145292018326537,-0.7130659574171507
1.7709356436288985,13.605725667661417,-0.04343196954214639,1.1268571731298658,-0.6907467308942276
1.7623410979429026,13.38217008951996,-0.04251348731781322,1.1086986082847141,-0.6692708478023691
1.7539285823731334,13.16221945128897,-0.041611668379878154,1.0908077740252025,-0.6485973731364711
1.7456947777708987,12.945821029406943,-0.040726377642470356,1.0731764447950491,-0.6286877247995157
1.7376363946900655,12.73292371458206,-0.03985745316586072,1.055796703453793,-0.6095055162935568
1.729750178384989,12.523477951597311,-0.0390047098849053,1.0386609263937037,-0.5910164113439421
1.7220329131035697,12.31743568200734,-0.03816794292928821,1.02176176950603,-0.5731879894454843
1.7144814257527297,12.114750289562743,-0.0373469305791099,1.0050921549399445,-0.5559896214138271
1.7070925890053594,11.915376548208563,-0.036541436894594735,0.9886452586018493,-0.5393923541101461
1.6998701549857413,11.719453249336368,-0.035682903301584204,0.9705877301201031,-0.5598526783484671
1.6928150958447197,11.527130084370238,-0.034867688108632666,0.9526439195411964,-0.5820918006075158
1.6859188427792438,11.338384619116031,-0.03409484254612746,0.9348107330008821,-0.605994832227952
1.679173022269798,11.153195025765577,-0.033363362548330305,0.9170852005036605,-0.6314496003825366
1.6725694665419932,10.971540058584566,-0.03267219472971732,0.8994644713064637,-0.658346394406511
1.6661002228861106,10.793399030481304,-0.03202024182910812,0.8819458097261713,-0.6865777184228924
1.6597575619373022,10.618751790372876,-0.031406367658977606,0.8645265913580904,-0.7160380492266605
1.6535339850120137,10.447578701267538,-0.030829401593908536,0.8472042996953032,-0.7466235984062423
1.6474222305897332,10.27986061898385,-0.030288142628893525,0.8299765231415671,-0.7782320776876603
1.6414152800233333,10.115578871428365,-0.029781363035106822,0.8128409524132746,-0.8107624664861132
1.6355063625560413,9.95471523835415,-0.02930781163781324,0.7957953783288853,-0.8441147806414482
1.629688959718436,9.797251931522535,-0.028866216738239223,0.7788376899872624,-0.8781898412977436
1.6239568091747647,9.643171575189857,-0.02845528869847501,0.7619658733395235,-0.9128890428627005
1.6183039080843389,9.492457186839665,-0.028073722205782026,0.7451780101623918,-0.9481141189493719
1.6127245160407586,9.345092158078959,-0.027720198230021337,0.7284722774446677,-0.9837669051604356
1.6072131576492295,9.201060235614253,-0.02739338568527106,0.7118469472023745,-1.0197490975231729
1.6017646248002986,9.060345502219771,-0.027091942804036373,0.6953003867424424,-1.0559620053209027
1.5963739786969202,8.922932357605571,-0.026814518229746856,0.678831059399542,-1.092306296993088
1.5910365516909004,8.78880549908802,-0.02655975183045219,0.6624375257759517,-1.1286817376908806
1.5857479489844815,8.657949901958403,-0.026326275233736443,0.646118445520231,-1.1649869169766118
1.580504050253124,8.530350799437674,-0.026112712079838434,0.6298725796870774,-1.2011189650437544
1.575301011246465,8.405993662096147,-0.02591767798675241,0.6136987937281977,-1.2369732557072572
1.5701352654260248,8.284864176606082,-0.02573978021764797,0.5975960611724492,-1.272443094271976
1.5650035257005357,8.166948223682528,-0.025577617037243764,0.5815634680630776,-1.3074193882284315
1.5599027863228367,8.052231855053144,-0.025429776739744475,0.5656002182307507,-1.341790298549765
1.5548303250162077,7.940701269280719,-0.02529483632654667,0.54970563949349,-1.3754408691713491
1.549783705402846,7.832342786242496,-0.025171359807070758,0.5338791908887317,-1.4082526320255004
1.544760779813068,7.727142820047735,-0.025057896090708943,0.5181204710588724,-1.4401031847794998
1.5397596925608064,7.625087850148844,-0.024952976431907428,0.5024292279300384,-1.470865738188444
1.5347788837792429,7.526164390371367,-0.02485511138372683,0.48680536984473727,-1.500408629730188
1.529817093920097,7.430358955553611,-0.024762787207732163,0.47124897833280704,-1.5285947999456522
1.5248733690313623,7.337658025447137,-0.024674461679616445,0.4557603227319442,-1.5552812276762962
1.519947066941361,7.248048005484012,-0.024588559220394702,0.4403398768992874,-1.5803183201900748
1.5150378644921103,7.1615151839651645,-0.024503465272114108,0.4249883382891991,-1.603549254045144
1.5101457659824435,7.0780456851653,-0.024417519824553716,0.40970664970946086,-1.624809262497216
1.5052711130014882,6.9976254177835315,-0.024329009984998626,0.3944960241082184,-1.643924865370338
1.5004145958563466,6.920240018094077,-0.024236161466419673,0.3793579727863122,-1.6607130376666939
1.4955772668247393,6.845874787068201,-0.02413712884965188,0.36429433747243223,-1.6749803139109176
1.4907605554946177,6.774514620647068,-0.02402998445156366,0.3493073267388961,-1.686521826484069
1.4859662864892154,6.706143932246288,-0.023912705602462673,0.3343995572688845,-1.6951202782544197
1.4811966999189508,6.640746566469023,-0.02378316010018255,0.31957410050377566,-1.7005448530196217
1.4764544749526793,6.5783057028997085,-0.023639089562530746,0.30483453518935777,-1.702550072159906
1.4717427569624704,6.518803748752493,-0.023478090339560175,0.29018500628278404,-1.7008746132164705
1.4670651887719726,6.462222219069378,-0.023297591565419377,0.2756302905483692,-1.6952401169362892
1.4624259466339111,6.408541603123119,-0.023094829815194416,0.2611758689142278,-1.6853500252257336
1.4578297816856542,6.357741215710249,-0.022866819667373185,0.2468280052144699,-1.6708885156813265
1.4532820677960498,6.309799032168829,-0.022610319228670454,0.23259383019971738,-1.651519632156023
1.4487888569423313,6.264691506298064,-0.022321789308517352,0.21848142850794933,-1.6268867598190384
1.444356943575481,6.222393371005147,-0.021997344359984076,0.20449992442121134,-1.5966126639908915
1.4399939398985913,6.182877422626717,-0.021632692408914297,0.19065955936308143,-1.560300413981998
1.4357083646805102,6.146114291715019,-0.02122305977189639,0.17697174975390406,-1.517535659017707
1.431509749294644,6.112072205998565,-0.020763094086765688,0.16344910741063917,-1.467890929992059
1.4274087663349735,6.080716755719848,-0.020246735509938392,0.15010539537653095,-1.4109329289786225
1.4234173887833916,6.052010678274591,-0.019667040005880824,0.13695537907603833,-1.3462341596652627
1.4195490918745413,6.025913688811627,-0.019015929082623034,0.12401451555359745,-1.2733907585906352
1.4158191164711198,6.002382396935648,-0.01828382495159122,0.11129840320619075,-1.1920489869115394
1.4122448234143248,5.981370367056588,-0.01745910561635898,0.0988218955843913,-1.1019434196552542
1.4088461852612386,5.96282839959504,-0.0165272759145028,0.08659777903110612,-1.0029500938401463
1.4056464886128546,5.946705126017729,-0.015469690569338803,0.07463495674200056,-0.895156986298179
1.4026733625216952,5.932948006820574,-0.014261570342254044,0.06293623522953798,-0.7789506911907748
1.39996031675618,5.921504764861904,-0.012868887312895568,0.05149618435717165,-0.6551096873328173
1.3975490944963072,5.912325116403668,-0.01124333528583454,0.040300300225194256,-0.524878769548651
1.3954934069436655,5.905362279309912,-0.009313540240583394,0.029328070712349042,-0.389977243852886
1.3938653884250494,5.90057293813506,-0.006966644945577654,0.018565341036159713,-0.25247611709271867
1.3927692810058727,5.897912182751291,-0.003994429246186915,0.008042212801510525,-0.11448784017696406
