x,y,v_x,v_y,omega
2.375,32.48,0.0,2.4615384615384617,-6.653061224489796
2.374074911675079,32.041171896015754,-0.010278759165790758,2.4143293605086513,-6.332302706797788
2.371405657632559,31.610710338727394,-0.019379619084431463,2.368576831584278,-6.03395000783112
2.367192861662797,31.188360333779166,-0.027429225024034713,2.324201001173791,-5.755908661659141
2.361615702162175,30.77388067989241,-0.03453921387176266,2.2811284864568164,-5.496321724831792
2.354834432146968,30.367042866918172,-0.04080823074165083,2.2392916577014064,-5.25353832647211
2.346992564126604,29.96763009697027,-0.04632363615128504,2.1986280083863954,-5.026087000288122
2.3382187706502564,29.57543641092573,-0.051162958030349585,2.159079614330729,-4.812652972386211
2.328628542546311,29.190265905628724,-0.05539513201348598,2.1205926667470987,-4.612058739353959
2.3183256398082763,28.81193202958745,-0.05908156507579427,2.083117067044844,-4.423247396923712
2.307403364361873,28.440256946938693,-0.06227705099535095,2.046606073496906,-4.245268278894663
2.295945679287976,28.075070961070995,-0.06503056093683734,2.011015991699715,-4.077264545010397
2.2840281952547494,27.716211990619982,-0.06738592832123895,1.9763059022004343,-3.9184624197463767
2.2717190417604116,27.36352509163777,-0.06938244383806934,1.942437419824141,-3.768161834918623
2.2590796381740876,27.016862020638623,-0.07105537378774951,1.9093744801663919,-3.625728270313765
2.2461653773834076,26.676080833971177,-0.07243641277536625,1.8770831494718636,-3.4905856201804197
2.2330262330328985,26.341045519592633,-0.073554080008064,1.8455314547342052,-3.362209940971562
2.219707299802543,26.011625657844643,-0.07443406699588805,1.8146892313545613,-3.2401239583995722
2.206249274879767,25.687696108272945,-0.07509954325717995,1.7845279861087682,-3.1238922306091785
2.192688887679424,25.369136719906933,-0.07557142563551505,1.7550207735135914,-3.013116879836178
2.1790592839315974,25.055832062733913,-0.07586861600700699,1.7261420839643982,-2.9074338178941046
2.1653903694592107,24.747671178374492,-0.07600821146395725,1.6978677422513735,-2.8065094016890306
2.1517091182843546,24.444547348198693,-0.07600569047888553,1.6701748152575189,-2.7100374640826876
2.1380398491156423,24.146357877322956,-0.07587507806236576,1.643041527806246,-2.617736673110701
2.1244044737638563,23.85300389310154,-0.07562909251303364,1.6164471857650113,-2.529348179062335
2.1108227205971577,23.564390156876108,-0.0752792760058369,1.5903721056286697,-2.4446335144411706
2.0973123357698134,23.280424887878013,-0.0748361109646545,1.5647975499057443,-2.3633727165160376
2.0838892646311584,23.001019598292093,-0.07430912390929216,1.5397056677155885,-2.285362646172468
2.070567815437041,22.72608893859077,-0.07370697824756638,1.5150794400769048,-2.210415480197237
2.057360807238216,22.455550552335122,-0.07303755729493396,1.4909026294302843,-2.13835735706337
2.044283361397992,22.189330856560666,-0.0722673964853341,1.4670939902859252,-2.0663928775487945
2.0313478780889853,21.92735871337984,-0.07146019583696037,1.4437076006121072,-1.9974772821939437
2.0185605869785928,21.669559406090688,-0.0706208165007336,1.4207291470451373,-1.9314469565107417
2.0059268842811,21.415860738326266,-0.06975365791585605,1.3981449392262226,-1.8681487330541484
1.9934514119886824,21.166192925052947,-0.06886270088878257,1.3759418749217913,-1.807439116256612
1.9811381297274204,20.920488489633158,-0.06795154645857326,1.3541074075202741,-1.749183572655391
1.9689903799571855,20.678682166542266,-0.0670234509884813,1.3326295157118575,-1.6932558803311593
1.957010947159534,20.440710809362347,-0.06608135787431256,1.3114966751761645,-1.6395375320238736
1.94520211159134,20.206513303705762,-0.06512792621673148,1.2906978321192384,-1.5879171869649196
1.9335656981228488,19.976030484748602,-0.06416555676650465,1.2702223785158517,-1.538290166972371
1.9221031206262431,19.74920505907881,-0.06319641541800369,1.2500601289262572,-1.4905579928069546
1.9108154223339326,19.52598153058631,-0.06222245449655768,1.23020129876822,-1.4446279571869582
1.8997033125439362,19.306306130142957,-0.06124543205895732,1.2106364839356847,-1.400412731216965
1.8887672000123474,19.09012674883891,-0.060266929403140775,1.1913566416648802,-1.357830001303185
1.8780072233394431,18.87739287455892,-0.05928836696246219,1.1723530725571758,-1.3168021339118934
1.867423278626074,18.668055531697966,-0.05831101874163771,1.1536174036756621,-1.277255865781057
1.8570150446501588,18.462067223829614,-0.057336025435199466,1.135141572639361,-1.2391220174221425
1.8467820057890567,18.259381879154002,-0.05636440635482223,1.1169178126452264,-1.2023352279523911
1.8367234728920119,18.059954798564092,-0.05539707027900755,1.0989386383537716,-1.1668337094802037
1.8268386022874596,17.863742606180118,-0.05443482532713005,1.0811968325793004,-1.13255901943004
1.817126413092553,17.670703202212245,-0.0534783879496086,1.0636854337303896,-1.0994558493404747
1.8075858029765748,17.480795718020964,-0.05252839111681787,1.0463977239505213,-1.0674718288015714
1.7982155625157552,17.293980473253278,-0.05158539178117919,1.0293272179126278,-1.036557343317139
1.789014388264289,17.110218934940907,-0.050649877679554096,1.0124676522248428,-1.0066653649851407
1.7799808946548432,16.929473678453952,-0.04972227353651188,0.9958129754079655,-0.9777512949867706
1.771120606829868,16.751941156374436,-0.04872536896321214,0.9767706032533596,-1.000751579946412
1.762435797019766,16.5778262684036,-0.04777251781569902,0.9578392630892383,-1.0252808605430803
1.75391864945365,16.407109283186543,-0.04686245514114388,0.9390161282114007,-1.0512215474922764
1.745561579424733,16.239770967419005,-0.04599387851349123,0.9202984914279049,-1.078458043708773
1.7373572396467631,16.075792564629676,-0.04516545235283953,0.9016837617868514,-1.106876487603863
1.7292985258706488,15.915155774513,-0.044375811826209866,0.8831694617317716,-1.136364499357278
1.7213785818343057,15.757842732735735,-0.043623566355378576,0.8647532246822773,-1.1668109290781883
1.7135908036144043,15.603835991140656,-0.0429073027546363,0.8464327930408225,-1.1981056057597783
1.7059288434448119,15.453118498270303,-0.042225588018615805,0.8282060166297743,-1.2301390859138357
1.698386613063145,15.305673580132638,-0.041576971777681,0.8100708515665237,-1.2628024007453644
1.6909582866439348,15.161484921128718,-0.0409599884357671,0.7920253595881357,-1.2959868006920647
1.683638303374447,15.020536545060086,-0.04037315900298336,0.7740677078411039,-1.3295834961092619
1.6764213697272345,14.882812796130331,-0.03981499263271111,0.756196169156187,-1.3634833928270493
1.6693024614819614,14.74829831985129,-0.03928398787032591,0.7384091228331353,-1.3975768212425508
1.6622768255480105,14.616978043759417,-0.03877863361801682,0.72070505596544,-1.431753257535802
1.6553399816388192,14.488837157841825,-0.03829740981744033,0.7030825653411367,-1.465901035512255
1.6484877238488307,14.36386109456452,-0.0378387878491004,0.6855403599622671,-1.4999070474778489
1.6417161221844194,14.242035508386952,-0.03740123064435769,0.6680772642329493,-1.5336564324435256
1.635021524101175,14.123346254637305,-0.03698319250280358,0.6506922218742541,-1.5670322498347418
1.6284005561015311,14.007779367611619,-0.036583118604349395,0.6333843006333605,-1.5999151367478854
1.6218501254489837,13.895321037746776,-0.03619944420173449,0.6161526978649141,-1.6321829466499016
1.6153674220580596,13.785957587702246,-0.035830593475199166,0.5989967470743086,-1.6637103672607785
1.6089499206228846,13.679675447168226,-0.03547497802674555,0.581915925525913,-1.6943685151925822
1.6025953830516784,13.57646112619781,-0.03513099498665713,0.5649098630342768,-1.7240245047464353
1.5963018612799067,13.476301186838132,-0.034797024699694375,0.5479783520732364,-1.7525409880948815
1.5900677005412054,13.379182212809429,-0.03447142795254256,0.5311213593568114,-1.77977566390864
1.5838915431826963,13.28509077695129,-0.034152542697558616,0.5143390390669741,-1.8055807513344166
1.5777723331200693,13.19401340612184,-0.03383868022052156,0.49763174792691284,-1.8298024261096995
1.5717093210379618,13.10593654319743,-0.03352812069178319,0.4810000623443101,-1.8522802155336262
1.565702070452934,13.020846505777484,-0.033219108030746486,0.46444479787729415,-1.8728463490319376
1.5597504647699225,12.938729441151015,-0.03290984400271427,0.4479670313057212,-1.8913250612040027
1.5538547154787725,12.859571277027559,-0.032598481454507514,0.43156812562155017,-1.907531844584953
1.5480153716556324,12.783357667476153,-0.03228311658038326,0.415249758282941,-1.9212726499864892
1.5422333309551157,12.71007393345123,-0.031961780092024134,0.39901395310509297,-1.9323430333233014
1.5365098523038037,12.639704997215286,-0.0316324271447761,0.382863116183158,-1.9405272494676815
1.5308465705346799,12.572235309896012,-0.03129292584548621,0.3668000762532054,-1.945597296155579
1.5252455132366012,12.50764877134334,-0.030941044133166375,0.3508281298875827,-1.9473119146492568
1.5197091201344919,12.44592864138443,-0.030574434779159797,0.33495109187808036,-1.9454155592473015
1.5142402653669302,12.387057441519598,-0.030190618193748523,0.3191733510645066,-1.9396373555311228
1.5088422830915436,12.33101684607183,-0.029786962643880543,0.3034999316884864,-1.9296900784495112
1.503518996930246,12.277787561815419,-0.02936066137053504,0.28793656004940593,-1.915269197382647
1.4982747538735202,12.227349195193643,-0.02890870592642035,0.2724897357481035,-1.896052058186651
1.493114463407483,12.179680106433452,-0.02842785480732476,0.25716680603179576,-1.871697304699514
1.4880436428276635,12.134757250239513,-0.027914596079559557,0.24197604056750321,-1.8418446882014456
1.4830684699877188,12.092556003392144,-0.027365102142049885,0.22692670218104874,-1.806115478278504
1.478195845144412,12.053049980616269,-0.026775173894692243,0.2120291064397652,-1.7641137797945052
1.4734334641722557,12.016210841720227,-0.02614017024037594,0.19729465907181057,-1.7154291879473336
1.4687899063429932,11.982008095485586,-0.025454916751431224,0.1827358546464239,-1.6596413888561683
1.4642747412708395,11.950408909472891,-0.02471358405027713,0.16836621216131764,-1.5963275506139214
1.4598986617877485,11.921377940233025,-0.02390952131740063,0.15420011272609116,-1.5250736614675855
1.455673652860334,11.894877205868283,-0.023035022320537397,0.14025249132658849,-1.4454913597260908
1.4516132118486156,11.870866032862335,-0.02208098892077821,0.12653831985060873,-1.3572422357676963
1.4477326434330742,11.849301121514447,-0.021036437918569503,0.11307180623704663,-1.2600719691057711
1.4440494648852789,11.830136787788383,-0.019887768168045314,0.09986523516365486,-1.15385673819148
1.4405839762224542,11.813325449578024,-0.018617661418897927,0.08692741161812716,-1.0386635637326456
1.4373600785351228,11.798818422063235,-0.01720342399589388,0.07426178299064656,-0.9148236130934668
1.434406468441383,11.786567049449175,-0.015614465934549057,0.06186457938779348,-0.7830114807736089
1.431758411610681,11.776524093009051,-0.013808387739917657,0.04972382550246738,-0.644312558900015
1.4294604487024556,11.768645061386966,-0.011724533462586489,0.03782097029849373,-0.5002453061300227
1.4275707787089256,11.762888708552072,-0.009271799798858437,0.02613850564477868,-0.3526915466988061
1.4261694154366376,11.75921489352788,-0.006298903226563348,0.014681661290706586,-0.2036886369184347
1.4253789881995247,11.757573922255446,-0.0024836216302468357,0.003551352847450756,-0.055074978490179144
