x,y,v_x,v_y,omega
2.375,32.48,0.0,2.0,-7.63265306122449
2.373862701419626,32.06399210522592,-0.010831415051183214,1.96197995022928,-7.278223962994977
2.370577343582149,31.655844808165607,-0.02045770721050143,1.9251371646308761,-6.947552896296035
2.3653837364644295,31.255318118778344,-0.029005217720157656,1.8894027342954387,-6.638475257888127
2.3584967248174262,30.862185870032935,-0.036585369394161044,1.854713920422734,-6.349069971227703
2.350109105247158,30.47623450259613,-0.04329672175125335,1.8210133884991984,-6.077626880408058
2.340394146579638,30.097261997896332,-0.0492266941298878,1.7882485610227152,-5.822619250015472
2.3295077766907513,29.725076936908838,-0.054453019097605866,1.756371067429608,-5.582680449854976
2.3175904872952127,29.35949766603985,-0.05904497514561777,1.7253362741798048,-5.356584091773242
2.3047689989664484,29.00035155471377,-0.06306443750927812,1.6951028813066709,-5.143227031206654
2.2911577213219796,28.647474331868153,-0.06656677815233089,1.665632574365849,-4.941614759315336
2.276860037426127,28.30070949066662,-0.0696016399034072,1.6368897227916273,-4.75084880044152
2.261969436710719,27.959907752455287,-0.07221360500524157,1.6088411173163153,-4.570115799910439
2.246570516850779,27.624926582392625,-0.07444277461323486,1.5814557404232872,-4.398678043155361
2.230739871869717,27.29562975033786,-0.07632527282544731,1.554704564860193,-4.235865192006575
2.2145468811441713,26.971886931538002,-0.07789368646546575,1.528560376090836,-4.081067060165685
2.198054411821507,26.653573342446684,-0.07917744994085964,1.5029976152550537,-3.933727279242027
2.1813194453666,26.34056940766919,-0.08020318296301869,1.4779922397687133,-3.793337730678168
2.164423026541434,26.032774455894856,-0.08071509156237203,1.4533882533201772,-3.6527973389516446
2.147437048560261,25.730091878293024,-0.08105612730593934,1.429302961935371,-3.5189555452118624
2.130395643433346,25.432414879782844,-0.08124296914087013,1.405716071494906,-3.391409552698996
2.1133296029240713,25.139640814436298,-0.0812907499950841,1.3826083603769337,-3.2697855691191036
2.096266687345372,24.85167096812443,-0.08121320789728728,1.359961604498022,-3.153736363518096
2.0792319043126133,24.56841035621412,-0.08102282098613169,1.3377585089334898,-3.042939059631489
2.062247760636536,24.28976753500723,-0.08073092830984055,1.315982645417875,-2.9370931397134057
2.0453344901669497,24.015654425751485,-0.08034783806717365,1.2946183951129775,-2.835918636064917
2.028510260073554,23.745986150173547,-0.07988292472707088,1.2736508961054933,-2.7391544902541063
2.0117913577676405,23.48068087659061,-0.07934471628162744,1.25306599516054,-2.6465570624161208
1.995192360421393,23.219659675750897,-0.07874097273025428,1.2328502033129443,-2.5578987750975366
1.9787262888251385,22.962846385635775,-0.07807875675788348,1.212990654926309,-2.472966877912825
1.9624047471329416,22.710167484529883,-0.07736449745351569,1.1934750698917287,-2.3915623208511283
1.9462380498798018,22.46155197173043,-0.07660404781448363,1.1742917186744644,-2.3134987254422485
1.9302353375063908,22.216931255324997,-0.07580273669419188,1.1554293899487205,-2.238601444189748
1.9144046814971416,21.976239046518586,-0.0749654157748466,1.1368773605885272,-2.1667066997301054
1.8987531801223643,21.739411260037038,-0.07409650208017678,1.1186253678071756,-2.0976607961001177
1.8832870456730206,21.506385920175074,-0.07320001648499948,1.1006635832591487,-2.031319395307316
1.8680116839862047,21.277103072094434,-0.07227961862753544,1.0829825889374383,-1.9675468531146791
1.8529317669788195,21.051504698010834,-0.07133863858565646,1.0655733547158663,-1.9062156085839017
1.8380512988352402,20.82953463793858,-0.07038010563890716,1.0484272174008462,-1.8472056224816278
1.8233736764307897,20.611138514688626,-0.06940677440347959,1.0315358611701468,-1.7904038601495953
1.8089017445157687,20.396263662840532,-0.06842114859672124,1.014891299287901,-1.7357038148805106
1.794637846133739,20.184859061430775,-0.06742550266070384,0.9984858569954882,-1.683005068233531
1.7805838687020705,19.976875270120093,-0.06642190145042326,0.9823121554872004,-1.6322128840724177
1.7667517009965459,19.77244605541503,-0.06531302907838159,0.9646327464657796,-1.6166419077251932
1.7531500486943201,19.57171551977178,-0.06422651665710286,0.947086640612797,-1.603835905852367
1.7397741488729268,19.37465608837536,-0.06316300545140445,0.9296698488769217,-1.5936441437428552
1.7266191207223947,19.181241005521183,-0.062122976934615,0.9123785592580724,-1.585920604854488
1.7136799977855688,18.99144429827308,-0.061106765320870914,0.8952091288191212,-1.5805236443624626
1.7009517576653874,18.805240741732227,-0.06011456915704715,0.8781580763318407,-1.5773156569717453
1.6884293493895646,18.622605825787268,-0.059146462041267014,0.8612220755249099,-1.5761627575586903
1.6761077186096265,18.443515723222056,-0.05820240252957031,0.844397948905678,-1.5769344732775592
1.6639818307988488,18.267947259063195,-0.05728224328736112,0.8276826621310923,-1.5795034458282955
1.6520466926022213,18.09587788105422,-0.056385739537661614,0.8110733189067609,-1.5837451426334017
1.6402973714811047,17.92728563114737,-0.0555125568539265,0.7945671563965799,-1.5895375757145445
1.6287290137856179,17.762149117907214,-0.054662278341187406,0.7781615411287457,-1.5967610270939516
1.617336861379009,17.600447489723024,-0.05383441124556504,0.7618539653873301,-1.6052977795720873
1.6061162669302131,17.442160408728746,-0.053028393028678025,0.7456420440819556,-1.615031851751733
1.595062707983485,17.287268025330533,-0.052243596940163395,0.7295235120915059,-1.6258487361896556
1.5841717999073381,17.135750953242393,-0.05147933711837712,0.7134962220812846,-1.6376351395606414
1.573439307819043,16.98759024493021,-0.0507348732463393,0.6975581427966256,-1.650278723714921
1.5628611575755316,16.842767367363393,-0.050009414787102746,0.6817073578397121,-1.6636678464989818
1.552433445916793,16.701264177971492,-0.049302124819932104,0.665942064940316,-1.6776913011915118
1.5421524498436243,16.563062900700544,-0.04861212349596032,0.6502605757353778,-1.69223805338083
1.5320146353079702,16.42814610206026,-0.04793849112931596,0.6346613160768562,-1.7071969740777284
1.522016665291,16.296496667048515,-0.04728027093706597,0.6191428268921488,-1.7224565678183539
1.512155407341548,16.168097774834038,-0.04663647143866876,0.6037037656266712,-1.7379046944659042
1.5024279406455774,16.042932874071322,-0.046006068522956696,0.5883429083039539,-1.7534282833679338
1.4928315626959332,15.92098565771369,-0.045388007187938485,0.5730591522449398,-1.7689130384687144
1.4833637956308303,15.802240037180987,-0.044781202955900906,0.5578515194951028,-1.7842431329144546
1.4740223923093074,15.68668011572736,-0.04418454296336428,0.542719161015648,-1.799300891624844
1.464805342192305,15.574290160841855,-0.0435968867223711,0.527661361703451,-1.8139664602396952
1.4557108770990923,15.465054575500062,-0.04301706654632155,0.512677546313626,-1.8281174587876925
1.4467374769105716,15.358957868068416,-0.042443887630066374,0.4977672863687245,-1.8416286183700883
1.4378838752935468,15.255984620643993,-0.041876127770170336,0.48293030814960075,-1.854371399112086
1.4291490655234331,15.15611945559142,-0.04131253670710037,0.46816650187492703,-1.866213587617608
1.4205323064872064,15.059347000014693,-0.04075183506648715,0.4534759321891484,-1.8770188721815388
1.4120331289537231,14.965651847875154,-0.04019271287145004,0.43885885009218634,-1.8866463940843605
1.4036513422050478,14.875018519437369,-0.03963382759212351,0.4243157064581676,-1.8949502734406092
1.3953870411302365,14.7874314176923,-0.03907380169179431,0.4098471673043983,-1.9017791083265885
1.3872406138923719,14.702874781371914,-0.03851121962120244,0.395454130984997,-1.9069754463176563
1.3792127502908063,14.621332634131527,-0.037944624203232274,0.3811377474948902,-1.9103752281803759
1.371304450953878,14.54278872943642,-0.03737251233894216,0.3668994400775515,-1.9118072043706655
1.363517037513332,14.467226490648486,-0.03679332995197157,0.35274092933136475,-1.9110923262960318
1.355852163930936,14.394628945768577,-0.03620546607084778,0.33866426000108246,-1.9080431161585387
1.3483118291712484,14.32497865625367,-0.03560724592617707,0.3246718306170876,-1.9024630218109568
1.340898391443441,14.258257639298563,-0.03499692291008458,0.3107664260982246,-1.894145766712521
1.3336145842713019,14.194447282956226,-0.03437266920552619,0.29695125335260825,-1.8828747101469439
1.3264635346966538,14.133528253477401,-0.03373256483874117,0.2832299797790552,-1.8684222398884076
1.3194487839811782,14.075480394292072,-0.03307458483245551,0.26960677436694025,-1.8505492291869812
1.3125743112505697,14.020282616151384,-0.032396584030482976,0.2560863507824576,-1.8290046032672203
1.3058445606312032,13.967912778125385,-0.03169627901110119,0.24267401136990333,-1.8035250788116293
1.2992644725751719,13.918347559447298,-0.030971226284435754,0.22937569032614738,-1.7738351649067878
1.2928395202726786,13.871562322662228,-0.030218795644071733,0.21619799334117132,-1.7396475480171114
1.2865757523383303,13.827530969250677,-0.029436137064006898,0.2031482296259675,-1.7006640297811855
1.2804798433703197,13.786225789955509,-0.028620138821809065,0.19023443032801074,-1.6565772486556591
1.2745591545794743,13.747617313578587,-0.027767373471957197,0.17746534469029773,-1.6070734992562856
1.268821807559537,13.711674160201913,-0.026874026717922193,0.16485040175421262,-1.551837071573852
1.2632767755562955,13.67836290783541,-0.025935801884378485,0.15239962078388866,-1.4905566700670372
1.257933998491922,13.647647985624339,-0.02494778920489175,0.14012344789297093,-1.4229346401371266
1.252804530805985,13.619491612148678,-0.02390428399450914,0.12803248997045658,-1.3486999169281422
1.2479007353101892,13.593853804025965,-0.022798530251164427,0.11613711119822578,-1.2676257871352188
1.2432365423215277,13.570692487546495,-0.02162235535513489,0.10444685527290844,-1.179553643304518
1.2388278021792833,13.549963753000071,-0.02036564599957323,0.09296966421684844,-1.0844237575897984
1.2346927720522651,13.531622294363764,-0.019015593305362746,0.0817108942241779,-0.9823134257766126
1.2308527965167946,13.515622069444063,-0.01755560227054692,0.07067220024917018,-0.8734811809626716
1.2273332691167351,13.501917185558117,-0.015963706301447285,0.05985050342652079,-0.7584125676507206
1.224165007254686,13.49046294454779,-0.014210216194259674,0.04923750619564443,-0.6378577760919878
1.221386259727924,13.481216840596243,-0.012254045965378452,0.03882062667622737,-0.5128447523015658
1.2190457753065251,13.47413904844112,-0.01003628185746691,0.028586917658266153,-0.38464574606549023
1.2172079877803197,13.469191429634193,-0.0074664564873464755,0.01853326145531363,-0.25467539758277835
1.2159638075307595,13.466332575602326,-0.004382879222749891,0.008693919800569487,-0.12430964343712911
