x,y,v_x,v_y,omega
2.375,32.48,0.0,3.282051282051282,-2.0
2.374546812057772,31.863786383128325,-0.0047703993918718855,3.2044078429136857,-1.8706514112639767
2.373255726014656,31.262024816025903,-0.008819980009352822,3.129924442374956,-1.753828264960359
2.3712537894240797,30.674134004474016,-0.01225303673355457,3.058399889750182,-1.6479603876474633
2.3686497836057527,30.099569266779362,-0.015157550827778934,2.989649980719878,-1.5517096147117757
2.3655370579677517,29.537819477729766,-0.01760798220381077,2.9235056934863866,-1.463930976842455
2.3619958832736607,28.988404333073213,-0.019667540891886555,2.8598116186878437,-1.3836410794948886
2.3580954128163927,28.450871893557384,-0.021390042868830776,2.7984245867419446,-1.309992219258608
2.3538953226510584,27.92479637383541,-0.022821432555736775,2.7392124629630277,-1.242251099854558
2.349447188065585,27.409776146679643,-0.024001036765039174,2.682053086045055,-1.179781254346342
2.3447956424455887,26.905431937186304,-0.024962601340182487,2.626833329674312,-1.12202846787357
2.339979355952415,26.411405185181053,-0.025735151219541584,2.57344827038093,-1.0685086405963113
2.3350318644738093,25.927356556987693,-0.02634370644999319,2.521800447443926,-1.0187976437699526
2.329982273738592,25.4529645902079,-0.02680988023650401,2.4717992028697178,-0.9725228105357464
2.324855859012571,24.987924457264207,-0.02715238003739753,2.4233600912743882,-0.9293557727993685
2.319674577183087,24.531946835248533,-0.02738742869401669,2.3764043509958612,-0.8890064107663085
2.3144575051155964,24.084756871148386,-0.027529119384833226,2.330858429005713,-0.8512177255632384
2.309221215788344,23.646093232836,-0.027589715638873684,2.2866535532298906,-0.8157614803826119
2.3039801017712205,23.215707237336854,-0.027579905594008584,2.2437253467611424,-0.7824344836499089
2.298746654026396,22.79336204887212,-0.027509018035719625,2.2020134791834165,-0.7510554102998033
2.2935317027032287,22.378831940018575,-0.027385206418674465,2.161461350853912,-0.721462075499219
2.288344625524196,21.97190161006796,-0.027215605992198143,2.1220158065209644,-0.6935090899599418
2.283193528469203,21.57236555531291,-0.02700646827088339,2.0836268751111477,-0.6670658380361733
2.2780854027280104,21.180027486550955,-0.026763276373250343,2.046247532909435,-0.6420147296494022
2.2730262612770638,20.794699789593786,-0.026490844163028177,2.009833487692351,-0.6182496851553657
2.26802125792537,20.41620302500491,-0.02619340164427687,1.974342981664237,-0.5956748189073299
2.263074791246152,20.044365463673493,-0.025874668663278748,1.9397366112980412,-0.5742032927482307
2.2581905954522465,19.67902265517215,-0.025537918640989372,1.9059771624002968,-0.5537563151984238
2.25337181997158,19.320017026147674,-0.02518603378708021,1.873029458909979,-0.5342622658698346
2.248621099224911,18.96719750626108,-0.02482155301996113,1.8408602241068202,-0.5156559277710602
2.243940613893322,18.620419179431195,-0.024446713628349034,1.8094379530498206,-0.4978778127843529
2.239332144781166,18.27954295834803,-0.024063487552237455,1.7787327951940088,-0.4808735677857833
2.2347971202259416,17.94443528041129,-0.023673613029069885,1.748716446245406,-0.4645934507184915
2.230336657875372,17.614967823418766,-0.023278622240087175,1.7193620484127166,-0.448991867476245
2.2259516015401983,17.29101723948094,-0.022879865498579968,1.6906440983012592,-0.4340269617599574
2.221642553735733,16.97246490577402,-0.022478532443161066,1.6625383617715757,-0.41966025117388195
2.2174099044435223,16.659196690866157,-0.02207567063274048,1.6350217951533066,-0.40585630376414955
2.2132538565544673,16.351102735461378,-0.0216722018836296,1.6080724722654025,-0.3925824499976188
2.209174448394583,16.04807724650515,-0.021268936641462694,1.5816695167475092,-0.3798085258562893
2.2051715736828412,15.75001830368489,-0.020866586640032173,1.5557930392552466,-0.36750664330059074
2.201244999225906,15.456827677439733,-0.020465776064550936,1.5304240791148078,-0.3556509848492832
2.197394380616077,15.168410657667135,-0.020067051407334963,1.5055445500704538,-0.3442176194474747
2.193619276165408,14.884675892380145,-0.019670890178653744,1.4811371897926089,-0.33318433715821844
2.1899221113715837,14.605535504238862,-0.01924663396686574,1.4571826853787921,-0.3216434668653803
2.186304842508112,14.330904662589976,-0.018829880385466166,1.4336682793463131,-0.31060648693127857
2.1827660357626137,14.060701180524223,-0.018420716935567797,1.4105789002931768,-0.3000456208078059
2.1793042440203187,13.79484567248931,-0.018019196141220873,1.3879001316532766,-0.28993491211761035
2.1759180130726685,13.533261433270933,-0.017625340149834825,1.3656181759085768,-0.2802500863885482
2.17260588700357,13.27587432355324,-0.017239144788044235,1.3437198211197634,-0.27096842469191723
2.1693664128505974,13.022612661634732,-0.016860583137985954,1.3221924096013702,-0.2620686480414147
2.166198144626854,12.773407120907294,-0.016489608690888564,1.3010238085821733,-0.2535308115306319
2.163099646779073,12.528190632735008,-0.016126158127862358,1.2802023827050488,-0.24533620729383696
2.160069497148617,12.286898294395929,-0.015770153771673113,1.2597169682326164,-0.23746727546954072
2.1571062894942514,12.049467281774412,-0.01542150574796196,1.2395568488360005,-0.2299075224303902
2.1542086356286707,11.815836766513858,-0.015080113889730814,1.219711732854039,-0.2226414456175995
2.151375167214735,11.585947837360386,-0.014745869414856984,1.2001717319193501,-0.21565446438453548
2.1486045372620524,11.359743425446734,-0.014418656402853745,1.1809273408559389,-0.2089328563132205
2.1458954213598522,11.137168233283166,-0.014098353093988568,1.1619694187605563,-0.20246369852024707
2.143246518677964,10.91816866723816,-0.01378483303114959,1.1432891711868896,-0.19623481351567987
2.140656552764071,10.702692773306403,-0.013477966062463908,1.1248781333579287,-0.19023471922059781
2.1381242721621825,10.490690175975331,-0.013177619220575285,1.1067281543375802,-0.18445258278658216
2.135648450874426,10.282112020013965,-0.012883657492646633,1.088831382097832,-0.17887817789418659
2.1332278886857394,10.076910915019528,-0.012595944493532126,1.0711802494225657,-0.17350184523767642
2.1308614113688056,9.875040882568001,-0.01231434305313677,1.0537674605935008,-0.16831445593048167
2.128547870784624,9.67645730582488,-0.012038715727723854,1.0365859788077725,-0.16330737759021974
2.126286144892327,9.481116881481508,-0.011768925243821556,1.0196290142803461,-0.1584724428841021
2.124075137680336,9.288977573891028,-0.011504834882400991,1.0028900129878515,-0.1538019203353196
2.121913779029545,9.099998571285894,-0.011246308810133157,0.9863626460135395,-0.1492884872088305
2.1198031176509806,8.914341439636509,-0.01097117938528372,0.9679229502957654,-0.18675131374597015
2.1177413362128723,8.732177978072254,-0.010731783121118648,0.9495871714332453,-0.22547832028004577
2.1157217361098386,8.553488694863578,-0.010527165331868987,0.9313526518159878,-0.26537065043827396
2.113737803739869,8.378254593707709,-0.010356333299389581,0.9132168340352828,-0.30633104316225906
2.1117832173230466,8.206457154966987,-0.010218260561899874,0.895177257972296,-0.3482636199204894
2.1098518529443298,8.038078317428248,-0.01011189079301416,0.8772315582249663,-0.3910736735617079
2.1079377898958365,7.8731004605191295,-0.010036141296388603,0.859377461871008,-0.434667457902895
2.1060353153895286,7.711506386917485,-0.009989906138430338,0.8416127865673522,-0.4789519771252549
2.1041389287071994,7.553279305489628,-0.00997205893871939,0.8239354389890314,-0.523834774023623
2.1022433448511904,7.3984028144924,-0.009981455335061232,0.8063434136133552,-0.5692237161185865
2.1003434977563074,7.246860884972595,-0.01001693513739011,0.7888347918582761,-0.6150267785957312
2.0984345431209603,7.098637844295276,-0.010077324182053555,0.7714077415871771,-0.661151822982068
2.096511860913612,6.95371835972988,-0.01016143589529823,0.7540605169959486,-0.7075063704050151
2.094571057609217,6.812087422019552,-0.010268072572015978,0.7367914589022546,-0.7539973682033525
2.092607968209444,6.673730328855008,-0.010396026372964143,0.7195989954613727,-0.8005309485712196
2.0906186581001447,6.538632668169065,-0.010544080040710746,0.7024816433380219,-0.8470121778142511
2.0885994247997908,6.406780301161874,-0.010711007331434258,0.6854380093692602,-0.8933447946799388
2.0865467996534477,6.278159344959597,-0.010895573156387213,0.6684667927599617,-0.939430936090714
2.084457549528381,6.152756154800731,-0.011096533423265545,0.6515667878596896,-0.9851708484563598
2.082328678569604,6.030557305634137,-0.011312634563858873,0.6347368875781431,-1.030462582570325
2.080157430076675,5.91154957300115,-0.01154261273013197,0.6179760875059268,-1.0752016699003701
2.07794128856687,5.7957199130603385,-0.011785192636238064,0.6012834908184029,-1.1192807778656544
2.0756779820946396,5.683055441597549,-0.012039086018815258,0.5846583140530696,-1.1625893414478718
2.0733654849030447,5.573543411845279,-0.012302989682183098,0.5680998938655499,-1.2050131682114071
2.0710020204898165,5.467171190913863,-0.012575583088640237,0.5516076948862003,-1.2464340135051315
2.0685860651789447,5.363926234611878,-0.012855525446855448,0.5351813188189258,-1.2867291222853856
2.066116352298388,5.263796060404168,-0.013141452243216303,0.5188205149464549,-1.325770733635904
2.0635918770758606,5.166768218222163,-0.013431971151806405,0.502525192232546,-1.3634255436676157
2.061011902377855,5.072830258802089,-0.013725657248254699,0.4862954332419119,-1.3995541220636503
2.0583759654323908,4.981969699181413,-0.014021047440842257,0.47013151013361404,-1.4340102771006589
2.055683885693731,4.894173984931449,-0.014316634018731999,0.45403390302390007,-1.4666403635408487
2.0529357740277874,4.8094304486434325,-0.014610857201729758,0.4380033210604912,-1.4972825273727668
2.0501320434205885,4.727726264115432,-0.014902096558257647,0.4220407266026647,-1.5257658810187684
2.047273421439462,4.649048395606943,-0.015188661137810054,0.4061473629603861,-1.5519096023782641
2.0443609647080185,4.57338354143565,-0.015468778140544238,0.39032478621111805,-1.575521951021398
2.041396075692348,4.500718071085622,-0.01574057991914252,0.37457490168392465,-1.596399195112215
2.038380522137835,4.431037954877013,-0.016002089075735196,0.35890000577510517,-1.6143244434087467
2.0353164595447137,4.364328685114163,-0.016251201378172025,0.3433028338338261,-1.6290663782341834
2.0322064571273195,4.30057518748227,-0.016485666173346313,0.32778661492293387,-1.640377888044362
2.0290535277686703,4.239761721305417,-0.01670306391769782,0.3123551343070969,-1.647994602732491
2.0258611625611556,4.181871767116139,-0.0169007803719302,0.2970128045274212,-1.651633342000368
2.0226333706192583,4.126887899829722,-0.017075976911196396,0.2817647458559197,-1.6509904983012111
2.0193747249668634,4.074791645683845,-0.017225556271908096,0.26661687673225604,-1.6457403929719392
2.0160904154481156,4.025563321027601,-0.017346122872806145,0.25157601438610144,-1.6355336701149885
2.0127863098001755,3.9791818510753565,-0.017433936579197278,0.23664998511120267,-1.6199958318554668
2.0094690242798205,3.9356245669637175,-0.01748485837190544,0.22184774237971572,-1.5987260771554501
2.0061460055886142,3.8948669799962907,-0.017494285746057117,0.20717948885636125,-1.5712966938203163
2.0028256263514423,3.856882533037645,-0.01745707464522384,0.19265679491885063,-1.5372533834739035
1.9995172971684976,3.821642330943412,-0.01736744306998563,0.17829270080992993,-1.4961170920363955
1.9962315994470883,3.789114855169373,-0.01721884873432387,0.16410178102204445,-1.447388201636001
1.9929804451095767,3.7592656729987333,-0.017003828502638808,0.1501001365636215,-1.3905543513954735
1.9897772723494103,3.7320571601648673,-0.016713779499112708,0.13630526168760232,-1.3251037393300278
1.9866372916900628,3.7074482683354866,-0.01633864849401958,0.12273570493745517,-1.250546557224952
1.983577805082629,3.685394387410092,-0.015866473689495,0.1094104100666942,-1.1664482263889486
1.9806186349861483,3.665847377771758,-0.015282685220826337,0.09634758612627967,-1.0724792008021544
1.9777827241548276,3.648755877976484,-0.014569007740445974,0.08356293803448792,-0.9684867960951861
1.9750970064962572,3.634066020290252,-0.013701704455032094,0.07106714287320756,-0.8545935007974081
1.9725937154657691,3.621722685003025,-0.012648727444841143,0.05886270225549615,-0.7313207466319332
1.970312409755151,3.6116713369559434,-0.011365016877455645,0.04694096139798952,-0.5997223849842392
1.9683032120250594,3.6038602022279242,-0.00978443291298057,0.035281509423268353,-0.46148313603841307
1.9666322818609103,3.598241859294834,-0.00780430565701174,0.023858942503982336,-0.3188969817566871
1.965392367432612,3.5947717146343514,-0.005247425167182098,0.012668896027397075,-0.1746133881129823
1.964731384228676,3.593394590280436,-0.0017102927689858992,0.0018271498033083627,-0.031083943762642535
