x,y,v_x,v_y,omega
2.375,32.48,0.0,3.8974358974358974,-4.938775510204081
2.3735187896058747,31.71153587362374,-0.014812103941252628,3.787205366326702,-4.546100870463278
2.369343870295141,30.964550992752088,-0.02693708916608374,3.682643442389788,-4.200764475055225
2.3629655850473608,30.23795722166513,-0.03684576331172128,3.5832942684797873,-3.895469812321499
2.3547890271901237,29.530752566557158,-0.04491981526064779,3.4887522825999295,-3.6242391684844453
2.3451500181441864,28.84201184675978,-0.051470275198723305,3.398654915373847,-3.3821441041327773
2.3343278109395746,28.170878691231085,-0.056751796847394086,3.3126766399131173,-3.1650970274029824
2.32255525211228,27.516558620579882,-0.06097379142555344,3.2305240665989077,-2.969688681736482
2.3100269562286115,26.87831302818153,-0.06430916741113239,3.1519318573846222,-2.793060469150957
2.296905916032869,26.255453913282118,-0.06690123454629338,3.076659291609495,-2.6328034340658983
2.2833288736041717,25.64733924850932,-0.06886918974067917,3.004487356118492,-2.4868778148294908
2.2694107046301073,25.0533688866998,-0.0703124999999654,2.935216261976697,-2.3535485802345546
2.255248012424518,24.47298092933073,-0.07131442205592803,2.868663311713981,-2.2313334751377427
2.2409220859865253,23.905648492443525,-0.0719448423239982,2.804661057158082,-2.118960918302465
2.2265013438720755,23.350876816719015,-0.07226257882049915,2.7430557000870173,-2.015335706947882
2.2120433604935945,22.808200676986193,-0.0723172549643106,2.683705697241217,-1.9195109425521173
2.1975965518895872,22.277182053417967,-0.07215083107576387,2.6264805384410193,-1.8306649412765899
2.183201582689171,21.75740803235445,-0.07179886092839814,2.5712596721941474,-1.7480821587076072
2.168892543946958,21.248488909371375,-0.07129152649373033,2.5179315576366426,-1.671137363296291
2.154697941996824,20.750056471086705,-0.07065449300760876,2.466392825210049,-1.5992824511601733
2.1406415309049827,20.2617624354313,-0.06990961791080608,2.4165475313439697,-1.5320354180242033
2.126743015063561,19.7832770328229,-0.0690755405034132,2.368306494740016,-1.4689711003691572
2.1130186436259915,19.314287712973275,-0.06816817387228141,2.321586703756286,-1.4097133735619125
2.099481714590929,18.85449796400178,-0.06720111647833996,2.2763107859586507,-1.3539285545628934
2.0861430031951746,18.403626232185538,-0.06618599747920424,2.232406532203787,-1.3013198043004524
2.073011126724912,17.96140493209503,-0.06513276722342229,2.189806468701307,-1.2516223626822987
2.060092855778464,17.527579538083963,-0.06404994224105698,2.14844747140935,-1.204599479558817
2.04739338031844,17.10190774915484,-0.06294481235918505,2.108270417881845,-1.160038929363517
2.034916537462169,16.684158720133475,-0.06182361620352365,2.0692198723318325,-1.1177500168718246
2.0226650068177014,16.274112352877864,-0.06069169024115183,2.0312438002242703,-1.0775609975057263
2.01064047823146,15.871558641937433,-0.05955359562125939,1.9942933091800528,-1.039316848622518
1.9988437960353895,15.476297069682033,-0.0584132263394494,1.9583224133739323,-1.0028773388532792
1.9872750832360906,15.08813604644929,-0.05727390165353891,1.9232878189535139,-0.968115351267584
1.97593384855183,14.706892391723596,-0.05613844518906819,1.8891487283034218,-0.9349154233050918
1.964819078755904,14.332390852769706,-0.05500925277019278,1.8558666612354655,-0.9031724723259593
1.953929318410902,13.964463657505334,-0.05388835067982693,1.8234052914082393,-0.8727906805249697
1.9432627387650545,13.602950098717194,-0.052777445778646966,1.791730296473152,-0.8436825170167602
1.9328171973186632,13.247696147008618,-0.051677968685265245,1.7608092206126214,-0.8157678782825032
1.9225902893470348,12.898554090118996,-0.05059111103102044,1.7306113482836187,-0.7889733309936633
1.912579392479382,12.55538219647974,-0.04951785764550708,1.7011075881089321,-0.7632314435945453
1.902781705275071,12.218044401071658,-0.04845901439760121,1.6722703659719067,-0.738480195012298
1.893194280604632,11.886410011827447,-0.04741523230678937,1.6440735264702018,-0.7146624505360037
1.883814054529216,11.56035343498322,-0.046387028447373566,1.6164922419720607,-0.6917254963187106
1.8746378712754204,11.239753917926386,-0.04537480409058076,1.5895029285962978,-0.6696206251513683
1.8656625048199351,10.924495308216159,-0.04437886046427191,1.5630831685059707,-0.6483027671714576
1.8568846775280292,10.614465827568893,-0.04339941245478557,1.5372116379666816,-0.6277301600311949
1.848301076229672,10.309557859704764,-0.04243660052878676,1.5118680406746101,-0.6078640537849522
1.8399083660654498,10.009667751046546,-0.04149050111343713,1.487033045907562,-0.5886684463831744
1.831712293068494,9.714696685171898,-0.04047022885611923,1.4626776128389265,-0.5675797969500128
1.8237176701045352,9.424549376267304,-0.039476000783469856,1.4387954762070008,-0.547449377101481
1.815919340524563,9.139132846343102,-0.03850729501625069,1.4153698230350018,-0.5282223514306882
1.8083122543513972,8.858357403671182,-0.03756356671540832,1.3923846036842136,-0.5098476175385817
1.8008914722874376,8.58213649446887,-0.03664425392418656,1.3698244883389143,-0.4922775115305552
1.7936521686380176,8.31038656299122,-0.03574878257001517,1.347674826437601,-0.4754675398444246
1.7865896333072269,8.04302691946554,-0.03487657073789067,1.3259216088191974,-0.45937613478432715
1.7796992730022383,7.779979615346264,-0.034027032311996185,1.3045514323735492,-0.443964431423329
1.7729766117640973,7.521169325408504,-0.03319958006941385,1.283551467004063,-0.4291960637912598
1.7664172909272895,7.26652323623539,-0.0323936282986653,1.2629094247270787,-0.41503697848801435
1.760017068596801,7.0159709406879145,-0.0316085950062174,1.2426135307476616,-0.40145526406008963
1.7537718187195996,6.769444337976633,-0.030843903765795384,1.222652496365157,-0.3884209946527873
1.7476775298172034,6.526877538982699,-0.0300989852581697,1.2030154935741872,-0.3759060866051628
1.7417303034370994,6.288206776501482,-0.029373278542868465,1.183692131237964,-0.36388416679192265
1.7359263523730246,6.053370320105593,-0.02866623209788136,1.1646724327209337,-0.3523304516382096
1.7302619986973617,5.8223083953458,-0.027977304658747718,1.1459468148769791,-0.34122163584143883
1.7247336716430506,5.594963107028324,-0.027305965884364066,1.1275060682977753,-0.3305357899306778
1.719337905367282,5.371278366325196,-0.026651696873320266,1.109341338733511,-0.32025226587991057
1.7140713366247993,5.151199821491332,-0.026013990551506806,1.0914441096051237,-0.3103516100681337
1.708930702374742,4.934674791977468,-0.025392351949066812,1.0738061855335226,-0.3008154829476623
1.703912837341591,4.721652205742412,-0.024786298382441826,1.0564196768170369,-0.29162658484323434
1.6990146715478236,4.512082539581346,-0.024195359555234667,1.0392769847936068,-0.2827685873593083
1.6942332278333154,4.305917762299082,-0.0236190775898461,1.022370788029047,-0.27422606992207893
1.6895656193743007,4.103111280568463,-0.023057007000300785,1.0056940292771244,-0.2659844610268261
1.6850090472127373,3.9036178873246286,-0.022508714615332458,0.9892399031612339,-0.2580299838008222
1.680565540858421,3.70756863809968,-0.021926348927831154,0.9712525890882454,-0.2852108851351653
1.676234521064222,3.5151058514513878,-0.021383849014158116,0.953375277394666,-0.3139990137082209
1.672008102674746,3.3262078216507582,-0.02088033488060314,0.9356050206116133,-0.3442878245401952
1.6678785816920216,3.140853421103305,-0.02041487494663885,0.917938984862929,-0.3759731401412629
1.6638384450331778,2.9590220780412153,-0.01998649164180093,0.900374445757962,-0.40895291929671246
1.6598803792188468,2.780693754999099,-0.01959416650151001,0.8829087846632058,-0.44312703076893434
1.6559972780890324,2.605848927998526,-0.019236844796631413,0.8655394853425322,-0.47839703098033676
1.6521822496365415,2.434468566368448,-0.018913439728279826,0.8482641309582506,-0.5146659447462635
1.648428622042088,2.2665341131298504,-0.01862283621625477,0.831080401427741,-0.5518380481250454
1.644729948989811,2.1020274658737783,-0.0183638943065143,0.8139860711329948,-0.589818652443246
1.6410800143371365,1.9409309580621716,-0.018135452220232957,0.7969790069830742,-0.6285138885376893
1.637472836208691,1.7832273406806323,-0.017936329064221147,0.780057166832317,-0.6678304902316248
1.6339026705802908,1.6288997641713898,-0.017765327219781135,0.7632185982600971,-0.707675576029952
1.630364014415871,1.477931760573263,-0.017621234424414878,0.746461437721155,-0.7479564279772483
1.6268516084176143,1.3303072257932484,-0.017502825558154002,0.7297839100789815,-0.7885802665717883
1.6233604394474361,1.1860104019314974,-0.01740886414362546,0.7131843285385315,-0.8294540205680636
1.6198857426764468,1.0450258595777697,-0.01733810356626863,0.6966610949987297,-0.8704840904286606
1.616423003517985,0.9073384799929087,-0.017289288018350155,0.6802127008498702,-0.911576104102761
1.612967959399395,0.7729334370832994,-0.017261153167548435,0.6638377282462091,-0.9526346637119164
1.609516601427854,0.64179617906969,-0.017252426547864394,0.6475348518898866,-0.993563081612915
1.6060651760063254,0.5139124097438099,-0.017261827667419474,0.6313028413689102,-1.034263104181208
1.6026101864571554,0.3892680691969801,-0.017288067824282178,0.6151405640994221,-1.0746346215150964
1.59914839471295,0.2678493138939402,-0.017329849617772595,0.5990469889309987,-1.1145753610992453
1.5956768231373049,0.14964249595249157,-0.01738586613867624,0.5830211904834784,-1.1539805632846303
1.592192756541698,0.034634141474647606,-0.01745479981739363,0.5670623542949724,-1.192742636239321
1.5886937444695393,-0.07718907224220573,-0.01753532090419224,0.551169782873526,-1.2307507877993733
1.5851776038240866,-0.1858403408055196,-0.01762608555033566,0.5353429027596215,-1.2678906314006677
1.5816424219237675,-0.2913327583538461,-0.01772573345285303,0.5195812727236498,-1.3040437630005932
1.578086560076584,-0.3936793449504066,-0.017832885018980494,0.50388459324197,-1.3390873056038255
1.5745086577748122,-0.49289307601636523,-0.01794613799874011,0.48825271741758625,-1.3728934176914638
1.5709076376223794,-0.5889869141118496,-0.0180640635255878,0.4726856635372244,-1.4053287615222432
1.56728271112028,-0.681973843414184,-0.018185201495405232,0.4571836294860901,-1.4362539269367982
1.5636333854504247,-0.7718669072903239,-0.018308055203148082,0.44174700927528704,-1.465522805964617
1.5599594714157123,-0.858679249415367,-0.018431085143975276,0.42637641197514015,-1.4929819132297812
1.5562610927141747,-0.9424241589519582,-0.018552701871402528,0.4110726833907964,-1.518469646908447
1.5525386967481731,-1.02311512037749,-0.018671257788612592,0.3958369308645527,-1.5418154848573031
1.5487930671963035,-1.1007658686281516,-0.018785037730082225,0.38067055164209007,-1.5628391105807706
1.5450253386064379,-1.1753904503219843,-0.018892248168576778,0.36557526529626394,-1.5813494640428374
1.5412370133039273,-1.2470032919276477,-0.01899100485652847,0.35055315076035193,-1.5971437131147237
1.5374299809503014,-1.315619275861593,-0.019079318679731734,0.33560668857907094,-1.6100061429126862
1.5336065411359767,-1.381253825622899,-0.019155079463515072,0.3207388090339722,-1.6197069627582903
1.5297694294471644,-1.4439230012092565,-0.01921603742460598,0.3059529468295965,-1.6260010344790832
1.5259218475145069,-1.5036436061943306,-0.019259781901970918,0.2912531030211545,-1.6286265319811868
1.522067497632213,-1.560433307976112,-0.01928371692096852,0.27664391479665956,-1.6273035515212622
1.5182106226363583,-1.6143107728111943,-0.019285033037577334,0.2621307335541931,-1.6217327064283837
1.514356051856835,-1.6652958173038783,-0.01926067475765558,0.24771971137264884,-1.6115937614417584
1.5105092541206067,-1.7134095779771883,-0.0192073026046273,0.23341789536045923,-1.5965443936593078
1.5066763990025938,-1.7586747003458427,-0.019121248575502396,0.21923332832609166,-1.5762192141981697
1.5028644278240817,-1.8011155484295358,-0.018998463209618073,0.20517515251084656,-1.5502292541446265
1.4990811363351464,-1.8407584347211952,-0.01883445167973376,0.19125371040577002,-1.518162220483188
1.4953352716667272,-1.877631869003963,-0.018624195004458628,0.17748063242190137,-1.4795839770836716
1.4916366471318976,-1.9117668217119714,-0.018362050343838036,0.16386889465816445,-1.434041922834483
1.4879962800154258,-1.9431969931994288,-0.018041620820877027,0.1504328202164122,-1.3810712505794787
1.4844265599851805,-1.971959073544319,-0.017655579481577862,0.13718798323246625,-1.3202055090451161
1.4809414598046828,-1.998092967355177,-0.017195422323397182,0.12415095487611878,-1.2509934860898149
1.4775568066455675,-2.0216419433282624,-0.0166511092677553,0.11133880485475725,-1.1730251915894283
1.4742906431691771,-2.042652648176947,-0.01601052549614999,0.0987682436321233,-1.0859705654154033
1.4711637253779446,-2.0611748997099184,-0.015258652416175723,0.08645427169760672,-0.9896351773031408
1.468200233348767,-2.0772611493782662,-0.014376267875599473,0.07440822498587177,-0.8840368427080542
1.4654288183232067,-2.0909654960930126,-0.013337882380003094,0.06263524216162242,-0.7695040426634892
1.4628841877223682,-2.1023421771619724,-0.01210842362838222,0.05113156852795654,-0.6467882254681024
1.4606095676702184,-2.111443631457554,-0.010637776893115847,0.039882974427842936,-0.517163577340064
1.4586606760981922,-2.118318650936722,-0.008851138827146238,0.02886722036382931,-0.38245892850050434
1.4571126872904512,-2.123012057838544,-0.0066287492502655095,0.018066848654383044,-0.244938587540079
1.456075213058654,-2.1255698361998725,-0.003745993067704255,0.007510934958896659,-0.10695097643788465
