x,y,v_x,v_y,omega
2.375,32.48,0.0,3.435897435897436,-5.183673469387755
2.373786487256961,31.835210341397953,-0.012773818347780562,3.3513621283345976,-4.83383917695888
2.3703345472698634,31.206133625054562,-0.02356239204271873,3.270498043701111,-4.519475596313507
2.364993214849579,30.592096604287107,-0.03266215974974608,3.193049543324709,-4.2359334167785265
2.3580597632233142,29.992472244067667,-0.04032154157935901,3.1187858274062674,-3.979283326725882
2.34978801370223,29.40667530928647,-0.04674950601100539,3.0474976966063307,-3.7461890626845955
2.3403951775754983,28.83415851652135,-0.052122453217744856,2.978994858815969,-3.533805471026211
2.330067515547677,28.27440915644672,-0.05658977865406037,2.913103668285428,-3.3396961361391124
2.318965039106316,27.72694611286279,-0.06027839441289594,2.8496652115453958,-3.1617664298046866
2.307225431550079,27.191317218694063,-0.06329642196854629,2.788533674441211,-2.9982087984154377
2.2949673303623785,26.667096900390398,-0.0657362221125102,2.72957493928156,-2.84745782349714
2.2822930845457914,26.15388407081214,-0.06767689174630415,2.672665372068537,-2.7081531332892936
2.269291078515941,25.651300237500163,-0.06918632962054262,2.617690768057533,-2.5791086558219773
2.2560376967717057,25.158987798664047,-0.07032295189772353,2.564545430217392,-2.459287020489623
2.242598989753659,24.676608503589872,-0.07113712197644873,2.5131313600370837,-2.3477781597381235
2.2290320902781713,24.203842057713686,-0.07167234618658083,2.463357543922734,-2.2437813527881585
2.215386421085697,23.740384855506647,-0.0719662768920985,2.4151393214145527,-2.1465901023071448
2.2017047269054912,23.285948826709202,-0.07205155658374873,2.3683978238217005,-2.055579352271487
2.1880239586583605,22.840260383438178,-0.07195653022815647,2.323059473768053,-1.9701946481665102
2.1743760327170714,22.40305945735155,-0.07170584810120362,2.279055537670123,-1.8899429146182212
2.160788484304472,21.97409861745389,-0.0713209772945772,2.2363217244104763,-1.8143845846947293
2.14728503096236,21.55314226030866,-0.07082063683291796,2.194797824486692,-1.743126862637202
2.1338860594357123,21.13996586543081,-0.07022116871074248,2.154427384753856,-1.6758179401311737
2.12060904718076,20.73435530949471,-0.06953685502559327,2.1151574145735323,-1.6121420173074439
2.1074689279368726,20.336106233732828,-0.0687801896469097,2.0769381197620587,-1.5518150049465653
2.0944784093335658,19.94502345953976,-0.06796211144052826,2.03972266121755,-1.494580805009968
2.0816482492807733,19.56092044785013,-0.06709220490465666,2.0034669355154135,-1.4402080835451183
2.06898749686885,19.18361879834071,-0.06617887311558746,1.9681293751100557,-1.3884874639318625
2.056503702649197,18.81294778492797,-0.06522948709129002,1.933670766076698,-1.3392290799238906
2.044203102447945,18.448743924400528,-0.06425051502715104,1.9000540815805875,-1.292260437448789
2.032090778260393,18.09085057534992,-0.06324763431549779,1.867244329478444,-1.24742454202718
2.0201707992635667,17.73911756484824,-0.06222582880899038,1.8352084126445192,-1.2045782552489739
2.008446345552646,17.393400840573303,-0.06118947341123256,1.8039150007758675,-1.1635908492391012
1.996919816841109,17.053562146305232,-0.0601424077628366,1.7733344125722277,-1.1243427326474253
1.9855929280535785,16.719468718916566,-0.059088000526960095,1.7434385073085057,-1.0867243255631156
1.9744667934756717,16.390993005154392,-0.05802920555626757,1.714200584924903,-1.0506350640090225
1.9635420008993871,16.068012396670447,-0.05696861103620286,1.685595293853481,-1.0159825174198736
1.9528186770095028,15.75040898189555,-0.055908482541524605,1.6575985458822649,-0.9826816048340801
1.9422965450911622,15.438069313480842,-0.05485080080943105,1.6301874374304384,-0.9506538975022197
1.9319749759969322,15.1308841901411,-0.053797294919304864,1.6033401766721118,-0.9198269972932186
1.921853033189677,14.828748451836994,-0.05274947147285451,1.577036016002666,-0.8901339817093217
1.911929512572539,14.531560787324523,-0.05170864028649186,1.5512551893917732,-0.8615129075424339
1.9022029777267218,14.239223553182196,-0.05067593703790209,1.525978854211678,-0.8339063662499786
1.8926717910994615,13.951642603501043,-0.04965234324904762,1.5011890371688954,-0.8072610850252798
1.8833341416168126,13.668727129489735,-0.04863870393672992,1.4768685840027687,-0.7815275683083437
1.874195409785017,13.39039106837625,-0.04755847324006554,1.4529846908760329,-0.7544980456658884
1.8652598910681224,13.11655130786816,-0.04649961851672119,1.42953910394595,-0.728646171822355
1.8565235256140258,12.84712599775278,-0.04546212310534897,1.4065167920054362,-0.7039071359674748
1.847982262995243,12.582036081502608,-0.044445904460787056,1.383903379049015,-0.6802203685563334
1.8396320738357144,12.321205175208355,-0.04345082353424763,1.3616851082589092,-0.6575292194670619
1.8314689597631846,12.064559453131007,-0.04247669301869833,1.3398488083447528,-0.6357806638460459
1.8234889618898251,11.812027539442738,-0.04152328459561154,1.3183818620580698,-0.6149250329832117
1.815688167999517,11.563540405758996,-0.04059033530236946,1.297272176718148,-0.594915767840914
1.8080627185989244,11.319031274093781,-0.039677553124919364,1.2765081565998944,-0.5757091931085284
1.8006088119708472,11.078435524897337,-0.0387846219074738,1.256078677046892,-0.5572643098750668
1.7933227083519478,10.841690609860372,-0.03791120565988805,1.2359730601843073,-0.5395426052075082
1.7862007333425662,10.60873596919178,-0.03705695233360146,1.2161810521166567,-0.5225078770960722
1.7792392806436657,10.379512953097738,-0.03622149712851225,1.1966928015048346,-0.506126073382029
1.7724348142048152,10.153964747209368,-0.03540446538570372,1.177498839425351,-0.4903651434211025
1.7657838698573038,9.932036301723823,-0.034605475114414495,1.1585900604224821,-0.4751949013581034
1.7592830564978215,9.71367426403993,-0.03382413919592499,1.1399577046711111,-0.46058689999785796
1.7529290568805174,9.4988269146846,-0.033060067302013704,1.1215933411744698,-0.4465143143553103
1.7467186280685092,9.287444106339972,-0.032312867561229267,1.1034888519268722,-0.4329518340551994
1.7406486015899691,9.079477205794113,-0.03158214800234994,1.0856364169768928,-0.41987556383012364
1.7347158833386516,8.87487903864983,-0.030867517800994466,1.0680285003313468,-0.4072629314361284
1.728917453254084,8.673603836637085,-0.030168588352347356,1.0506578366449117,-0.39509260236808974
1.723250364812531,8.475607187384604,-0.029484974190317814,1.0335174186443445,-0.3833444008139158
1.7177117443561944,8.28084598651559,-0.0288162937711202,1.016600485240004,-0.37199923633764653
1.7122987902849034,8.08927839194111,-0.0281621701372064,0.9999005102808499,-0.36103903582751684
1.7070087721316805,7.900863780232765,-0.02752223147566381,0.9834111919122592,-0.35044668028650877
1.701844599679337,7.715770353127464,-0.02683747854900517,0.964940672354058,-0.38375947075816225
1.6968061690073482,7.534176275622265,-0.026198633787720374,0.9465759329638103,-0.4184313702267264
1.691884889332988,7.356061708079789,-0.025604310152909072,0.9283142516938239,-0.4543576421652407
1.6870724355273592,7.181407317937396,-0.02505309832739583,0.9101530129629385,-0.4914353689937179
1.6823607520097776,7.010194259778871,-0.024543570278724787,0.8920897044952057,-0.5295632215436564
1.6777420560008949,6.842404155971533,-0.02407428244635644,0.8741219145294019,-0.568641231143363
1.673208840203673,6.678019077798631,-0.02364377857703252,0.8562473293958859,-0.6085705633341248
1.6687538749770519,6.517021527017313,-0.023250592229506362,0.8384637314600897,-0.6492532922141188
1.6643702100633688,6.359394417772297,-0.022893248967156266,0.8207689974348249,-0.6905921743857482
1.6600511759273227,6.205121058794656,-0.022570268254384133,0.8031610970666511,-0.7324904214524678
1.6557903847614943,6.054185135813867,-0.02228016507012624,0.7856380922048256,-0.7748514699725735
1.6515817312111543,5.906570694109245,-0.022021451249241833,0.7681981362648874,-0.8175787477292981
1.647419392869279,5.762262121124316,-0.021792636559971656,0.750839474102778,-0.8605754351181673
1.6432978305913926,5.621244129064188,-0.021592229523044817,0.7335604423196331,-0.9037442203831011
1.639211788679047,5.483501737391727,-0.021418737975328277,0.7163594700220682,-0.946987047351274
1.6351562949804688,5.349020255133169,-0.021270669378127084,0.6992350800680023,-0.9902048542222224
1.6311266609571513,5.217785262897486,-0.02114653086731999,0.6821858908339298,-1.0332973018579552
1.6271184817660114,5.089782594506378,-0.02104482903941657,0.6652106185461585,-1.0761624898966198
1.6231276364081577,4.964998318123023,-0.02096406946430605,0.6483080802260157,-1.1186966588712386
1.6191502879974191,4.843418716757334,-0.020902755911888428,0.6314771973075378,-1.160793876355771
1.615182884204581,4.725030268013512,-0.020859389275883173,0.6147169999958644,-1.202345704981818
1.611222157936857,4.6098196229315676,-0.02083246617384155,0.5980266324456586,-1.243240849969329
1.6072651283165627,4.4977735837583275,-0.0208204771976802,0.5814053588515984,-1.2833647835925033
1.603309102028319,4.388879080464456,-0.02082190478383201,0.5648525705575803,-1.3225993437568433
1.5993516751105572,4.283123145802222,-0.020835220666291523,0.5483677943080518,-1.3608223035948062
1.5953907352746741,4.180492888673463,-0.0208588828693207,0.5319507017841605,-1.397906908696409
1.591424464844108,4.0809754655479615,-0.020891332189266774,0.5156011205895502,-1.4337213782797213
1.5874513444159912,3.984558049638732,-0.020930988106700663,0.4993190468760398,-1.468128366278926
1.583470157360082,3.8912277975017986,-0.02097624406076406,0.4831046598285053,-1.5009843779924408
1.5794799952836405,3.800971812683251,-0.02102546200704156,0.4669583382614806,-1.5321391376033389
1.5754802646069885,3.7137771059847324,-0.021076966168242697,0.4508806796176664,-1.5614349015791775
1.5714706944130485,3.62963055185946,-0.021129035873232317,0.4348725217010038,-1.588705712709103
1.5674513457554955,3.5485188403830534,-0.021179897364168712,0.41893496752431947,-1.6137765893889113
1.563422622634737,3.4704284241664034,-0.021227714433287786,0.40306941370356236,-1.6364626447880593
1.5593852848792564,3.395345459490347,-0.021270577729666926,0.38727758288650566,-1.656568130827132
1.5553404632025578,3.3232557408437664,-0.021306492551371674,0.37156156076171815,-1.673885402607438
1.5512896767438527,3.254144627937624,-0.021333364908682033,0.3559238382503171,-1.6881938002815062
1.5472348534447602,3.1879969641482298,-0.021348985608081638,0.34036735953277203,-1.6992584476481487
1.5431783536660952,3.1247969852159656,-0.021351012062075223,0.32489557659632234,-1.7068289704558304
1.5391229975102485,3.0645282168952654,-0.021336947473152595,0.3095125109899955,-1.7106381431703184
1.535072096388546,3.0071733601263837,-0.021304116965822326,0.29422282341928224,-1.710400481780203
1.53102948946351,2.9527141621935833,-0.02124964013981921,0.27903189166281017,-1.7058108134987173
1.5269995857094874,2.9011312722716482,-0.021170399376207783,0.26394589698912746,-1.696542874051058
1.522987412481549,2.8524040797810954,-0.021063003023141798,0.24897191870089494,-1.6822480126528307
1.518998671677589,2.8065105341324283,-0.020923742281703468,0.23411803549558308,-1.6625541282272858
1.5150398048473317,2.7634269448350324,-0.02074854014205557,0.21939343079281412,-1.6370650243406395
1.5111180689855241,2.7231277617213827,-0.020532889982235056,0.20480849671929297,-1.605360464102283
1.5072416253122274,2.685585336411741,-0.020271780262992114,0.19037492759272073,-1.5669973432223232
1.503419644202221,2.650769668446287,-0.019959599842338527,0.17610578783308978,-1.5215125981587851
1.4996624307628945,2.618648143220504,-0.019590015308465762,0.16201553033303798,-1.4684287517396204
1.4959815776832652,2.589185274651875,-0.019155806582369702,0.14811992828412818,-1.407263401584271
1.492390155396845,2.5623424742810634,-0.018648638537841208,0.1344358650928487,-1.3375445086305533
1.488902955162387,2.538077881332221,-0.018058732351193808,0.12098090278969402,-1.2588340593125347
1.4855368097501405,2.516346306054114,-0.01737437725139979,0.1077725211903908,-1.1707635089543205
1.4823110312524244,2.497099361346166,-0.016581185882453074,0.09482689678800216,-1.0730851518477262
1.4792480296434056,2.4802858819676317,-0.015660936317744997,0.08215709667023968,-0.9657436044688198
1.4763742146830297,2.465852745451631,-0.014589747475685507,0.06977065612977289,-0.8489695580538157
1.4737213470678285,2.4537461867710135,-0.013335174789590162,0.05766680366621792,-0.7233912345653108
1.4713286123943643,2.4439135832525913,-0.01185150598371792,0.04583428600137613,-0.5901437854005667
1.4692459028899751,2.436305376592877,-0.01007175195722013,0.034252099890355825,-0.4509308502066729
1.4675393374786476,2.430876117857519,-0.007892094477803969,0.02289799206078838,-0.3079622612781139
1.4663020385360142,2.4275820186048342,-0.0051321049183385885,0.01177673691482236,-0.16368087732282596
1.4656847403610098,2.426365403713092,-0.0013657706080210997,0.0010297356298489269,-0.020255118337477312
