x,y,v_x,v_y,omega
2.375,32.48,0.0,2.769230769230769,-2.612244897959184
2.3743990492398708,31.905011252819886,-0.005723340572659125,2.7068525372464647,-2.4535141437651795
2.3726816412940432,31.342871893200215,-0.010632925578079603,2.6468556496075473,-2.3091377694942263
2.3700070808801335,30.793097015905186,-0.014839078363916545,2.5890955627260617,-2.177427162878727
2.366513204427719,30.25523082879147,-0.01843593546860313,2.533439552642697,-2.0569286561361877
2.3623195057211452,29.72884430155322,-0.021504052213053123,2.479765468673941,-1.9463863906967982
2.3575297625422342,29.213533058861675,-0.02411254949086157,2.427960652197926,-1.8447117103240251
2.352234251428658,28.70891548604382,-0.026320889686052586,2.3779209936863794,-1.750957822788655
2.3465116211161274,28.214631020543102,-0.028180351385666352,2.3295501063204997,-1.6642987347844551
2.340430482089699,27.730338606528104,-0.029735258389847558,2.2827585985842194,-1.584011669248076
2.3340507591750628,27.255715293379307,-0.031024007463829884,2.2374634314043367,-1.5094623333373383
2.3274248456792743,26.790454961550495,-0.03207993059129578,2.1935873479176897,-1.4400925298597196
2.320598590801061,26.33426716159459,-0.032932020629784765,2.1510583659480447,-1.3754097029886303
2.3136121465333943,25.886876054057012,-0.033605543824182516,2.109809324886039,-1.3149780867083993
2.3065006958112586,25.448019439546986,-0.034122558291396814,2.069777479971347,-1.2584111861623146
2.299295080009167,25.017447869655495,-0.0345023541094724,2.0309041380428554,-1.205365371421474
2.292022340904034,24.594923830542502,-0.034761827844174614,1.9931343296999533,-1.1555344028107921
2.284706189761615,24.180220992001843,-0.03491580208362794,1.9564165135444374,-1.1086447388757141
2.2773674141775877,23.77312351565802,-0.034977298716630786,1.9207023087776356,-1.0644515039400113
2.270024231626702,23.373425416678266,-0.03495777319656829,1.885946252934325,-1.0227350132306947
2.262692597280729,22.980929974014146,-0.034867315812698974,1.8521055819620549,-0.9832977707006627
2.2553864724963857,22.59544918473545,-0.03471482499057069,1.8191400302159872,-0.9459618687261483
2.248118059406161,22.216803258496856,-0.034508156821089646,1.787011648246821,-0.9105667303971816
2.240898006234285,21.844820148596128,-0.03425425433963532,1.755684636522001,-0.8769671446334024
2.2337355872794777,21.479335116449526,-0.0339592595156741,1.7251251934456728,-0.8450315522257486
2.226638860933292,21.120190326632866,-0.0336286104479997,1.6953013762367963,-0.8146405474315805
2.219614808619518,20.7672344699218,-0.0332671258736588,1.6661829733924067,-0.7856855651814169
2.2126694571313257,20.420322412016723,-0.03287907877578934,1.637741387608313,-0.7580677284868081
2.205807986496274,20.079314865861484,-0.03246826060565389,1.6099495281558773,-0.7316968344304138
2.199034825204855,19.744078085663624,-0.032038037407865226,1.5827817118237502,-0.7064904603004017
2.192353734387525,19.414483580900995,-0.03159139894765845,1.5562135716298515,-0.6823731741071327
2.185767882311234,19.09040784875755,-0.031131001778916416,1.530221972593458,-0.6592758359766684
2.179279910383519,18.771732123572416,-0.030659207056466353,1.5047849339316088,-0.6371349788233275
2.1728919916955016,18.458342142013095,-0.030178113781793945,1.4798815571095747,-0.6158922583201082
2.1666144287161684,18.150128781713967,-0.02960820030709597,1.4554837790725588,-0.5932038283349531
2.1604562584450604,17.846986941494087,-0.02904104037012293,1.431581365878715,-0.5715842206002651
2.1544167964013456,17.548814491999675,-0.028477645760494063,1.408156248353776,-0.5509701893385428
2.1484951606587526,17.25551300951488,-0.02791888512134246,1.3851912038823675,-0.5313029399669684
2.142690300152071,16.966987603402522,-0.027365500656578588,1.3626698067115262,-0.5125277663652288
2.1370010196793943,16.68314675361696,-0.02681812289272445,1.3405763817223832,-0.49459372162366944
2.131426001983862,16.40390215759024,-0.026277283731392685,1.3188959613892308,-0.4774533188273234
2.125963827252251,16.129168585848916,-0.025743427998235712,1.2976142456710216,-0.46106225882137547
2.1206129903272912,15.858863745770087,-0.02521692366804688,1.2767175646035247,-0.445379182245525
2.115371915895224,15.592908152931692,-0.02469807092306801,1.2561928433811798,-0.4303654434249105
2.110238971879198,15.331225009554345,-0.02418711018194563,1.2360275697364047,-0.41598490396925475
2.105212481242019,15.07374008957072,-0.023684229219756103,1.216209763440979,-0.4022037441643965
2.1002907323780486,14.820381629893639,-0.023189569484725978,1.1967279477693245,-0.38899029044545735
2.0954719882531903,14.571080227486249,-0.022703231704399883,1.177571122777238,-0.3763148574220438
2.0907544944336354,14.325768741867126,-0.022225280862790627,1.158728740262038,-0.36414960308612543
2.086136486127915,14.084382202710074,-0.02175575062025974,1.1401906802813246,-0.35246839597516805
2.0816161943526583,13.846857722223174,-0.021294647239328567,1.1219472291177324,-0.3412466931889998
2.0771918513199537,13.61313441201425,-0.02084195307214476,1.1039890585862924,-0.33046142827070385
2.0728616951332057,13.383153304170804,-0.020397629658784448,1.0863072065894044,-0.32009090806126966
2.068623973868651,13.156857276301551,-0.019961620479834328,1.0688930588320544,-0.3101147177262779
2.0644769491110937,12.934190980304415,-0.019533853401664858,1.051738331616848,-0.3005136332318312
2.0604188990048384,12.715100774641947,-0.01911424284838515,1.0348350556447585,-0.29126954061740346
2.0564481208740464,12.499534659920155,-0.01870269173058317,1.0181755607532577,-0.28236536147624636
2.0525629334607944,12.287442217580544,-0.018299093157533836,1.0017524615287603,-0.2737849841103304
2.048761678823816,12.078774551527836,-0.017903331956543773,0.9855586437351289,-0.2655131998772557
2.0450458119059354,11.873625932406831,-0.017485876785179648,0.968237728845873,-0.2843828047612878
2.0414146260582697,11.672102843965455,-0.017096845573537724,0.951029780119607,-0.30509262713041524
2.037862164636917,11.4741818912111,-0.016736120344106625,0.9339316746837755,-0.32753468337870967
2.0343825055478937,11.279840322307532,-0.01640349002754445,0.9169404101121101,-0.35160381489399073
2.0309697799369637,11.089056003796152,-0.016098658647980345,0.900053099520083,-0.3771974586491091
2.0276181892294756,10.901807396806351,-0.015821252851906473,0.8832669670494359,-0.40421542448105563
2.0243220206531616,10.718073534174898,-0.015570828827276478,0.8665793437262986,-0.43255967818207697
2.02107566136747,10.537833998397268,-0.015346878655501345,0.8499876636797021,-0.4621341295456132
2.0178736113144295,10.361068900336399,-0.015148836135357896,0.8334894607095447,-0.49284442452264365
2.014710494898208,10.187758858616387,-0.014976082114370973,0.8170823651953212,-0.5245977406508944
2.0115810715934024,10.017884979630264,-0.01482794935996993,0.8007641013391865,-0.5573025849202607
2.0084802455756443,9.85142883809203,-0.014703726999627674,0.7845324847392235,-0.5908685932325685
2.0054030744622784,9.688372458063839,-0.01460266455624084,0.7683854202911593,-0.6252063306022398
2.002344777245644,9.528698294389248,-0.014523975602178421,0.7523209004192418,-0.6602270912262574
1.9993007414968833,9.37238921446307,-0.014466841052688985,0.7363370036395896,-0.6958426975266705
1.9962665299140985,9.219428480267393,-0.014430412116689202,0.7204318934620964,-0.7319652972363508
1.993237886285211,9.069799730601677,-0.01441381292033452,0.7046038176399521,-0.7685071575582408
1.990210740932878,8.92348696343268,-0.014416142816170879,0.6888511077790782,-0.8053804553793669
1.9871812157064337,8.78047451828693,-0.014436478388058603,0.6731721793233167,-0.8424970624627106
1.9841456285839487,8.640747058604791,-0.014473875159418302,0.6575655319351267,-0.879768324471858
1.9811004979461972,8.504289553970533,-0.014527369009644632,0.642029750295892,-0.9171048326042941
1.9780425465836071,8.371087262127208,-0.014595977300735809,0.6265635053548119,-0.9544161865183005
1.9749687054971377,8.241125710678567,-0.014678699713260723,0.611165556060816,-0.9916107471345612
1.9718761175545372,8.114390678372278,-0.014774518787694315,0.5958347516181379,-1.0285953777756314
1.9687621410646248,7.990868175849489,-0.014882400163854597,0.5805700343131937,-1.0652751719731461
1.9656243533341191,7.87054442573492,-0.01500129250762605,0.5653704429684102,-1.1015531661227849
1.9624605542742366,7.75340584192902,-0.015130127110303534,0.5502351170877697,-1.1373300349993152
1.959268770127778,7.639439007949029,-0.015267817141681834,0.535163301769282,-1.172503767957387
1.956047257391896,7.528630654148738,-0.015413256533384798,0.5201543534715697,-1.2069693234372163
1.9527945070171913,7.420967633626997,-0.015565318463802739,0.5052077467354975,-1.2406182591673627
1.94950924897041,7.3164368966121245,-0.015722853410305725,0.49032308197755925,-1.2733383352096521
1.9461904572558848,7.215025463083045,-0.015884686728030076,0.4755000944898738,-1.305013086725101
1.9428373555001657,7.116720393357351,-0.016049615707388776,0.46073866480245107,-1.3355213630573193
1.9394494232151769,7.021508756341433,-0.016216406054409403,0.44603883058723837,-1.3647368294365303
1.9360264028679284,6.929377595097147,-0.016383787728910488,0.4314008003107134,-1.3925274273118655
1.932568307899545,6.840313889332876,-0.016550450065217173,0.41682496887280784,-1.4187547890360142
1.9290754318534171,6.754304514373203,-0.016715036088383046,0.4023119355050358,-1.4432736023762962
1.9255483587919622,6.671336196099968,-0.01687613592547304,0.38786252424005385,-1.4659309201424855
1.921987975204202,6.591395461287373,-0.01703227919605313,0.37347780730847197,-1.486565410152927
1.918395483632554,6.514468582674038,-0.01718192624821215,0.35915913186615434,-1.5050065408784725
1.914772418277498,6.440541518025018,-0.017323458085656104,0.344908150505453,-1.5210736985137396
1.9111206628737794,6.3695998423362,-0.01745516480690186,0.33072685605471824,-1.5345752320808164
1.9074424711724869,6.3016286722225345,-0.01757523234826396,0.31661762121829784,-1.545307424695576
1.903740490410829,6.236612581411599,-0.017681727286572496,0.3025832436477478,-1.5530533916470186
1.9000177882073779,6.174535506137939,-0.017772579412961315,0.28862699705378153,-1.5575819099296149
1.8962778833871687,6.1153806391074355,-0.017845561731887647,0.2747526889510001,-1.558646190018121
1.89252478132161,6.05913031058509,-0.01789826746391114,0.26096472554752476,-1.5559826099905831
1.8887630144675338,6.005765855071207,-0.017928083527290226,0.2472681841085082,-1.5493094460576102
1.884997688915335,5.955267461998641,-0.01793215982698347,0.23366889277306532,-1.5383256542900596
1.881234537919633,5.90761400895234,-0.017907373465419405,0.2201735171917183,-1.5227097889851509
1.877479983605762,5.862782876152682,-0.017850286666682886,0.20678965232884133,-1.5021191882361982
1.8737412083515168,5.820749741465534,-0.017757096707080436,0.19352591612020553,-1.4761896234922827
1.870026237784678,5.781488356171572,-0.017623575358053884,0.18039203906037968,-1.444535706725091
1.8663440379932144,5.744970303397579,-0.017444994084454914,0.1673989397395368,-1.4067524897159671
1.8627046305495714,5.711164743855985,-0.01721602918833576,0.15455877018040612,-1.3624188934220995
1.8591192305240902,5.680038157893819,-0.01693063772100912,0.14188490564976342,-1.3111038954477856
1.8556004151730938,5.651554099560784,-0.01658188943133616,0.12939184037915055,-1.2523768084332716
1.8521623350449166,5.625672988417968,-0.01616173083701994,0.11709493240955846,-1.1858235262420025
1.848820985859132,5.6023519791560545,-0.015660642360925913,0.10500991770390486,-1.1110712967749754
1.8455945703231402,5.581544968430094,-0.01506712464852042,0.09315208921000072,-1.0278253167644693
1.8425039966969774,5.5632028216867155,-0.014366909886363926,0.08153502263171034,-0.9359209454474312
1.839573589601517,5.547273924723729,-0.013541729118019898,0.07016875796814362,-0.8353948609499331
1.8368321350977506,5.533705169583559,-0.012567361394043281,0.059057481462044016,-0.7265754580324408
1.8343144588464186,5.522443436206455,-0.01141050766626018,0.04819712212943854,-0.6101844554532243
1.8320638728254701,5.5134374602500245,-0.010023644914202236,0.03757407745559771,-0.48742474339664976
1.8301361202852413,5.506639563174669,-0.008335903087978193,0.02716779945254483,-0.3600038145361866
1.8286063059455966,5.502005820441877,-0.006233757289588435,0.016963083716903502,-0.23001854258630933
1.8275838938066453,5.499490770355919,-0.003503501176615531,0.0069897742445843205,-0.09963129700473897
