x,y,v_x,v_y,omega
2.375,32.48,0.0,2.5128205128205128,-2.612244897959184
2.3746158242322264,32.032020294674716,-0.004268619641927986,2.4647317685715215,-2.4845646850842815
2.3735083884592685,31.592567669131533,-0.008036222279829811,2.4180751819082675,-2.3659149490202185
2.371762938966315,31.16139067391547,-0.011357660975206858,2.3727803204924194,-2.2554491318367855
2.3694554335080262,30.738250116933692,-0.014281288561337,2.328781423749565,-2.1524155249236188
2.3666536349824647,30.32291825879702,-0.016849806167120784,2.2860169999912148,-2.0561451197915512
2.3634180633259465,29.915178076722334,-0.01910099001641609,2.244429467505304,-1.9660411992780236
2.3598028258198895,29.514822589615573,-0.021068315606437352,2.2039648336809528,-1.881570394041625
2.355856342856207,29.12165423793687,-0.022781495101147114,2.1645724071935026,-1.8022549767989848
2.351621983596707,28.73548431277439,-0.024266941115519806,2.126204539056311,-1.7276662053844023
2.347138623786074,28.356132429250746,-0.025548167891511903,2.088816388984147,-1.6574185572172637
2.342441136158573,27.98342603997872,-0.026646139080726428,2.052365714038364,-1.5911647235642725
2.337560822352397,27.617199984788968,-0.027579569876779585,2.016812676958899,-1.5285912531978751
2.3325257939614463,27.257296073387153,-0.028365190022676668,1.9821196719501586,-1.4694147525594041
2.3273613092707124,26.90356269797246,-0.02901797320769687,1.948251165990851,-1.4133785640341816
2.3220900713046353,26.555854473173937,-0.029551337526495455,1.9151735539927464,-1.3602498559933727
2.3167324920399563,26.21403190094319,-0.029977320969938593,1.882855026348865,-1.3098170683002002
2.311306926973137,25.87796105828827,-0.03030673532805289,1.8512654475946817,-1.2618876653754307
2.305829883668465,25.54751330594916,-0.03054930139052233,1.8203762450621428,-1.2162861559590121
2.300316207431127,25.22256501630495,-0.030713767913235775,1.7901603065401657,-1.1728523446267172
2.29477924683688,24.902997318969994,-0.030808016467285856,1.7605918860704637,-1.1314397851142306
2.2892310014958377,24.58869586268402,-0.030839153988738204,1.731646517107019,-1.0919144097227642
2.283682254123342,24.27955059223255,-0.0308135945945486,1.703300932353768,-1.0541533126582894
2.2781426887284932,23.975455539250405,-0.030737132014883917,1.6755329896700717,-1.0180436681962837
2.2726209965043664,23.676308625865186,-0.03061500380874705,1.648321603499023,-0.9834817671524863
2.2671249708079912,23.38201148023049,-0.030451948373197642,1.621646681330953,-0.9503721573494939
2.261661592448385,23.092469263081867,-0.030252255622425114,1.5954890647648305,-0.918626875658808
2.256237106353548,22.807590504523326,-0.03001981209798939,1.5698304747745644,-0.8881647608177891
2.250857090559178,22.527286950319244,-0.029758141172789646,1.544653460826343,-0.8589108376123217
2.245526518350258,22.25147341702737,-0.02947043892631629,1.5199413535277788,-0.830795764213441
2.2402498142893004,21.98006765536304,-0.02915960619544056,1.4956782205203503,-0.8037553354887561
2.235032482948103,21.71299110933552,-0.02881074204008392,1.4718389575631947,-0.7766956107973233
2.22987901198974,21.45016786263441,-0.02845004638617232,1.4484193391158084,-0.7507818708215722
2.22479137138752,21.191523637630183,-0.02807929363849236,1.425405383153389,-0.725952718786142
2.219771227564474,20.93698662039077,-0.027700082173130487,1.402783697284556,-0.7021506662240751
2.2148199735549663,20.686487357376507,-0.02731385126584271,1.3805414473183673,-0.6793218444488369
2.20993875627198,20.4399586576136,-0.026921896322895506,1.3586663278250473,-0.6574157401739854
2.205128501169355,20.19733550000047,-0.02652538259515872,1.337146534543031,-0.6363849530250385
2.200389934557579,19.958554945426837,-0.026125357535691143,1.3159707384973665,-0.6161849729202683
2.195723603804496,19.72355605340855,-0.025722761943008064,1.2951280617057843,-0.596773975503249
2.191129895628155,19.492279802962727,-0.025318440016336916,1.2746080543589358,-0.5781126339931708
2.1866090526675186,19.26466901746707,-0.02491314843517449,1.2544006733705642,-0.5601639459819687
2.1821611884976724,19.04066829326556,-0.024507564563118485,1.2344962622017694,-0.5428930738525922
2.1777863012391374,18.820223931799,-0.024102293865049168,1.214885531871172,-0.5262671976223661
2.1734842858957433,18.603283875054316,-0.023697876617104756,1.1955595430697374,-0.5102553791311775
2.1692549455419705,18.389797644140558,-0.023294793980370293,1.1765096893053597,-0.49482843659777925
2.1650980014685888,18.17971628081235,-0.022893473501649008,1.157727681008086,-0.47995882866021783
2.1610131023846213,17.97299229177373,-0.022494294097989215,1.1392055305321465,-0.4656205470995053
2.1569998327639897,17.769579595606217,-0.02209759057569613,1.120935537995776,-0.45178901752023704
2.153057720416542,17.569433472175213,-0.021703657729276623,1.1029102779042386,-0.43844100732885644
2.149186243355411,17.372510514378337,-0.021312754061067654,1.0851225865055036,-0.4255545404105209
2.1453848360256846,17.178768582107985,-0.020925105158117352,1.0675655498317353,-0.4131088179597654
2.1416528949531295,16.988166758308644,-0.020540906759161336,1.0502324923831625,-0.4010841449690402
2.1379897838660957,16.8006653070169,-0.020160327541213427,1.0331169664140138,-0.38946186192329046
2.1343948383386775,16.61622563327916,-0.019783511652323015,1.0162127417830855,-0.3782242812885582
2.1308673699986724,16.43481024484861,-0.019410581014400588,0.9995137963341427,-0.3673546284185702
2.127408997784146,16.256600801955397,-0.01901577692478336,0.9805911247015638,-0.404694770644095
2.1240183225530815,16.081788101593844,-0.018658392309266497,0.9617722126490202,-0.44324443859748996
2.1206887080569783,15.910353699853264,-0.018337324314099,0.9430544733574394,-0.482902248360367
2.1174137193816693,15.742279609424283,-0.018051438744889785,0.9244354202979052,-0.5235682159658188
2.114187128256883,15.577548281773932,-0.01779957375273453,0.9059126647059869,-0.565143539757573
2.1110029177357266,15.416142589744066,-0.017580543149005333,0.8874839134036335,-0.6075303834698168
2.1078552863090234,15.258045810510467,-0.017393139369921436,0.8691469669696769,-0.6506316590838177
2.1047386515158886,15.10324160883955,-0.01723613610935167,0.8508997182627404,-0.6943508084902742
2.1016476531088353,14.95171402057861,-0.01710829063568587,0.8327401513032792,-0.7385915829511175
2.098577155829081,14.803447436314098,-0.017008345806028988,0.8146663405246285,-0.7832578193106905
2.095522251845583,14.658426585130307,-0.016935031788392323,0.7966764504063647,-0.8282532118531964
2.0924782629096317,14.516636518398101,-0.016887067499954743,0.778768735507033,-0.8734810786402787
2.0894407422756225,14.3780625935199,-0.016863161766814707,0.7609415409174407,-0.9188441210887024
2.0864054764378963,14.2426904575529,-0.016862014207921303,0.7431933031603202,-0.9642441754623713
2.083368486733311,14.110506030627413,-0.016882315843026525,0.7255225515673202,-1.0095819548542397
2.080326030859503,13.981495489071047,-0.01692274942150652,0.7079279101700802,-1.0547567801208566
2.077274604359653,13.855645248142359,-0.016981989465717263,0.6904081001486967,-1.0996662981039853
2.0742109421260158,13.732941944269026,-0.01705870201913709,0.6729619428883212,-1.1442061853285663
2.0711320199765666,13.613372416675798,-0.017151544085857128,0.6555883637031004,-1.1882698352027403
2.0680350563618832,13.49692368827585,-0.017259162743956953,0.6382863962963357,-1.231748026562215
2.0649175142629472,13.383582945685866,-0.01738019391088738,0.6210551880368124,-1.274528571196481
2.0617771033448977,13.273337518209598,-0.017513260734107142,0.603894006143947,-1.316495937766928
2.058611782437095,13.166174855616632,-0.017656971574809124,0.5868022448889896,-1.3575308492757918
2.055419762416174,13.062082504522355,-0.01780991754653808,0.5697794339362925,-1.3975098509696242
2.052199509576248,12.961048083150974,-0.017970669563746246,0.5528252479679483,-1.4363048452620613
2.048949749579214,12.863059254235704,-0.01813777484774294,0.5359395177572834,-1.4737825899399508
2.045669472088313,12.768103695778152,-0.01830975282893826,0.5191222428821735,-1.5098041555783934
2.042357936199994,12.676169069351904,-0.018485090374607632,0.5023736062983564,-1.544224337741189
2.03901467680284,12.587242985592685,-0.018662236260435096,0.4856939910262969,-1.5768910191955312
2.0356395120081556,12.501312966468436,-0.018839594791616628,0.46908399924312083,-1.607644477042487
2.032232551815054,12.418366403866294,-0.019015518465063934,0.4525444741140265,-1.6363166293868763
2.0287942081938852,12.338390513968932,-0.01918829954792593,0.4360765247455662,-1.6627302159853754
2.0253252067959764,12.261372286819178,-0.019356160428836148,0.4196815546961355,-1.6866979072850135
2.021826600525499,12.187298430388264,-0.01951724257647057,0.40336129453623826,-1.7080213364916148
2.0182997852413163,12.116155308369006,-0.01966959391444697,0.38711783901105756,-1.7264900499296911
2.0147465178937978,12.04792887081043,-0.01981115439131336,0.3709536894175644,-1.741880372177223
2.0111689374446673,11.982604576595218,-0.019939739487914554,0.3548718018625778,-1.7539541845803115
2.007569588968387,11.920167306637865,-0.020053021359643396,0.3388756421080329,-1.7624576192106869
2.0039514513930965,11.860601266553267,-0.02014850725469831,0.322969247720842,-1.7671196757605874
2.0003179694103,11.803889877420012,-0.020223514776372045,0.3071572982042156,-1.767650777204452
1.996673090169073,11.750015653152321,-0.02027514345948512,0.2914451936590251,-1.7637412926537408
1.9930213054781407,11.698960062920378,-0.020300241995318102,0.27583914225145423,-1.755060074676816
1.9893677003765493,11.650703377054363,-0.020295370244584846,0.26034625625982877,-1.7412530863567552
1.9857180091144992,11.605224494986455,-0.02025675488930433,0.24497465560581808,-1.721942234765256
1.9820786798323784,11.56250075411128,-0.020180237134263205,0.2297335763405657,-1.696724588535339
1.9784569495739837,11.522507719108106,-0.020061210181232046,0.21463347925027917,-1.665172246798216
1.974860931778321,11.485218952464951,-0.019894543103909403,0.1996861501181156,-1.6268332577799391
1.9712997191607697,11.450605768972114,-0.019674485979994952,0.18490477758009077,-1.5812341759103705
1.9677835060811435,11.41863698024611,-0.019394548238072122,0.17030398604216682,-1.5278851208746649
1.964323736374015,11.389278640525959,-0.019047337396689852,0.15589978862615791,-1.4662885916123212
1.960933285637247,11.362493812891273,-0.018624337456288546,0.14170940731478965,-1.3959538265304359
1.9576266918882936,11.338242386712992,-0.018115593087636262,0.1277508835550217,-1.3164192104714887
1.9544204565406447,11.316480993554219,-0.017509244108463422,0.1140423737646667,-1.2272860814436006
1.9513334508351532,11.297163090139435,-0.0167908192858858,0.10060099751069276,-1.1282681150425884
1.9483874844033444,11.280239301121934,-0.015942141067547495,0.08744110268376071,-1.0192607501171778
1.9456081276788577,11.265658132445221,-0.014939600315635666,0.07457188261307171,-0.900433647812488
1.943025937001348,11.253367155332874,-0.013751407212250053,0.0619945297463301,-0.772343522393037
1.940678327664908,11.243314672565706,-0.012333140970418667,0.04969972322220057,-0.6360510642295545
1.9386125232004936,11.235451623143575,-0.010620241967519957,0.037667492579268796,-0.49320085155793
1.9368904535226512,11.22973290354711,-0.008513865564060946,0.025873836270348997,-0.3459911477122105
1.9355979804918775,11.226115974147433,-0.005846945888981334,0.014314268170498086,-0.19694199892263473
1.9348686339320769,11.224549802601043,-0.0022569047754693746,0.0030876379004854404,-0.04840753758340596
