x,y,v_x,v_y,omega
2.375,32.48,0.0,3.7948717948717947,-6.8979591836734695
2.373210377305928,31.76858431833067,-0.018838133621811005,3.693714327963232,-6.387615391971218
2.368143344338519,31.07592313004094,-0.034499055508811285,3.5974560750865465,-5.934368106159453
2.3603533965187413,30.401121924385624,-0.047500395225689135,3.5057145107588807,-5.529998372241194
2.350305385616256,29.743354831479756,-0.0582681405899489,3.41814962509236,-5.167683630668691
2.3383902293632035,29.101857155695306,-0.06715455681059972,3.334457488428166,-4.841727303982207
2.3249375847627496,28.475919012270936,-0.07445222845733686,3.2543650739336454,-4.547347037958338
2.3102261335900987,27.86487985646328,-0.08040515230740813,3.1776260398311518,-4.280507492783242
2.294491975572334,27.268123743534865,-0.0852175636690628,3.1040172541521596,-4.037787312805652
2.2779355115646296,26.685075193727737,-0.0890610048330901,3.0333359017123502,-3.81627255568124
2.260727114295311,26.115195563001606,-0.09208001905447025,2.965397053299524,-3.613470773464296
2.243011820094829,25.557979840363785,-0.09439676200323702,2.900031606045967,-3.427241333800268
2.22491322598004,25.01295380790753,-0.09611475499454307,2.8370845250725347,-3.2557385999027297
2.2065367386498838,24.479671511478863,-0.09732195374394186,2.7764133320713165,-3.0973653568774533
2.1879722925640097,23.957712999109944,-0.09809326821262976,2.7178867981278496,-2.9507344510414275
2.1692966312819904,23.446682291634907,-0.09849264001915047,2.6613838068724927,-2.8146370487897077
2.150575228132438,22.946205555709493,-0.098574761555085,2.6067923607634693,-2.6880162583842684
2.131863907936868,22.455929454130796,-0.0983865036614418,2.554008708485994,-2.5699451178136608
2.113210220088797,21.97551965215284,-0.09796810526562233,2.502936575492496,-2.459608153577571
2.0946546041441563,21.5046594616065,-0.09735416783585957,2.453486482889991,-2.3562858728508207
2.0762313817254205,21.04304860720321,-0.09657448920346537,2.405575142407819,-2.259341675343318
2.0579696026022636,20.590402101540082,-0.0956547647245032,2.3591249172040687,-2.1682107690541006
2.0398937679943354,20.14644921711473,-0.09461717851684553,2.3140633399049446,-2.0823907518688523
2.022024450219571,19.710932545166465,-0.09348090332277881,2.27032268060308,-2.0014335830131356
2.0043788246061895,19.28360713243907,-0.09226252418649847,2.227839558632651,-1.9249387181430722
1.986971126957959,18.864239688049125,-0.0909763984264553,2.1865545928404284,-1.8525472219420567
1.9698130476994047,18.45260785357634,-0.08963496218990684,2.146412085820486,-1.783936704515377
1.95291407204223,18.048499530293842,-0.08824899209614198,2.107359738205785,-1.7188169542043772
1.93628177403588,17.651712258148937,-0.08682782902333233,2.0693483896353277,-1.6569261609051122
1.9199220711375018,17.262052641704948,-0.08537956990696298,2.032331783459319,-1.5980276415369812
1.9038394449141594,16.879335818777285,-0.0839112324440101,1.9962663526213054,-1.5419069937249164
1.8880371326363852,16.503384967952933,-0.0824288967957179,1.9611110244771686,-1.4883696156368247
1.8725172938073449,16.134030851581976,-0.08093782772049746,1.9268270425855256,-1.4372385397355512
1.8572811550718908,15.77111139118104,-0.0794425800211223,1.893377803740107,-1.3883525363446951
1.8423291364449499,15.4144712724975,-0.07794708973615055,1.860728708718218,-1.341564449697323
1.8276609613729002,15.063961577756693,-0.07645475312752878,1.8288470253955438,-1.296739734783254
1.813275752781688,14.71943944285622,-0.07496849520102304,1.797701763030485,-1.2537551680338759
1.7991721169605088,14.380767737486156,-0.07349082923244073,1.7672635566543924,-1.2124977088452635
1.7853482168710277,14.047814766345052,-0.07202390855157322,1.7375045606203838,-1.1728634922723855
1.7718018362518706,13.720453989791913,-0.07056957165008003,1.7083983504652882,-1.1347569360367606
1.7585304357004135,13.398563762426484,-0.06912938152315443,1.6799198323286892,-1.0980899473649934
1.7455312017535438,13.08202708822634,-0.06770466002284195,1.652045159251754,-1.0627812171882436
1.732801089851892,12.770731390991365,-0.06629651788928177,1.6247516537479645,-1.0287555909422876
1.720336861954411,12.464568298955879,-0.06490588103156948,1.5980177360992536,-0.9959435066633653
1.7081351194691958,12.163433442527335,-0.06353351354964226,1.5718228578854307,-0.9642804923170392
1.6961923320795536,11.867226264199427,-0.06218003792027706,1.5461474403030582,-0.9337067153594818
1.6845048629694803,11.575849839767713,-0.06084595271207113,1.5209728168728724,-0.9041665784409109
1.6730689908881002,11.289210710048344,-0.05953164814456206,1.496281180173106,-0.8756083559426884
1.6618909661346541,11.00722083680217,-0.05813177031276695,1.4720332750498086,-0.8451012951965976
1.6509758126637781,10.729795209497862,-0.05676458201224291,1.4482364860481607,-0.8159350937335763
1.6403173664464359,10.456849598884336,-0.055429588696623594,1.4248752046205455,-0.7880353490882808
1.629909561623426,10.188302675965133,-0.05412625154558316,1.4019345103184233,-0.7613325696848872
1.6197464381127231,9.924075884893142,-0.05285399593550094,1.379400132544637,-0.7357617989564528
1.6098221477136734,9.664093322892008,-0.0516122187913379,1.3572584148357318,-0.7112622720838774
1.6001309589072765,9.408281626742053,-0.0504002949602083,1.335496281479595,-0.6877771021960808
1.590667260526784,9.156569865403867,-0.04921758272918812,1.31410120629079,-0.6652529932098882
1.5814255644510484,8.908889438385014,-0.048063428594341456,1.29306118338134,-0.6436399767858133
1.5724005074540148,8.66517397948482,-0.04693717137443592,1.2723646997786082,-0.6228911711393732
1.563586852327091,8.425359265579175,-0.04583814575107578,1.2520007097544776,-0.6029625596810232
1.5549794883765964,8.189383130132068,-0.04476568530676502,1.2319586107413896,-0.5838127876649558
1.5465734313857196,7.95718538114313,-0.04371912512351464,1.2122282207211024,-0.5654029752110723
1.5383638231192849,7.728707723261397,-0.042697803996852024,1.1927997569813666,-0.5476965452281874
1.5303459304398184,7.503893683814468,-0.041701066313321974,1.173663816144197,-0.5306590649123999
1.5225151440948552,7.282688542519942,-0.04072826363365808,1.1548113553771329,-0.5142580996246567
1.514866977227887,7.065039264662055,-0.03977875601863658,1.1362336747059005,-0.49846307806771506
1.5073970636587568,6.850894437531434,-0.03885191313010508,1.117922400353286,-0.48324516778655974
1.5001011559735034,6.6402042099395615,-0.037947115135721556,1.099869469034859,-0.46857716010929645
1.4929751234585749,6.432920234632235,-0.03706375344247198,1.0820671131475184,-0.4544333637288325
1.4860149499098454,6.228995613438009,-0.036201231280995484,1.0645078467916966,-0.4407895062003787
1.4792167313429436,6.02838484499841,-0.035358964160078644,1.0471844525725111,-0.42762264269690525
1.4725766736279438,5.831043774936745,-0.034536380208339275,1.030089969129231,-0.4149110714250045
1.4660910900684356,5.636929548331583,-0.03373292041806297,1.0132176793461625,-0.4026342551578997
1.4597563989423066,5.446000564369555,-0.032948038804347705,0.9965610992014867,-0.39077274839123743
1.4535760765056676,5.258417389601064,-0.032107986844484994,0.9779986352036666,-0.4216044086863764
1.4475506358611487,5.074350770443111,-0.0313177041504497,0.9595447243537282,-0.4539086225364593
1.4416707618115658,4.893780350491092,-0.030575706897790503,0.9411965382991093,-0.4875771798036303
1.43592742310748,4.716686300159633,-0.029880489987324413,0.9229513599267805,-0.522503943235169
1.43031187613843,4.543049295883257,-0.029230530739517733,0.9048065798245409,-0.5585846094287555
1.4248156679591386,4.372850499952726,-0.028624292200390197,0.8867596931284184,-0.5957164735036751
1.4194306387220403,4.206071540914262,-0.028060226084855932,0.8688082967501441,-0.6337981964646631
1.4141489235828235,4.042694494459759,-0.02753677538058448,0.8509500869814555,-0.6727295742402915
1.4089629541415571,3.8827018647364113,-0.0270523766327433,0.8331828574748503,-0.7124113073650612
1.4038654594783488,3.726076566003975,-0.02660546192734582,0.8155044976034218,-0.7527447702533865
1.3988494668393576,3.5728019045671218,-0.026194460588352314,0.7979129912055771,-0.7936317789840366
1.3939083020263565,3.422861560908828,-0.02581780060113017,0.7804064157238414,-0.8349743564748515
1.389035589540876,3.2762395719487536,-0.025473909772349954,0.7629829417506147,-0.8766744938790816
1.3842252525322873,3.132920313347661,-0.025161216633848352,0.7456408329977452,-0.9186339069758241
1.3794715125980086,2.9928884817753136,-0.02487815109540007,0.7283784467111779,-0.9607537862569555
1.374768889483321,2.856129077054856,-0.024623144848679352,0.7111942345568006,-1.0029345393307731
1.3701122007281135,2.7226273840911013,-0.024394631521925444,0.6940867440090341,-1.0450755241672793
1.3654965613082481,2.592368954483664,-0.02419104658192113,0.6770546202797963,-1.0870747716005391
1.3609173833201686,2.465339587718013,-0.024010826976811367,0.6600966088323235,-1.1288286953786522
1.3563703757589227,2.341525311818394,-0.023852410509988722,0.6432115585320914,-1.170231787910338
1.3518515444419617,2.220912363335735,-0.02371423493170759,0.6263984254958957,-1.211176299697671
1.3473571921339846,2.1034871665311563,-0.023594736731208897,0.6096562777101912,-1.2515519002658881
1.3428839189317707,1.9892363116010685,-0.023492349607883743,0.5929843005012665,-1.2912453182023216
1.338428622972467,1.8781465317729165,-0.023405502595313547,0.5763818029529597,-1.3301399576965331
1.3339885015342638,1.7702046790810329,-0.023332617806822904,0.5598482253826604,-1.3681154887323208
1.329561052604904,1.6653976986093397,-0.023272107765386348,0.5433831480035965,-1.4050474078197943
1.325144077001139,1.5637126009614875,-0.023222372274246988,0.5269863009211759,-1.4408065658738374
1.3207356811312396,1.4651364326887624,-0.023181794777324405,0.5106575756338075,-1.475258659547385
1.3163342805031168,1.3696562443712708,-0.023148738150284582,0.4943970382345331,-1.5082636820202262
1.3119386040927223,1.277259056007754,-0.023121539853867584,0.4782049445393403,-1.5396753289366087
1.3075476997014035,1.1879318193233672,-0.023098506370542175,0.46208175740156887,-1.5693403548937472
1.3031609404470132,1.1016613765517995,-0.02307790683356607,0.44602816650965554,-1.597097875632793
1.2987780325521625,1.0184344151876452,-0.02305796574381052,0.43004511100776216,-1.6227786109105207
1.2943990246143782,0.9382374181359836,-0.02303685465392003,0.4141338053255025,-1.6462040629880876
1.2900243185675533,0.8610566086079778,-0.023012682681079536,0.3982957686535072,-1.6671856258422884
1.2856546825724666,0.7868778890231987,-0.022983485688253365,0.3825328585547042,-1.6855236207009239
1.281291266106984,0.7156867730813197,-0.02294721394840684,0.36684730925455045,-1.7010062544962228
1.276935617564692,0.6474683100578709,-0.022901718075719623,0.35124177520281574,-1.713408499564134
1.2725897047153134,0.5822070002625104,-0.022844732970370825,0.3357193805378227,-1.7224908957489538
1.268255938432868,0.5198867004769347,-0.022773859476423835,0.32028377509980754,-1.727998280519137
1.2639372001604154,0.4604905180690295,-0.0226865433914969,0.3049391976150151,-1.729658459512205
1.2596368736565795,0.40400069237072955,-0.02258005138572453,0.2896905465776085,-1.7271808401961377
1.2553588816637573,0.35039846182679923,-0.022451443275561336,0.27454345914795586,-1.7202550666502894
1.2511077282584262,0.29966391539823434,-0.022297539938449313,0.2595043979948533,-1.708549716143772
1.2468885478018783,0.2517758267822643,-0.0221148859199506,0.244580745331133,-1.69171115158949
1.2427071616235446,0.20671147026030923,-0.02189970543093058,0.22978090226840497,-1.6693626729656494
1.2385701438685184,0.16444641751288458,-0.021647849885135406,0.21511438980975683,-1.6411041824870154
1.23448489837423,0.12495431570997084,-0.021354734265267742,0.20059194495773042,-1.6065126827873268
1.230459749087518,0.08820664884111551,-0.02101525822643747,0.18622560103024233,-1.5651440788759634
1.2265040475226436,0.05417248695263055,-0.020623705614343974,0.17202873463798946,-1.5165369726011344
1.2226283023078468,0.022818232227130864,-0.020173612436147917,0.15801605194625318,-1.4602194479235737
1.2188443383272882,-0.005892622616805454,-0.019657587359205735,0.14420347272672576,-1.3957202754882032
1.2151654969199457,-0.03199969840621719,-0.019067059033872742,0.1306078513723373,-1.3225865404585073
1.211606894999635,-0.055545857007786026,-0.01839190854834562,0.11724644969681701,-1.2404104149043977
1.2081857713463926,-0.0765771945433329,-0.01761991938052281,0.10413605067734125,-1.1488685650562591
1.204921965123099,-0.0951428202023763,-0.01673593560151552,0.09129158783893698,-1.0477781987242014
1.201838598696307,-0.11129431943626855,-0.015720553101556976,0.07872419357049074,-0.9371732474458823
1.1989630801252138,-0.12508479529967786,-0.01454806343626546,0.0664387102548371,-0.8174010090890964
1.1963286109854934,-0.1365674262080887,-0.013183190666054162,0.0544310887810334,-0.689230915696281
1.1939765078991014,-0.14579363684071467,-0.011575789190704087,0.042686917878211106,-0.553949534384276
1.1919599044308762,-0.15281136072338342,-0.009651615737982623,0.031183859834055264,-0.4133892150284997
1.1903501346487155,-0.1576646879874417,-0.007293329337393369,0.019903795577050534,-0.26981285797790255
1.1892500684491103,-0.16039831135019966,-0.004286314868978224,0.008871187188859707,-0.12557984606692107
