x,y,v_x,v_y,omega
2.375,32.48,0.0,2.871794871794872,-6.163265306122449
2.3736989248541214,31.912121381043505,-0.013010751458787443,2.806991317770063,-5.791980108363872
2.3699771720193175,31.35695009692884,-0.024206776889250613,2.7447215233765716,-5.453992042084874
2.3641734681548123,30.813995986603025,-0.033830261755798965,2.6848195798815655,-5.145395302132969
2.3565816371639525,30.282800494374655,-0.042088048152800026,2.627135342402142,-4.862830934719577
2.347457093166075,29.76293372425237,-0.049157391825973076,2.5715323588207073,-4.603398676516489
2.337022287196839,29.25399187328355,-0.055190667866388425,2.5178861508674886,-4.364584884842658
2.32547129635254,28.75559498068456,-0.06031924057659953,2.4660827751224295,-4.144203266916732
2.3129737059435382,28.267384942311487,-0.06465666351342013,2.416017608608297,-3.940345865277081
2.2996779057044003,27.789023749830534,-0.06830133887796125,2.3675943162012203,-3.751342317466824
2.2857138980485563,27.320191921561495,-0.07133873768047747,2.320723966489174,-3.5757258326293724
2.2711956981824395,26.860587097930807,-0.07384326098068919,2.2753242698177023,-3.412204652059661
2.2562233914590326,26.40992277918078,-0.07587980625338149,2.2313189176825814,-3.259638010837768
2.2408849018023136,25.967927186732833,-0.07750509031380834,2.1886370067968595,-3.1170158120389795
2.225257515734714,25.534342232614136,-0.07876877036218771,2.1472125343901136,-2.9834413772199606
2.209409199006797,25.108922583793003,-0.07971439691698201,2.1069839538212425,-2.858116756901093
2.1933997366931797,24.691434810253654,-0.08038022621919245,2.0678937815722143,-2.7403301800170987
2.1772817225969088,24.281656607269955,-0.08079991474351733,2.029888248264795,-2.6294452973561877
2.161101419675085,23.879376083683532,-0.08100311447471999,1.9929169875994581,-2.5248919350625543
2.1448995097884307,23.484391109110952,-0.08101598439182126,1.9569327581263145,-2.426158123549369
2.1287117482502604,23.09650871394075,-0.08086163098988189,1.921891193575694,-2.3327832071268624
2.1125695362976407,22.71554453676898,-0.08056048853631831,1.8877505781420139,-2.244351872201774
2.096500422642986,22.341322314588748,-0.08013064801022571,1.8544716436602888,-2.160488958536968
2.080528543618558,21.973673411616275,-0.07958814223405639,1.8220173860644604,-2.0808549399381215
2.0646750100433473,21.612436383120865,-0.07894719351804878,1.7903528988896216,-2.0051419787757774
2.0489582477763344,21.257456571042802,-0.07822042915207934,1.75944522189104,-1.933070473682704
2.0333942979351596,20.908585728542363,-0.07741906925967039,1.7292632031133337,-1.8643860321671113
2.0179970819247206,20.56568167093478,-0.07655309084471741,1.6997773729624994,-1.7988568102148246
2.002778635711356,20.228607950736617,-0.07563137128892647,1.6709598290191017,-1.7362711695899307
1.9877493171747211,19.897233554785835,-0.07466181407742617,1.6427841304887343,-1.676435610783823
1.9729179898544125,19.571432621604902,-0.07365145912566118,1.615225201320593,-1.619172945650121
1.958292185967892,19.25108417735879,-0.07260657973954229,1.5882592411405296,-1.5643206788953299
1.9438782511987047,18.936071888920296,-0.07153276795233163,1.5618636432444082,-1.5117295719337223
1.9296814734297527,18.626283832697503,-0.07043500973718755,1.5360169189835198,-1.4612623662918927
1.9157061973173817,18.321612278004316,-0.0693177513865219,1.5106986279483419,-1.4127926468723848
1.9019559263614878,18.021953483867303,-0.06818495817241797,1.4858893134217817,-1.366203828046186
1.8884478760770138,17.727211555501995,-0.06689554467232217,1.4615299702313027,-1.3171691265000145
1.875196859323319,17.437293974480838,-0.06561462286462567,1.4376458399802912,-1.2703726712143604
1.862200992924715,17.15210739948398,-0.06434404112141515,1.4142199099882733,-1.225685767864458
1.8494580503127547,16.871561813431974,-0.06308538499818933,1.3912359505318046,-1.1829885261512234
1.8369655111064511,16.595570371450258,-0.06184000706484425,1.3686784692853382,-1.1421691616463754
1.8247206050616178,16.324049257627674,-0.06060905338348887,1.3465326689404862,-1.1031233604099795
1.8127203510207985,16.056917549959273,-0.05939348702470521,1.3247844077435338,-1.065753700081169
1.8009615914217654,15.794097092913361,-0.05819410896562645,1.3034201627155773,-1.0299691218396865
1.7894410228580764,15.53551237710765,-0.05701157667126233,1.282426995341544,-0.9956844482486114
1.778155223128552,15.281090425620103,-0.05584642062398221,1.2617925195339335,-0.9628199425281836
1.767100675162731,15.030760686497246,-0.05469905903422784,1.2415048716946613,-0.9313009052864877
1.7562737881655346,14.784454931056366,-0.05356981093773574,1.22155268271413,-0.901057305153059
1.7456709162857353,14.542107157608871,-0.0524589078602578,1.2019250517608104,-0.872023440133245
1.7352883750787582,14.303653500260054,-0.05136650420951233,1.1826115217273567,-0.8441376268304702
1.7251224560042595,14.069032142466241,-0.05029268653547502,1.1636020562107716,-0.8173419149756664
1.7151694391723336,13.838183235053712,-0.04923748178378516,1.1448870179145103,-0.7915818249625791
1.7054256045286849,13.611048818425282,-0.048200864652700015,1.126457148369795,-0.7668061063184275
1.6958872416482726,13.387572748700112,-0.04718276415142286,1.1083035488819042,-0.7429665152448871
1.6865506582884766,13.167700627550431,-0.04618306944653651,1.0904176626149054,-0.7200176095475956
1.677412187836473,12.951379735515413,-0.04520163507350231,1.0727912577352794,-0.6979165594359602
1.6684681957709657,12.73855896858776,-0.04423828558156865,1.05541641154125,-0.6766229728212525
1.659715085245526,12.529188777882595,-0.043292819672828636,1.0382854955103997,-0.6560987338718121
1.6511493018892982,12.323221112211211,-0.04236501388944931,1.0213911612034252,-0.6363078537013911
1.6427673379106378,12.120609363394202,-0.04145462589715472,1.0047263269666846,-0.6172163321718025
1.6345657355801433,11.921308314159475,-0.040561397407788614,0.9882841653805687,-0.5987920298854242
1.626548790098182,11.72545851699229,-0.03960805741182519,0.9702138062912701,-0.6178595193396632
1.6187179730705954,11.533211345152107,-0.038700112864040855,0.9522579121105479,-0.6387430563213647
1.6110643080307605,11.344544218093969,-0.03783653753430778,0.9344133584708433,-0.6613257736649734
1.6035790290672638,11.15943516752537,-0.03701625210065962,0.9166771472151382,-0.6854936081659679
1.596253590851993,10.977862812638023,-0.036238130052048914,0.89904640165832,-0.7111350408590724
1.5890796775406977,10.799806336243808,-0.035501003060903126,0.8815183622838341,-0.7381408439820014
1.5820492106483128,10.625245461729222,-0.03480366586294539,0.8640903828620471,-0.7664038335584988
1.575154355994187,10.454160430745059,-0.034144880678312055,0.8467599269795887,-0.7958186265516836
1.5683875298058805,10.28653198154992,-0.03352338120475318,0.8295245649717957,-0.8262814015482944
1.5617414040643434,10.122341327927415,-0.03293787621061929,0.812381971253272,-0.8576896619362988
1.5552089111680423,9.961570138597633,-0.032387052752392065,0.7953299220445432,-0.8899420005323588
1.5487832479889345,9.804200517043594,-0.03186957903868415,0.7783662934958634,-0.9229378646016471
1.5424578793890773,9.650214981672761,-0.031384106959889954,0.7614890602124609,-0.9565773201901692
1.536226541263089,9.499596446232623,-0.030929274299989862,0.7446962941889349,-0.9907608146587409
1.530083243168653,9.35232820039731,-0.0305037066443709,0.7279861641641928,-1.0253889362676107
1.524022270604726,9.208393890439662,-0.03010601899490179,0.7113569354122921,-1.0603621696109105
1.5180381869951494,9.067777499899545,-0.029734817100863325,0.694806969988896,-1.0955806456400252
1.5121258354338973,8.930463330154872,-0.02938869851165807,0.6783347274578311,-1.130943884943944
1.5062803402472837,8.796435980796335,-0.029066253354478048,0.6619387661275297,-1.1663505328718986
1.5004971084281098,8.66568032970028,-0.028766064837262694,0.6456177448330467,-1.2016980849883574
1.4947718309969535,8.538181512686378,-0.028486709474299304,0.6293704253059546,-1.236882601241847
1.4891004843466569,8.413924902637596,-0.028226757028666137,0.6131956751818685,-1.2717984071063344
1.4834793316275547,8.292896087949032,-0.02798477016235484,0.5970924717037646,-1.3063377798162337
1.4779049242331905,8.175080850159777,-0.027759303781287936,0.581059906188785,-1.3403906176628977
1.4723741034492097,8.060465140607192,-0.027548904058519515,0.5650971893370451,-1.3738440901513553
1.466884002331896,7.94903505592616,-0.027352107114616466,0.5492036574732634,-1.4065822666311227
1.4614320478874845,7.8407768121962285,-0.02716743732950054,0.5333787798260405,-1.4384857208148982
1.4560159636290528,7.7356767175170695,-0.026993405254816295,0.5176221669655592,-1.4694311083855796
1.4506337725945617,7.633721142766653,-0.02682850509009406,0.501933580538605,-1.499290714668579
1.445283800917602,7.534896490266753,-0.02667121167950493,0.4863129444604022,-1.5279319691182722
1.4399646820517769,7.439189160046109,-0.026519976978744135,0.47076035774605957,-1.5552169231431987
1.4346753617605628,7.346585513352434,-0.026373225933396093,0.45527610919069034,-1.5810016875874668
1.4294151039971368,7.2570718330196975,-0.02622935170086637,0.43986069413667106,-1.6051358260153161
1.424183497813309,7.170634280246119,-0.026086710137409805,0.4245148335991206,-1.627461699840825
1.4189804654536,7.0872588472805695,-0.02594361345968235,0.40923949605636745,-1.647813761347389
1.413806271810006,7.006931305449886,-0.025798322976257265,0.394035922250474,-1.6660177908126415
1.4086615354355585,6.9296371478865595,-0.025649040768216474,0.37890565338279264,-1.6818900743814853
1.4035472413408752,6.855361526235363,-0.025493900178617933,0.3638505631291857,-1.6952365201385489
1.3984647558282695,6.784089180528866,-0.02533095494744049,0.348872893935788,-1.7058517112017004
1.3934158436535067,6.715804361326903,-0.025158166800186895,0.33397529808383053,-1.7135178968482647
1.3884026878472184,6.65049074311624,-0.024973391262693073,0.3191608840228132,-1.7180039260647477
1.3834279125780675,6.58813132786873,-0.024774361428818198,0.30443326845228486,-1.719064133008939
1.378494609500496,6.5287083375671315,-0.024558669346896683,0.2897966345636926,-1.716437191450173
1.373606368105026,6.472203094440292,-0.024323744607804558,0.2752557967047015,-1.7098449664005253
1.3687673106841778,6.418595887624541,-0.024066829600675577,0.26081627145280073,-1.698991407434198
1.3639821326507804,6.367865825017933,-0.023784950733298303,0.24648435461327833,-1.6835615518648361
1.359256149111097,6.31999066926813,-0.023474884663534493,0.23226720288476885,-1.6632207402360522
1.3545953488239275,6.274946657208691,-0.02313311820815989,0.21817291770961364,-1.637614196081184
1.3500064570021781,6.2327083027456105,-0.02275580000933422,0.20421062692119854,-1.6063671931389545
1.345497008889102,6.193248184364169,-0.022338681121427017,0.1903905568932057,-1.5690861352648091
1.341075436754065,6.156536720321288,-0.021877040228945155,0.17672408353559887,-1.5253610195361498
1.3367511740421747,6.122541937560783,-0.021365586889958023,0.163223744069458,-1.4747699576573208
1.3325347821046196,6.0912292449221255,-0.020798332485593592,0.14990318231709945,-1.416886714083549
1.3284381075969829,6.062561227936644,-0.020168412590773815,0.1367769875377042,-1.3512926004338814
1.3244744828463602,6.036497492151227,-0.01946783491545387,0.12386037031646906,-1.2775945531554473
1.320658988183462,6.012994595133904,-0.018687111713527813,0.11116859985676404,-1.1954517864232925
1.3170088058642209,5.992006124118991,-0.01781471147888419,0.09871611029235355,-1.1046139305672986
1.313543711994557,5.973482994772429,-0.016836227217754875,0.08651518317328075,-1.0049736995669565
1.3102867792162776,5.957374060397985,-0.01573310056503982,0.07457416057115618,-0.8966361203334628
1.3072654042089638,5.943627114281188,-0.014480649508097883,0.06289530059679552,-0.7800027509094678
1.304512840496498,5.932190308191693,-0.013044987616558822,0.051472760298164395,-0.6558608920304285
1.3020705348375097,5.92301383920239,-0.01137806897332509,0.0402919295948727,-0.5254525112102831
1.2999918239328851,5.916051380315356,-0.009409040072919327,0.029332659275457203,-0.39047700181929423
1.2983483107430116,5.911259950540078,-0.007026091825815995,0.01858163847732226,-0.25296659684627454
1.2972433735364632,5.908594799608682,-0.004023280239668681,0.008069870836624042,-0.11498285798240238
