x,y,v_x,v_y,omega
2.375,32.48,0.0,2.564102564102564,-5.795918367346939
2.373928253448591,31.972549725235552,-0.010717465514093756,2.5104001835418774,-5.479584588240172
2.3708499521285193,31.475651635568926,-0.020065547686616968,2.4585807131243733,-5.188659500273257
2.366022373048584,30.988940417858675,-0.028210243112736025,2.4085314639781505,-4.920449545914396
2.359671798031498,30.512072314395745,-0.03529550705812938,2.360149570651164,-4.672603874514733
2.351997594007348,30.04472327708076,-0.04144653318336796,2.3133408024986934,-4.443063923661972
2.343175692335698,29.586587340698998,-0.046772483533129225,2.2680185613189057,-4.230021432860014
2.333361566708553,29.1373751815627,-0.051368772738323895,2.2241030300440903,-4.0318833023772385
2.3226927906091204,28.696812834069725,-0.05531898825600078,2.1815204448856576,-3.8472420436329244
2.311291240622476,28.264640542669525,-0.05869651161044302,2.1402024691163493,-3.674850823421199
2.2992650001997434,27.84061173064616,-0.061565892616882556,2.100085651117285,-3.5136023024037617
2.286710009090054,27.424492070258736,-0.06398401848001337,2.0611109527569624,-3.3625106229515818
2.2737114960670355,27.016058641297995,-0.0660011117501714,2.0232233368504606,-3.2206960230453396
2.2603452264050308,26.615099167157794,-0.06766158486987416,1.9863714045515297,-3.0873716492815246
2.2466785905112676,26.221411319183332,-0.06900477406775934,1.950507075193103,-2.961832218836866
2.232771555967604,25.834802081422605,-0.07006557136887712,1.915585302414161,-2.8434442418524806
2.218677501803354,25.455087169034275,-0.07087497027362025,1.8815638214691435,-2.731637565399371
2.204443950971191,25.082090494540548,-0.07146053804801192,1.8484029234681187,-2.6258980404938748
2.1901132146224254,24.71564367689514,-0.07184682543964396,1.8160652529859327,-2.5257611464833007
2.1757229597895695,24.35558558899249,-0.07205572288891564,1.784515626040584,-2.430806434022216
2.1613067104138217,24.001761939798296,-0.07210677086855984,1.7537208659013785,-2.3406526699832475
2.1468942902473347,23.65402488775151,-0.07201743079631381,1.7236496545664581,-2.254953585916122
2.132512214969796,23.312232682488563,-0.07180332197907191,1.6942723980630543,-2.173394146814844
2.118184039849421,22.97624933228377,-0.07147842922467788,1.6655611039848526,-2.095687269555635
2.103930668419963,22.64594429489538,-0.07105528506990205,1.6374892698990875,-2.02157093089109
2.089770626913354,22.32119218976154,-0.07054512999619111,1.6100317814393148,-1.9508056137012666
2.0757203085618174,22.001872529712156,-0.06995805351917234,1.5831648190545142,-1.883172047610346
2.0617941913471016,21.68786947055507,-0.06930311862798455,1.5568657725163046,-1.818469206321434
2.048005032313949,21.379071577063677,-0.06858847170354074,1.5311131623976877,-1.7565125292999058
2.034364041168558,21.07537160404069,-0.06782143975036883,1.5058865678321454,-1.697132339909121
2.020881035540905,20.776666291263098,-0.06700861652616022,1.4811665599438004,-1.640172435903867
2.0075782173526795,20.482860959021203,-0.06601956535609813,1.4568867624751318,-1.5813680026846693
1.9944748085540103,20.19386426950505,-0.06501452263059164,1.4330801326863996,-1.5252468305734623
1.9815736367639294,19.909583286424137,-0.06399719527021754,1.4097296981227305,-1.471654665633886
1.9688768295409125,19.629928389490978,-0.062970876959952,1.3868192712088427,-1.4204478056207024
1.9563858927240014,19.35481312205466,-0.06193849120915913,1.3643334031543355,-1.37149226300203
1.9441017806241045,19.084154047626853,-0.06090262978980977,1.3422573411237548,-1.3246630033049351
1.9320249589374203,18.817870614674657,-0.059865587077032885,1.3205769883982073,-1.2798432512107036
1.9201554611544362,18.555885029106655,-0.058829390752806895,1.2992788672818207,-1.2369238576669523
1.9084929391513095,18.29812213392548,-0.05779582927846235,1.2783500845299338,-1.1958027220224354
1.8970367085741064,18.044509295562797,-0.05676647649356688,1.2577782990968933,-1.1563842638404371
1.8857857895590757,17.794976296451097,-0.055742713656740966,1.237551692020088,-1.118578939619573
1.8747389432726826,17.54945523342173,-0.05472574920718973,1.2176589382736012,-1.0823028001565858
1.8638947047026106,17.30788042155038,-0.05371663649353045,1.1980891804398797,-1.0474770847328518
1.853251412084433,17.070188303100267,-0.05271628968824673,1.1788320040612825,-1.0140278487022207
1.8428072333074792,16.836317361239587,-0.0517254980812901,1.1598774145454787,-0.9818856214088124
1.8325601896068968,16.606208038234087,-0.05074493892453443,1.1412158155095609,-0.9509850916750755
1.822508176816485,16.379802657837374,-0.04977518897958247,1.122837988457565,-0.9212648183775024
1.812648984428077,16.15704535162212,-0.04881673490449683,1.1047350736949573,-0.8926669638740877
1.8029803126776183,15.937881989013459,-0.04786998260009173,1.086898552391672,-0.8651370482675192
1.793499787855286,15.722260110803038,-0.04693526562322899,1.069320229712546,-0.838623722684357
1.7842049760166736,15.510128865937727,-0.0460128527628962,1.0519922189405808,-0.8130785599258444
1.7750933952539323,15.301438951391223,-0.045102954864519075,1.0349069265244464,-0.7884558610029135
1.766162526669599,15.096142554940073,-0.04420573097881133,1.018057037987069,-0.7647124762085026
1.757409824181383,14.894193300677657,-0.04332129390335099,1.0014355046371017,-0.7418076395063462
1.748832723273261,14.695546197110989,-0.042449715177869246,0.9850355310295739,-0.7197028151285582
1.7404359663135673,14.50034721134432,-0.04151785441906604,0.9669543266371188,-0.7361102436864385
1.7322213954998449,14.308752904268392,-0.04062785371815875,0.9489887441221699,-0.7543845186397463
1.7241807229272077,14.12074046827616,-0.03977887200821293,0.9311356158001451,-0.7744062671606705
1.716305835306621,13.936287716350318,-0.03897000419765393,0.9133919034582871,-0.7960589875310479
1.7085888061194074,13.755373056654175,-0.03820028767448259,0.8957546935031282,-0.8192287844598893
1.7010219065274494,13.577975468048322,-0.037468708245096634,0.8782211925553897,-0.8438041112466905
1.6935976151482146,13.40407447644494,-0.036774205547253844,0.8607887234784437,-0.8696755177077761
1.6863086267961744,13.233650131914157,-0.03611567797314775,0.8434547218293876,-0.8967354028009799
1.6791478602853396,13.066682986458748,-0.03549198713520015,0.8262167327247029,-0.9248777708942985
1.6721084653814215,12.903154072374733,-0.03490196190397994,0.8090724081154361,-0.953997990626744
1.6651838289865628,12.743044881116202,-0.034344402044608834,0.7920195044698782,-0.9839925553043676
1.658367580634593,12.586337342582727,-0.033818081475087323,0.7750558808648671,-1.0147588437611335
1.65165359737037,12.433013804747226,-0.033321751167142546,0.7581794974901468,-1.0461948805927466
1.6450360080829118,12.28305701354084,-0.03285414170744046,0.7413884145737216,-1.0781990946413307
1.6385091973587387,12.136450092909477,-0.032413965534291767,0.7246807917398969,-1.1106700745696139
1.6320678089190803,11.99317652495391,-0.031999918862289624,0.7080548878157628,-1.1435063203145148
1.6257067487023895,11.853220130061704,-0.031610683304620545,0.6915090611063059,-1.1766059891511855
1.6194211876519211,11.716565046934754,-0.031244927200061,0.6750417701632044,-1.2098666350290397
1.613206564267027,11.583195712410657,-0.030901306648881417,0.6586515750777524,-1.2431849397604113
1.6070585869762393,11.453096840969444,-0.030578466258995792,0.642337139334359,-1.2764564345495624
1.6009732363902711,11.326253403809229,-0.030275039600685633,0.626097232267782,-1.309575210244084
1.5949467674936972,11.202650607364973,-0.029989649365054626,0.6099307321747978,-1.3424336145716793
1.588975711835392,11.082273871133541,-0.029720907217995758,0.5938366301395149,-1.374921934492322
1.5830568797798095,10.965108804655475,-0.029467413337831514,0.577814034641154,-1.4069280616485476
1.5771873628839392,10.85114118348896,-0.029227755620871147,0.5618621770240056,-1.4383371387351167
1.5713645364683657,10.740356923994394,-0.029000508534862145,0.5459804179216347,-1.469031184434079
1.5655860624553162,10.632742056728091,-0.028784231595633772,0.5301682547414116,-1.4988886943736703
1.559849892552046,10.528282698220814,-0.028577467437068405,0.5144253303313566,-1.5277842153720351
1.5541542718644583,10.426965020890748,-0.028378739438809714,0.49875144296929025,-1.555587890023766
1.5484977430336042,10.328775220810353,-0.028186548869730606,0.48314655783464217,-1.5821649684854169
1.5428791509968287,10.23369948301227,-0.027999371498025668,0.46761082014618405,-1.6073752841258402
1.5372976484859535,10.141723943980193,-0.027815653610726913,0.45214457017460147,-1.631072689543814
1.5317527023872506,10.052834650926002,-0.027633807376300404,0.43674836036729686,-1.6531044493415836
1.5262441011022654,9.967017517403864,-0.027452205473553908,0.42142297485406627,-1.673310586011496
1.5207719630651,9.884258274754856,-0.02726917489809796,0.4061694516360136,-1.691523175391145
1.5153367465909213,9.8045424188117,-0.027082989843689693,0.39098910779556145,-1.7075655884382046
1.5099392612526072,9.727855151222009,-0.026891863539449792,0.37588356810135803,-1.7212516766662256
1.504580681008215,9.654181314670275,-0.02669393890447339,0.3608547974159695,-1.732384899605239
1.499262559331994,9.583505321194409,-0.026487277857738547,0.34590513734270834,-1.7407573943027448
1.4939868466370247,9.515811072703663,-0.02626984909195297,0.33103734756474057,-1.7461489894418007
1.4887559103195473,9.451081872714656,-0.02603951408282062,0.3162546523253118,-1.748326170522779
1.4835725578055927,9.389300328236324,-0.025794011056725914,0.3015607924580007,-1.747041008303481
1.4784400630424472,9.330448240662705,-0.0255309365747289,0.2869600832782032,-1.742030071131524
1.4733621969548967,9.274506484489073,-0.025247724300778207,0.2724574784581043,-1.733013354094184
1.4683432624854014,9.221454872675565,-0.024941620394174635,0.25805863967698817,-1.7196932757120107
1.46338813496799,9.171272007578661,-0.02460965477993815,0.2437700112920619,-1.7017538185783336
1.4585023087627003,9.123935116609307,-0.024248607272959573,0.22959889840147207,-1.6788599272606448
1.4536919513244082,9.079419872238244,-0.02385496710996034,0.21555354530916868,-1.650657329687453
1.4489639662341514,9.037700196775567,-0.0234248837926109,0.20164320931759905,-1.6167730238004903
1.4443260672419722,8.998748053679805,-0.02295410612917853,0.18787822164001833,-1.5768167786039433
1.4397868661529634,8.962533229256664,-0.022437904760911877,0.17427002259137367,-1.5303841500774822
1.4353559785848984,8.929023111846504,-0.0218709709197369,0.16083115151023447,-1.4770617230920509
1.4310441534807719,8.898182480452633,-0.0212472801215288,0.14757516242848437,-1.416435577748238
1.4268634351623368,8.869973321830496,-0.020559903062819834,0.1345164237928795,-1.3481043568415123
1.4228273712787147,8.844354704987698,-0.019800735773402647,0.1216697446351028,-1.2716987789633019
1.418951287203227,8.821282755280759,-0.018960104981473942,0.10904975243428841,-1.1869099511881676
1.4152526587482575,8.800710786438128,-0.018026179568221393,0.0966699359920145,-1.0935292272817505
1.4117516327520696,8.782589665228578,-0.016984080393657622,0.084541276103478,-0.9915022379956191
1.4084717725556883,8.766868492391865,-0.015814521570154286,0.0726704522636615,-0.8809982612608249
1.4054411481956213,8.75349566718143,-0.01449172203051817,0.06105779984067989,-0.7624918237926113
1.402693960553751,8.74242032695436,-0.01298015438818511,0.04969560243002911,-0.6368442957812198
1.4002730159968066,8.7335939589803,-0.011229291181256526,0.03856807731054903,-0.5053579420417169
1.3982336633704866,8.726971573682853,-0.009164235081943807,0.02765577566393832,-0.36975642312800394
1.396650724878365,8.722510977649222,-0.006665149839271073,0.016950184672365497,-0.23203570180998803
1.3956339609908763,8.720166115718033,-0.0035024890356188105,0.006498434639527357,-0.09414618610094527
