x,y,v_x,v_y,omega
2.375,32.48,0.0,3.230769230769231,-6.408163265306122
2.3729321357401423,31.747150751572324,-0.01798142834658963,3.141832929471418,-5.9193336657102185
2.3670873927399576,31.03424339763226,-0.03284242382892851,3.05736145261607,-5.486869453622159
2.358123298821946,30.34029290289188,-0.04510621893639013,2.9769906755611735,-5.102406550878037
2.3465880155319367,29.664393073604558,-0.05520059228108176,2.9003991443285733,-4.759046929085604
2.332940076037903,29.005707530583855,-0.06347714244964678,2.8273012297644846,-4.4510653199550525
2.3175641867674686,28.363462094071142,-0.07022624251065375,2.757441696433027,-4.173681763339585
2.300783962664509,27.73693829555683,-0.07568874968899104,2.6905913341262133,-3.922883577019865
2.282872252876974,27.125467801159804,-0.08006524846348888,2.6265433997609544,-3.6952848445103244
2.26405955839345,26.528427581275665,-0.08352339921932643,2.565110686188094,-3.4880146718262237
2.2445409283476248,25.945235697877774,-0.08620381857045961,2.5061230824892218,-3.2986277049032897
2.2244816357891786,25.37534760808478,-0.08822481237255335,2.4494255244063603,-3.1250320136820195
2.2040218687070112,24.81825290310341,-0.08968620573324586,2.394876258040331,-2.9654306267682298
2.1832806224205847,24.273472417282704,-0.09067245762698797,2.342345357791883,-2.8182738699456484
2.1623589411784923,23.740555654078726,-0.09125520534772812,2.291713452677509,-2.6822203101462794
2.141342627077722,23.219078485148636,-0.09149535205027183,2.242870624975439,-2.5561045945528944
2.1203045111700867,22.708641086230084,-0.091444786276993,2.1957154525771974,-2.4389108451043344
2.099306363325897,22.208866079393704,-0.09114780367248483,2.150154172086978,-2.329750552302287
2.0784005029405437,21.71939685603388,-0.09064228663493348,2.1060999440853796,-2.2278441308722448
2.057631161041117,21.23989605884481,-0.08996068640355832,2.06347220538483,-2.1325054695359733
2.037035635128346,20.770044204209785,-0.08913084327271513,2.0221960957892993,-2.0431289396949865
2.0166452706779863,20.309538429058527,-0.0881766736869307,1.98220194900427,-1.9591784319507743
1.996486297243702,19.85809134843199,-0.0871187474807581,1.9434248390525402,-1.8801780716410492
1.9765805422549731,19.4154300118237,-0.08597477416036418,1.9058041749325916,-1.8057043298839786
1.9569460416585636,18.981294947907685,-0.08476001363450118,1.8692833373806095,-1.7353792987376857
1.937597563330296,18.55543928856921,-0.08348762400260751,1.833809352519143,-1.6688649408602139
1.9185470565435232,18.137627964266827,-0.08216895675193875,1.7993325979363566,-1.6058581576940472
1.899804038609568,17.727636963706377,-0.08081380789114938,1.7658065373719183,-1.5460865473987486
1.8813759280144091,17.32525265162653,-0.0794306320667555,1.7331874807136984,-1.4893047458363755
1.8632683318939383,16.930271139202347,-0.07802672550255535,1.7014343664531393,-1.4352912619091667
1.845485294460285,16.542497702186225,-0.07660838261616784,1.6705085641218191,-1.3838457332678453
1.8280295119681957,16.16174624243901,-0.07518103035852094,1.6403736945496215,-1.3347865404907826
1.810902518956369,15.787838788969381,-0.07374934365736534,1.6109954660558445,-1.2879487277854378
1.7941048497840484,15.420605035007569,-0.07231734479759686,1.5823415249164523,-1.2431821864866255
1.777636178883794,15.05988190799744,-0.07088848911765791,1.554381318649879,-1.2003500644428489
1.7614954426473715,14.70551316970661,-0.069465739025147,1.5270859708355882,-1.1593273700500313
1.7456809454369524,14.357349043932771,-0.06805162802197456,1.5004281663282355,-1.1199997444189511
1.7301904518550328,14.015245869531203,-0.06664831616863123,1.4743820458593178,-1.0822623791161012
1.7150470878589628,13.679069609120674,-0.06503310988415226,1.4488897837974635,-1.0396005626667262
1.700271268260186,13.348691436268904,-0.06345227793129753,1.423963893174433,-0.9990997062153759
1.6858550511435713,13.023983643678772,-0.06190613177839635,1.3995821293484583,-0.9606225733241339
1.671790444353292,12.704823510243948,-0.060394796832728,1.375723378780443,-0.9240422977902826
1.6580694450245315,12.39109304919252,-0.058918240808667754,1.3523675868841556,-0.889241476594808
1.644684073030916,12.082678772193113,-0.057476298266249275,1.329495691371553,-0.8561113526951486
1.631626399168932,11.779471468215736,-0.056068691837961517,1.3070895606056283,-0.8245510777454121
1.6188885687898282,11.481365996045987,-0.054695050589027225,1.28513193652261,-0.7944670460317659
1.6064628214942225,11.188261089447039,-0.05335492589450039,1.2636063817291279,-0.7657722919558064
1.594341507422538,10.900059174050025,-0.05204780516362519,1.2424972304188253,-0.7383859443072294
1.5825171006036078,10.616666195131305,-0.05077312369663825,1.2217895427874377,-0.7122327313583322
1.5709822097626471,10.337991455505296,-0.04953027492041186,1.2014690626561342,-0.6872425315031708
1.5597295869369532,10.063947462825197,-0.048318619216055715,1.1815221780403662,-0.6633499647674603
1.5487521342019621,9.794449785641564,-0.0471374915229984,1.1619358844259977,-0.6404940210434232
1.5380429087706786,9.529416917620882,-0.04598620787946659,1.1426977505364537,-0.6186177213668613
1.52759512669516,9.268770149373847,-0.044864071038085845,1.123795886394299,-0.5976678089604242
1.5174021653689198,9.012433447386194,-0.04377037527704663,1.1052189134983343,-0.577594467124781
1.5074575650032376,8.760333339584268,-0.042704410511494734,1.0869559369531836,-0.5583510613745536
1.4977550292278572,8.512398807103349,-0.04166546579615961,1.068996519402644,-0.5398939034939078
1.48828842494698,8.268561181859482,-0.04065283229842516,1.0513306566309704,-0.5221820354323667
1.4790517815644173,8.028754049555513,-0.039665805810817266,1.0339487547078996,-0.5051770311787639
1.470039289676927,7.7929131577792745,-0.03870368886301056,1.0168416085637468,-0.48884281494383397
1.4612452993218188,7.560976328877047,-0.03776579248575605,1.0000003818904202,-0.4731454941528023
1.452664317853626,7.332883377308274,-0.03685143767244055,0.9834165882728292,-0.45805320590111365
1.4442990006772045,7.10868957088524,-0.035890450818181534,0.966094771927475,-0.4634853196975416
1.4361500632942321,6.888464985328916,-0.03496987425114414,0.9489016242144658,-0.47134755822289537
1.4282082354409535,6.672180473443262,-0.03408949838606196,0.931833261747734,-0.48150572969443034
1.4204643086083768,6.459807762446577,-0.03324899581025761,0.9148859643103979,-0.49383009123793237
1.4129091618546987,6.251319417346711,-0.03244793248259507,0.8980561669927984,-0.5081950247020405
1.4055337851495109,6.046688806055801,-0.031685777997299915,0.8813404529281462,-0.5244787263634234
1.3983293004566042,5.845890066110954,-0.030961914984496068,0.8647355465922522,-0.542562909135566
1.3912869807463562,5.648898072874527,-0.030275647713312526,0.8482383076375362,-0.562332515961547
1.3843982671141706,5.455688409094179,-0.02962620995786722,0.8318457252350455,-0.5836754431289769
1.3776547841681672,5.2662373357084675,-0.029012772181291963,0.8155549129015914,-0.6064822722936802
1.371048353837178,5.0805217637886635,-0.02843444808817982,0.7993631037923717,-0.6306460100380912
1.3645710077390292,4.898519227511638,-0.027890300591374727,0.783267646442624,-0.6560618338209605
1.3582149982390137,4.720207858062064,-0.027379347234846016,0.7672660009449785,-0.682626843196991
1.3519728083193032,4.545566358364876,-0.026900565110463265,0.7513557355522953,-0.710239815198495
1.3458371603717807,4.374573978550988,-0.026452895302776672,0.7355345236989085,-0.738800962776079
1.3398010240193372,4.207210492060426,-0.02603524689238356,0.7198001414364024,-0.7682116951915707
1.3338576230640276,4.043456172287655,-0.025646500545091985,0.7041504652833526,-0.7983743792437105
1.3280004416545945,3.883291769673498,-0.025285511710847943,0.6885834704919265,-0.8291921001851996
1.322223229760724,3.7266984891470685,-0.02495111345324343,0.6730972297378961,-0.8605684211581361
1.316520008036957,3.573657967819088,-0.024642118927338523,0.6576899122445375,-0.8924071399331451
1.3108850721554577,3.4241522528251274,-0.024357323520481505,0.6423597833551263,-0.9246120416850224
1.3053129966838093,3.278163779213351,-0.024095506667764756,0.6271052045733646,-0.9570866464737282
1.2997986385816884,3.1356753477663553,-0.023855433350678166,0.6119246340961709,-0.9897339500232867
1.2943371403886565,2.996670102640369,-0.023635855284380978,0.5968166278689154,-1.0224561563016454
1.288923933174439,2.8611315086975004,-0.02343551179577005,0.5817798411994993,-1.0551544003008466
1.2835547393229447,2.7290433283974593,-0.02325313039113732,0.5668130309747708,-1.0877284592979006
1.2782255752219707,2.6003895981043215,-0.023087427008637768,0.5519150585307822,-1.1200764507414676
1.2729327539320743,2.475154603650971,-0.02293710594698328,0.5370848932374739,-1.152094514756798
1.2676728879105374,2.353322854988761,-0.02280085945768429,0.5223216168687006,-1.1836764790904324
1.2624428918697759,2.2348790597322257,-0.022677366983720183,0.5076244288402969,-1.214713504126232
1.2572399858540415,2.119808095388173,-0.022565294022664918,0.4929926524123376,-1.245093705395144
1.2520616986239357,2.0080949800345316,-0.022463290586950513,0.4784257419671451,-1.2747017507731098
1.2469058714452126,1.899724841186707,-0.022369989228032287,0.46392329149221273,-1.3034184293162316
1.2417706623867566,1.7946828825571046,-0.02228400258462792,0.4494850444173591,-1.331120188422822
1.2366545512426248,1.6929543483765883,-0.02220392040782296,0.4351109049784379,-1.3576786357438513
1.2315563452048586,1.5945244849038644,-0.022128306007535025,0.4208009513061286,-1.3829600019956965
1.2264751854276155,1.4993784986998335,-0.02205569205544757,0.40655545046804636,-1.4068245605763017
1.2214105546393192,1.4075015111875295,-0.021984575668868318,0.3923748757258895,-1.4291259996697592
1.2163622859783028,1.3188785089537802,-0.021913412687796025,0.3782599263067257,-1.4497107423776803
1.2113305732492055,1.233494289175205,-0.021840611043485038,0.36421155002870564,-1.4684172103870483
1.2063159828226384,1.1513333994678128,-0.02176452310057612,0.35023096916600427,-1.4850750268447324
1.2013194674299474,1.072380071365508,-0.021683436835866217,0.33631970998448585,-1.4995041545623953
1.1963423821389838,0.9966181465282666,-0.021595565694253208,0.3224796364263072,-1.5115139665733617
1.1913865028365955,0.924030994665813,-0.02149903693520976,0.3087129884645987,-1.5209022476246408
1.1864540475903333,0.8546014220389395,-0.021391878249678548,0.29502242568213066,-1.5274541277313585
1.181547701317338,0.7883115692718761,-0.02127200238506356,0.28141107664015647,-1.5309409529097815
1.1766706442550185,0.7251427970816735,-0.021137189461193164,0.2678825945790038,-1.53111910431063
1.1718265848095057,0.6650755584160457,-0.020985066586744868,0.25444121990473134,-1.5277287861730953
1.1670197974593592,0.6080892554084691,-0.020813084284094157,0.24109184972635897,-1.5204928167330722
1.1622551665218541,0.5541620795391822,-0.02061848908551554,0.22784011435441115,-1.5091154765156023
1.1575382367602478,0.503270833481519,-0.020398291450191793,0.2146924600600623,-1.4932814983319287
1.1528752720431599,0.45539073339055136,-0.020149227828833965,0.20165623638316496,-1.4726553271565146
1.1482733235943947,0.41049519097123977,-0.019867715203905664,0.1887397846543155,-1.4468808421919648
1.1437403098464358,0.36855557572359743,-0.019549795647909884,0.17595252184693327,-1.4155818268711438
1.1392851106204334,0.3295409595673604,-0.01919106718689397,0.16330500994641425,-1.3783636079933086
1.1349176794427138,0.29341784898911527,-0.018786595228058138,0.15080899508178305,-1.334816479954751
1.1306491795080726,0.26014991448843006,-0.01833079550795211,0.13847739188072167,-1.284521806403852
1.1264921515011157,0.22969773419133332,-0.017817274117760514,0.12632417592008996,-1.2270620751361723
1.1224607258250097,0.20201857901503217,-0.017238601326640256,0.11436412996077722,-1.1620366937584006
1.11857089879792,0.1770662817334312,-0.01658598151761916,0.10261236814010447,-1.0890859484358055
1.1148409037246605,0.15479125230439195,-0.015848758249854433,0.09108353993848219,-1.0079262209873991
1.1112917260593946,0.13514072574314895,-0.015013656230718864,0.07979060407235536,-0.9183999890221155
1.107947841226677,0.11805935086061226,-0.014063603184216225,0.06874309055842545,-0.8205436155746229
1.1048383005274172,0.10349023200260632,-0.012975881157174319,0.05794489951121961,-0.7146729915533441
1.1019983665212483,0.09137648477627636,-0.011719197157337486,0.047392032891679245,-0.6014791913256705
1.0994720322480098,0.08166319035645131,-0.010248926957779531,0.03707139684590775,-0.4821104771468482
1.097316041761065,0.07429921239327797,-0.008498816406957843,0.02696319413818184,-0.35819330312680125
1.0956068486336832,0.06923744292220135,-0.006363732526797494,0.017052192566856257,-0.2317235823015542
1.0944553262323802,0.06642965786731736,-0.0036495057454022425,0.007363329649555259,-0.10476340267085116
