x,y,v_x,v_y,omega
2.375,32.48,0.0,3.0769230769230766,-2.4897959183673475
2.3744772482432475,31.901990060679246,-0.005502650071081423,3.0073920738216486,-2.33780780427207
2.3729837543358525,31.33693812130723,-0.010218338427809394,2.940523077462737,-2.199634508290113
2.370658842825543,30.78435372845405,-0.014254414312293278,2.876154742044436,-2.0736433664718406
2.367622946837613,30.243775841417154,-0.017702385560652643,2.8141388057123615,-1.9584297818963194
2.3639803745034866,29.714770474937083,-0.020640481114364104,2.754338736183102,-1.8527810664190998
2.3598216315267972,29.196928582693307,-0.023135760745521507,2.6966285505935095,-1.7556466499930652
2.355225377661519,28.689864151074406,-0.025245858888989958,2.640891782237016,-1.6661134288130557
2.3502600800786944,28.193212477425014,-0.027020431456527244,2.5870205719671264,-1.5833852809532218
2.344985414841781,27.706628610812935,-0.02850236051098402,2.5349148660547316,-1.5067659774285513
2.339453458322965,27.229785936519754,-0.029728760739709943,2.4844817054524717,-1.435644871816026
2.3337097028611105,26.762374888076977,-0.03073182306928692,2.435634593945147,-1.3694848731616838
2.3277939248921933,26.304101772855947,-0.0315395239719448,2.3882929346972737,-1.3078123026783584
2.3217409288707582,25.85468769905579,-0.03217622362210945,2.342381526356999,-1.2502083105740252
2.315581186309344,25.413867593485744,-0.03266317176120049,2.2978301112224457,-1.1963015896883515
2.3093413860070413,24.98138930085655,-0.033018936684086585,2.2545729690849017,-1.145762170844718
2.3030449088730163,24.55701275642175,-0.03325976998986129,2.2125485512814107,-1.0982961235463393
2.296712238561272,24.140509224775837,-0.03339991750218676,2.171699150254484,-1.0536410168634416
2.2903613173282262,23.731660598448656,-0.03345188495092405,2.131970600557974,-1.0115620206287634
2.284007855032392,23.330258750655737,-0.03342666553154264,2.093312007788533,-0.9718485475929752
2.2776655979577045,22.93610493718976,-0.03333393525464203,2.055675502379596,-0.9343113539391575
2.2713465631123952,22.549009242983217,-0.033182221011771804,2.0190160155840324,-0.8987800292630627
2.265061242796288,22.16879006934885,-0.03297904547356733,1.9832910753040438,-0.8651008183836155
2.258818783510783,21.795273658322323,-0.03273105226858826,1.9484606197120253,-0.8331347266242803
2.252627142683019,21.428293650898784,-0.03244411433945547,1.9144868268515347,-0.8027558678735791
2.2464932261687953,21.06769067627903,-0.032123427915532264,1.8813339586195474,-0.7738500210905633
2.240423009071498,20.713311969527258,-0.03177359416128071,1.8489682177149225,-0.7463133662079021
2.2344216420531238,20.365011015296055,-0.03139869024265944,1.8173576162977465,-0.7200513747943813
2.2284935450075896,20.022647215499635,-0.031002331289277867,1.7864718552434937,-0.6949778345259557
2.222642489706814,19.686085579016723,-0.030587724508357082,1.7562822129976943,-0.6710139896065274
2.2168716728090785,19.355196431683307,-0.030157716520438835,1.7267614431435179,-0.6480877818792271
2.2111837804307717,19.02985514499527,-0.029714834830160235,1.6978836798884487,-0.6261331795601299
2.205581045321643,18.709941882083783,-0.029261324213301538,1.6696243507588,-0.6050895823777575
2.200065297545864,18.395341359654644,-0.028799178689634213,1.6419600958637048,-0.5849012934698457
2.1946380094529827,18.0859426246979,-0.028330169656483654,1.6148686931546823,-0.5655170497201236
2.189300335621245,17.78163884487762,-0.02785587067759969,1.5883289891640122,-0.5468896033505998
2.184053148368281,17.48232711160523,-0.02737767935360069,1.5623208347558817,-0.5289753485508154
2.178897069348697,17.18790825488383,-0.026896836642017613,1.5368250254693987,-0.5117339877510382
2.1738324976929086,16.898286669087323,-0.02641444394522769,1.5118232460727847,-0.4951282328533211
2.168859635085121,16.61337014890693,-0.02593147824201249,1.4872980189839622,-0.4791235373410206
2.1639823605240753,16.333070242140995,-0.025408253979519357,1.4632273153943498,-0.4624815123162362
2.159203860113912,16.057301566931354,-0.024891750337991386,1.439600844707113,-0.4465690703507442
2.1545228223003243,15.785981168760621,-0.024382331910298094,1.4164033465637775,-0.4313458401167004
2.149937872604639,15.519028929329544,-0.023880296465337042,1.39362022639492,-0.4167741058906904
2.145447585567061,15.256367443529182,-0.02338588287759235,1.3712375188720418,-0.40281860507079975
2.1410504952688405,14.997921903131068,-0.02289927815630468,1.3492418537396897,-0.3894463431905786
2.136745104594463,14.74361998676023,-0.022420623679248786,1.3276204238480696,-0.3766264247436004
2.1325298933762236,14.493391755748593,-0.021950020723269948,1.3063609552218005,-0.36432989831128126
2.1284033255471213,14.247169555496157,-0.021487535372545063,1.2854516790143884,-0.352529614644892
2.1243638554135305,14.004887921994783,-0.021033202875780997,1.2648813052105985,-0.3412000964928466
2.1204099331464015,13.766483493194492,-0.020587031515048444,1.2446389979503385,-0.3303174190886248
2.1165400095785287,13.531894924915196,-0.02014900604150769,1.2247143523580282,-0.3198591003250356
2.112752540385542,13.301062811027954,-0.019719090726770916,1.2050973727708456,-0.3098039997386325
2.1090459897195695,13.073929607649283,-0.019297232072941026,1.1857784522678059,-0.3001322255154232
2.1054188333568007,12.850439561109948,-0.018883361219364278,1.1667483534094174,-0.2908250488068577
2.1018695614133853,12.6305386394761,-0.01847739607974189,1.1479981901047642,-0.2818648247145379
2.0983966806780683,12.414174467415862,-0.018079243239385902,1.1295194105293378,-0.27323491936415145
2.094998716604621,12.201296264218403,-0.017688799639008924,1.111303781022853,-0.26491964254464573
2.0916742150024126,11.99185478478557,-0.01730595406844725,1.093343370901687,-0.2569041854383636
2.088421743459257,11.785802263427986,-0.016930588491081016,1.0756305381255213,-0.24917456301242996
2.0852398925269524,11.583092360308644,-0.01656257921738987,1.0581579157622882,-0.2417175606816724
2.082127276696618,11.383680110387257,-0.01620179794402901,1.0409183991996718,-0.23452068488929212
2.0790825351880002,11.187521874728041,-0.015848112672995594,1.0239051340552117,-0.22757211728381993
2.0761043325743,10.994575294042445,-0.015501388523849921,1.0071115047405483,-0.22086067219998828
2.0731913592617337,10.80479924434643,-0.015161488450534371,0.9905311236385543,-0.21437575717737223
2.070345022410716,10.618354122368832,-0.014799952086494867,0.9720491077046068,-0.24983813438037783
2.0675638600572994,10.435410567057403,-0.014475441107362767,0.9536725271525444,-0.286627482655215
2.0648409300716115,10.255948803380427,-0.014186979794616349,0.9353986694471907,-0.32464258407430496
2.0621694794565695,10.079949561880362,-0.013933552995301052,0.9172249252903255,-0.3637839392838117
2.0595429514181642,9.907394059352129,-0.013714110566857635,0.8991487855331904,-0.4039535493515388
2.0569549916312813,9.73826398007487,-0.013527571400333165,0.8811678384379541,-0.44505469973659073
2.0543994537786405,9.572541457531194,-0.013372827048513723,0.8632797672849327,-0.48699174545937973
2.051870404435686,9.410209056548258,-0.013248744982587733,0.8454823483249336,-0.5296698965338483
2.049362127370019,9.251249755794905,-0.013154171498116644,0.8277734490787768,-0.5729950026994891
2.046869127320307,9.095646930568478,-0.013087934288330097,0.810151026988901,-0.6168733364584168
2.0443861333164106,8.943384335803586,-0.01304884470004953,0.7926131284310141,-0.6612113733818302
2.0419081015998453,8.794446089233421,-0.013035699684850794,0.7751578880970513,-0.7059155686000305
2.039430218201524,8.648816654631592,-0.013047283455374868,0.7577835287643124,-0.7508921283299681
2.036947901232137,8.506480825059366,-0.013082368853956887,0.7404883614696232,-0.7960467752231875
2.0344568029394074,8.367423706039133,-0.013139718437936078,0.7232707861117779,-0.8412845062340052
2.031952811585909,8.231630698570022,-0.013218085283099144,0.7061292925104458,-0.8865093416116537
2.029432053201167,8.09908748189578,-0.013316213503660477,0.6890624619552647,-0.931624063509656
2.0268908932623435,7.969779995927944,-0.013432838483954131,0.6720689692851051,-0.9765299425794378
2.0243259383590795,7.843694423219123,-0.01356668681356033,0.6551475855445954,-1.0211264507715838
2.021734037899974,7.720817170371443,-0.013716475913864063,0.6382971812730966,-1.0653109584055005
2.0191122859208583,7.601134848753894,-0.013880913339989963,0.6215167304905803,-1.1089784133847966
2.016458023058486,7.484634254389018,-0.014058695737614124,0.6048053154554851,-1.1520210002296025
2.013768838757634,7.371302346853973,-0.014248507429250124,0.5881621322818424,-1.1943277763665108
2.0110425737849345,7.26112622702308,-0.014449018599164165,0.5715864975170274,-1.2357842828602212
2.0082773231292133,7.154093113458181,-0.01465888304000326,0.5550778557977153,-1.276272126486966
2.0054714393757584,7.050190317228964,-0.014876735417418576,0.5386357887203554,-1.3156685297377289
2.0026235366509786,6.94940521491754,-0.015101188001316285,0.5222600250840992,-1.353845844999477
1.9997324952444986,6.8517252195290865,-0.015330826803736278,0.5059504526890877,-1.3906710287970983
1.9967974670280526,6.757137748992953,-0.01556420705358924,0.4897071319017911,-1.4260050715919903
1.9938178818048593,6.665630191895222,-0.01579984792739388,0.4735303112322177,-1.459702378233636
1.990793454739716,6.57718987003361,-0.016036226442535204,0.4574204452058038,-1.4916100937620573
1.987724195039185,6.491803997327725,-0.016271770405157357,0.44137821485615325,-1.5215673688842588
1.9846104160733065,6.409459634551066,-0.016504850288301575,0.42540455121392684,-1.5494045591315113
1.9814527471557106,6.3301436392746275,-0.016733769896917373,0.4095006622222831,-1.574942351499628
1.9782521472283334,6.2538426103243445,-0.016956755654423044,0.3936680635701541,-1.5979908123608104
1.9750099207307705,6.18054282595514,-0.017171944319923627,0.3779086140004324,-1.618348350731594
1.9717277359734404,6.110230174831809,-0.01737736891512933,0.36222455571884427,-1.6358005917620086
1.9684076463791031,6.042890078781802,-0.01757094260420898,0.3466185605970263,-1.6501191568345608
1.9650521150101916,5.978507406147372,-0.017750440226439814,0.33109378292328134,-1.6610603493081932
1.961664042861536,5.917066374417622,-0.017913477127830608,0.31565391949512145,-1.668363749271421
1.9582468014717753,5.858550440669827,-0.01805748486964918,0.3003032778500824,-1.671750727503987
1.954804270495445,5.8029421782044,-0.018179683302251715,0.28504685336494073,-1.6709228994012828
1.9513408809864898,5.750223137636581,-0.018277048370957782,0.2698904157699922,-1.6655605556809132
1.947861665280571,5.700373690639836,-0.018346274849241506,0.2548406052483964,-1.6553211309100588
1.9443723145402165,5.6533728545690245,-0.018383732943962918,0.23990503760223197,-1.6398378071705646
1.9408792452633405,5.609198096402366,-0.01838541733894287,0.22509241678364683,-1.6187184042762515
1.9373896763839282,5.567825114950473,-0.018346886654870154,0.21041265113100194,-1.59154478834046
1.9339117190668826,5.529227601276222,-0.018263190366660954,0.1958769664926944,-1.557873149510839
1.9304544820056853,5.493376979037809,-0.01812877869857534,0.18149800443797676,-1.517235675098153
1.9270281961206683,5.460242129442072,-0.017937388512129348,0.16728988604345468,-1.469144400991744
1.92364436427908,5.429789110310335,-0.017681894030906788,0.1532682100800954,-1.4130983953394864
1.920315944441879,5.401980886308419,-0.01735410425542155,0.13944993730847674,-1.348595954040642
1.917057579206412,5.376777098845601,-0.016944477170546195,0.12585308861591096,-1.2751542053128389
1.9138858922683022,5.354133920816146,-0.01644170112534481,0.11249615379941184,-1.1923394358344277
1.9108198848796785,5.334004064146079,-0.015832060860168168,0.09939707430656852,-1.0998124588570812
1.9078814862243116,5.316337035955311,-0.01509845130158857,0.08657164349099045,-0.9973940504574569
1.9050963460894277,5.3010797653077155,-0.014218813276138114,0.0740312054310804,-0.8851548361454462
1.9024950150959343,5.288177726863683,-0.013163618234317366,0.06177972555871583,-0.7635297260432744
1.9001147535675458,5.277576623256667,-0.011891766275036013,0.04981083872565508,-0.6334450337018664
1.89800238635886,5.26922446225333,-0.010343678026920995,0.03810664551999719,-0.49642207267863503
1.896219023219992,5.2630733150782945,-0.008428565540108561,0.026642272111975167,-0.35458506148840596
1.894848745192343,5.25907880225602,-0.005995413698302432,0.015405231280401655,-0.2104717567458033
1.8940195320568651,5.257191354844597,-0.002733145622517873,0.004462636208248804,-0.06656362588674941
