x,y,v_x,v_y,omega
2.375,32.48,0.0,2.051282051282051,-6.8979591836734695
2.3740454893741645,32.07357906856006,-0.009545106258356568,2.0129272631173554,-6.5838499842043054
2.3712866292753745,31.67471609577232,-0.018043494729543127,1.9757024647599981,-6.290225909574683
2.3669220678750773,31.283191276675417,-0.025602119273429244,1.9395457262090263,-6.0152755181144935
2.3611302799033997,30.89879667967607,-0.03231576044334368,1.9044002437844472,-5.757384105632602
2.3540718415922144,30.521335280556794,-0.038268622668512595,1.8702137474083083,-5.515108459470129
2.3458914105157893,30.150620106358886,-0.04353568809573503,1.8369379945707882,-5.28715537645718
2.3367194547087746,29.786473473293682,-0.04818386997441135,1.8045283360812434,-5.072363301107642
2.3266737677267204,29.42872630552714,-0.052272999846132144,1.7729433415842035,-4.869686564964895
2.3158608001303453,29.0772175238598,-0.055856676117620296,1.7421444750891493,-4.678181805698062
2.3043768328811223,28.731793495094777,-0.05898299637460709,1.7120958125610937,-4.49699622172351
2.292309014075386,28.392307534333433,-0.06169519168275823,1.6827637950523422,-4.325357379527949
2.279736277121105,28.058619453627745,-0.06403217786005247,1.65411701200456,-4.162564340047237
2.2667301557251904,27.73059515139972,-0.0660290360990922,1.6261260102757127,-4.007979910090183
2.253355508793099,27.40810623785258,-0.06771743322181935,1.598763125195662,-3.8610238569306246
2.239671166455671,27.09102969227665,-0.06912599015246182,1.5720023305636293,-3.7211669503895157
2.2257305068591426,26.779247548720416,-0.0702806058128245,1.5458191049987025,-3.5879257182012516
2.2115819720266265,26.472646606974223,-0.07120474251233559,1.5201903124632477,-3.460857818145559
2.1972695299780645,26.171118166216306,-0.07191967797328357,1.4950940951158955,-3.3395579450643713
2.1828495688696474,25.874568148974316,-0.07227993311088927,1.470406077304019,-3.2187062769896206
2.16837165708558,25.582906097830204,-0.07249918472978172,1.4462144341371042,-3.1034492333639143
2.1538626361869384,25.296034602624665,-0.072591024256634,1.4225005179182932,-2.9934598817532962
2.139346752989343,25.013859889499457,-0.07256780771931956,1.3992466133337869,-2.8884341183761912
2.1248458948680455,24.73629164054379,-0.07244077349365771,1.376435876222866,-2.7880888077930033
2.1103798027292524,24.463242825184203,-0.07222014789427482,1.3540522773729875,-2.692160096209033
2.0959662639411705,24.194629542362932,-0.07191523998654158,1.3320805508397602,-2.6004018800608617
2.0816212872601025,23.930370872643948,-0.07153452682413802,1.3105061463500447,-2.5125844137257367
2.0673592615608545,23.67038873946924,-0.071085730168342,1.289315185397088,-2.428493042077218
2.0531930999823262,23.414607778861466,-0.07057588561694324,1.2684944206806217,-2.3479270452499583
2.0391343709246628,23.16295521693508,-0.07001140495968988,1.2480311985832253,-2.270698584406921
2.025193417180611,22.915360754635984,-0.06939813248082595,1.2279134244077623,-2.196631738553028
2.0113794643479848,22.671756459182202,-0.06874139584543944,1.2081295301300516,-2.1255616235350976
1.9977007195501184,22.43207666172453,-0.06804605213322283,1.1886684444466888,-2.0573335853300794
1.9841644613848624,22.1962578607878,-0.06731652951933806,1.1695195649205992,-1.9918024605700253
1.970777121928318,21.96423863109105,-0.06655686504610327,1.150672732046887,-1.928831897998228
1.9575443615356982,21.73595953737844,-0.06577073888009642,1.132118205079204,-1.8682937352096678
1.9444711371070804,21.511363052923272,-0.06496150540608164,1.1138466394725,-1.810067425611532
1.93156176441936,21.290393482394833,-0.06413222147112402,1.0958490658118951,-1.75403951105578
1.918819975066378,21.072996888802667,-0.06328567205869688,1.0781168701097563,-1.7001031360538261
1.9062489684962154,20.859121024255288,-0.06242439364292654,1.0606417753640502,-1.648157599890601
1.8938514595872358,20.648715264290793,-0.06155069544686967,1.0434158242808629,-1.5981079433177043
1.8816297221620037,20.441730545555433,-0.06066667880545096,1.0264313630727522,-1.5498645668285005
1.869585628800155,20.238119306622913,-0.05977425481303589,1.0096810262524596,-1.503342877806485
1.857720687277126,20.037835431762808,-0.05887516041725668,0.9931577223485658,-1.4584629640961417
1.8460438008632178,19.841037229018024,-0.057893703721823446,0.974824305099282,-1.4545656500419875
1.83456065654655,19.647892857853872,-0.05693773944485554,0.9566194065422433,-1.4530791399943015
1.8232661344710097,19.458376982627865,-0.05600748131054807,0.9385393457178335,-1.4538614860220131
1.8121550852518624,19.27246498782911,-0.05510301088092357,0.9205806022697315,-1.4567746024707187
1.8012223553474502,19.09013294660768,-0.054224288163199935,0.9027398099445295,-1.4616839485712303
1.7904628103910514,18.91135759054758,-0.053371161400788236,0.8850137506564952,-1.4684582214646744
1.7798713566405109,18.736116280572396,-0.05254337610461541,0.8673993490953232,-1.4769690583572181
1.7694429606923707,18.56438697887704,-0.05174058337678543,0.8498936678582644,-1.4870907465594345
1.7591726675972699,18.396148221782063,-0.050962347574225186,0.8324939030914945,-1.4986999401985908
1.74905561750426,18.231379093410013,-0.050208153355871636,0.8151973806290198,-1.5116753824170404
1.7390870609533617,18.070059200085023,-0.049477412153111244,0.7980015526208613,-1.5258976318866009
1.7292623729280956,17.912168645358364,-0.048769468099550406,0.7809039946457428,-1.5412487924774183
1.719577065772866,17.757688005563082,-0.04808360345274694,0.7639024033070745,-1.557612244920432
1.7100268010738673,17.6065983058009,-0.04741904353723977,0.7469945943147137,-1.5748723792951527
1.7006074005966383,17.458880996263545,-0.046774961235049935,0.7301785010588456,-1.5929143271590167
1.6913148563684568,17.314517928789023,-0.0461504810467644,0.7134521736864028,-1.6116236921110147
1.6821453399894475,17.1734913335509,-0.0455446827433291,0.6968137786947912,-1.630886277550515
1.6730952112525401,17.035783795775185,-0.04495660462574334,0.6802615990623655,-1.650587810352127
1.664161026149272,16.90137823237493,-0.04438524640693716,0.6637940349401592,-1.6706136591290075
1.6553395443358583,16.770257868387425,-0.0438295717272005,0.6474096049349006,-1.6908485457002143
1.6466277361319794,16.642406213091995,-0.04328851031158861,0.631106948019399,-1.7111762483126518
1.638022789123348,16.51780703567875,-0.04276095977472335,0.6148848261130556,-1.7314792950951374
1.6295221144383445,16.396444340329182,-0.04224578707531227,0.5987421273826257,-1.751638646141687
1.621123352768865,16.278302340558767,-0.041741829619482605,0.5826778703215251,-1.7715333625342322
1.6128243802060531,16.16336543265911,-0.04124789600863679,0.5666912086750368,-1.7910402605231353
1.6046233139627955,16.051618168062724,-0.040762766423938,0.5507814372888316,-1.8100335489893675
1.596518518056834,15.943045224436904,-0.04028519263567926,0.5349479989693702,-1.828384448218437
1.5885086090311038,15.837631375294258,-0.03981389762162241,0.5191904924570926,-1.8459607879280295
1.5805924617915568,15.735361457885858,-0.039347574773847045,0.5035086816269008,-1.8626265824158634
1.5727692156473077,15.636220339118633,-0.03888488666864466,0.4879025060453314,-1.8782415806413775
1.5650382806436,15.540192879211101,-0.03842446336843149,0.47237209302998834,-1.892660789038461
1.5573993442849159,15.447263892770689,-0.03796490021841055,0.456917771374134,-1.905733964895842
1.549852378753712,15.357418106941516,-0.03750475509362866,0.4415400869175818,-1.9173050782638295
1.5423976487399553,15.270640116233388,-0.03704254504393647,0.4262398201637058,-1.9272117405879878
1.5350357200080738,15.186914333600946,-0.03657674227488128,0.41101800616069856,-1.9352845986833032
1.5277674688414504,15.106224937296687,-0.03610576939135036,0.39587595688189026,-1.9413466933172412
1.5205940925205872,15.028555812973195,-0.035627993817281135,0.3808152863530143,-1.9452127826643855
1.5135171210100418,14.953890490459816,-0.03514172128817517,0.3658379387807781,-1.9466886323636807
1.506538430051989,14.882212074588487,-0.03464518829235189,0.3509462199324982,-1.9455702760374325
1.4996602558917353,14.813503169395808,-0.034136553310185516,0.3361428319942848,-1.9416432531755554
1.4928852118941651,14.747745794987818,-0.03361388666551522,0.32143091208563224,-1.9346818356033655
1.486216307351981,14.68492129632753,-0.033075158756326085,0.3068140745172239,-1.9244482598259698
1.4796569688396337,14.625010243203214,-0.03251822636714673,0.2922964567259394,-1.9106919910533409
1.4732110645354126,14.567992320672897,-0.03194081667506409,0.2778827685772212,-1.893149056590918
1.4668829320246892,14.513846209380336,-0.03134050843216946,0.2635783443483716,-1.8715415028165598
1.4606774102194373,14.462549455331711,-0.030714709620350212,0.24938919613786392,-1.845577052918585
1.454599876197385,14.414078329057673,-0.030060630600172243,0.23532206660250105,-1.8149490743411756
1.4486562880004636,14.368407674628244,-0.029375251369042604,0.22138447769179034,-1.7793370087008111
1.4428532347699834,14.325510749831793,-0.028655280935759045,0.20758477027270972,-1.7384074770603757
1.437197996086097,14.28535906010287,-0.027897105903104225,0.19393212701653473,-1.691816355319831
1.4316986130992,14.247922190660748,-0.027096723965867334,0.18043656740466701,-1.639212224682045
1.426363975109227,14.21316764402729,-0.026249655933863605,0.16710889892989772,-1.5802417478045114
1.4212039268447227,14.18106069390457,-0.025350826711178026,0.15396060229731795,-1.5145577081978034
1.4162294040873855,14.151564271608528,-0.024394400862194434,0.14100362066309638,-1.4418306787944692
1.4114526088822266,14.124638908112097,-0.023373551189396404,0.1282500143012121,-1.361765540109155
1.406887240959609,14.10024276322487,-0.022280128036777553,0.11571143457106658,-1.2741242990477137
1.4025488100257233,14.078331782811894,-0.02110418130208146,0.10339836955869405,-1.1787567459445965
1.3984550654682795,14.05886003300279,-0.019833264272354528,0.09131912853234082,-1.0756401809388532
1.3946265975438081,14.04178026188627,-0.018451414972359664,0.07947858263287688,-0.9649282864856101
1.391087690128836,14.027044723908318,-0.016937659177362525,0.06787679714663378,-0.8470065081220338
1.3878675455070564,14.014606251923876,-0.015263787040432792,0.05650792269778682,-0.7225461838970163
1.3850020722097758,14.004419447992845,-0.013390945932373688,0.04536011661251431,-0.5925417669183335
1.3825365780609777,13.99644164315826,-0.011263995555607966,0.03441793173332858,-0.4583063346420937
1.3805301223639925,13.99063285845256,-0.008800561414242238,0.023669915323664754,-0.3213951312198965
1.3790637170202849,13.986953007721233,-0.0058634920228353045,0.013128591989589072,-0.183432485495109
1.378261839217644,13.985350256689372,-0.0021552860035718856,0.002898918329016212,-0.04585333568834357
