x,y,v_x,v_y,omega
2.375,32.48,0.0,2.769230769230769,-4.448979591836735
2.3742735869674845,31.986608587765264,-0.008071255916840993,2.7128960333773815,-4.212797162278792
2.372185275042993,31.503188648349745,-0.015132209910842789,2.658436626795026,-3.9950074146515906
2.368906174085888,31.02941194733324,-0.021302245168100087,2.6057489400550407,-3.793723828521578
2.3645872851599314,30.56496817900872,-0.026685409564749733,2.554737374661854,-3.607290930821228
2.359362064533094,30.10956359977656,-0.03137259740011152,2.505313505695468,-3.434251841062993
2.353348625937381,29.662919802031517,-0.035443386996697114,2.457395358138361,-3.273320945263871
2.3466516376206554,29.224772609794766,-0.038967594300255294,2.41090677782553,-3.12336079691319
2.339363960945222,28.79487108043734,-0.04200659098233493,2.365776881701436,-2.983362518393187
2.331568069380537,28.37297659933548,-0.04461442640305375,2.3219395749858975,-2.8524291140097273
2.323337280304947,27.958862056323987,-0.04683878554794977,2.2793331251417857,-2.7297612148995465
2.3147368267708317,27.552311094469854,-0.04872180927555389,2.237899784348586,-2.614644863045895
2.3058247920642114,27.15311742305198,-0.050300798575779855,2.1975854536277653,-2.506441011353893
2.296652926320695,26.76108418776255,-0.0516088207966272,2.1583393829215063,-2.404576472933546
2.287267361500639,26.37602339208734,-0.05267523275955124,2.1201139023585975,-2.3085360982646517
2.277709238563647,25.997755364612246,-0.053526133207026504,2.082864180697981,-2.2178559959748743
2.268015258625312,25.62610826766916,-0.05418475499669405,2.0465480075585303,-2.1321176432600155
2.2582181681547766,25.26091764329927,-0.05467180578703393,2.0111255965513775,-2.050942756850764
2.248347186821696,24.90202599299309,-0.05500576458052404,1.9765594068506265,-1.9739888159343104
2.238428385378223,24.54928238807872,-0.05520314034695716,1.9428139810868261,-1.900945145403508
2.2284850199271413,24.202542107984424,-0.05527869799839665,1.9098557977386532,-1.8315294818916596
2.2185378280498904,23.861666303908112,-0.05524565619327772,1.877653136442595,-1.7654849567855224
2.208605291522083,23.52652168569209,-0.05511586078236309,1.8461759548465335,-1.7025774402164655
2.1987038697080816,23.1969802299332,-0.05489993715098546,1.8153957758078056,-1.6425931982515167
2.1888482071827235,22.872918907560845,-0.05460742424187874,1.7852855838850143,-1.585336822418788
2.1790513186628195,22.554219429293198,-0.05424689264594584,1.7558197301999952,-1.530629396530211
2.169324753931578,22.240768007538204,-0.05382604881229437,1.7269738448554768,-1.478306870691926
2.159678745095534,21.932455133444286,-0.05335182714374783,1.6987247561880334,-1.4282186165691237
2.150122338217458,21.629175367927807,-0.05283047150154029,1.671050416217284,-1.3802261415208825
2.140663511113062,21.330827145613192,-0.0522676074361945,1.6439298317229256,-1.334201942243161
2.131309278878154,21.037312590718283,-0.05166830628500721,1.6173430004427152,-1.2900284811385359
2.1220657885212155,20.748537344003996,-0.05103714212541741,1.5912708519382666,-1.247597270839149
2.1129384039099777,20.464410399984512,-0.05037824244389374,1.5656951927226708,-1.2068080542025132
2.103931782095856,20.184843953663787,-0.0496953332685721,1.540598655285363,-1.1675680687265737
2.0950499419540676,19.90975325612635,-0.04899177941796071,1.5159646506861852,-1.1297913857310655
2.086296325967274,19.639056478366534,-0.048270620435304196,1.4917773244228785,-1.0933983158605607
2.0776775787119846,19.372676585074764,-0.04749323795680161,1.4679992677078901,-1.0566447526061704
2.06919898992087,19.11053910571955,-0.04671330416669106,1.4446393917944973,-1.0214432302707195
2.0608608705476783,18.852570023599803,-0.04593246664655128,1.4216837428693423,-0.9877107973559617
2.052663251878368,18.59869778056896,-0.04515218523467324,1.399118957473405,-0.9553697716915153
2.044605917617936,18.348853173619837,-0.04437375099234922,1.3769322308501428,-0.9243473521184072
2.036688432738506,18.10296925698463,-0.04359830322353865,1.3551112873188436,-0.8945752626259347
2.0289101694201963,17.86098124939899,-0.04282684475768144,1.3336443525215997,-0.8659894259137302
2.021270330380674,17.622826446205565,-0.04206025568145598,1.3125201274053226,-0.838529663662469
2.0137679698577635,17.38844413599601,-0.04129930568421705,1.2917277638119642,-0.8121394210732038
2.0064020124814848,17.15777552151247,-0.040544665163323675,1.2712568415607353,-0.7867655134811218
1.9991712702470528,16.930763644549586,-0.03979691521925377,1.251097346915722,-0.7623578930682868
1.9920744577782779,16.70735331461648,-0.03905655665602098,1.2312396523410194,-0.7388694338948847
1.9851102060511616,16.48749104113498,-0.038324018089716465,1.211674497453409,-0.7162557336424319
1.9782770747299765,16.27112496896609,-0.037599663256784495,1.192392971089798,-0.694474930617801
1.9715735632525309,16.058204817070823,-0.03688379760372265,1.1733864944131713,-0.6734875347058926
1.9649981207873952,15.848681820124828,-0.03617667423111659,1.1546468049867713,-0.6532562710832298
1.9585491551734524,15.642508672918371,-0.035478499257137495,1.136165941751645,-0.6337459356163083
1.9522250409410247,15.439639477384432,-0.034789436658727246,1.1179362308476615,-0.6149232609686527
1.9460241265039082,15.240029692108106,-0.03410961264256674,1.0999502722226286,-0.596756792530474
1.9399447406027543,15.043636084180022,-0.03343911959247503,1.0822009269782866,-0.5792167733657201
1.933985198072278,14.850416683265458,-0.03277801963504103,1.064681305405746,-0.5622750374441389
1.9281438049976365,14.660330737768962,-0.0321263478609745,1.0473847556664224,-0.5459049104916135
1.9224188633189252,14.473338672981992,-0.03148411523581825,1.030304853077703,-0.5300811178512409
1.9168086749369806,14.289402051108102,-0.030851311230234015,1.0134353899655177,-0.5147796988010961
1.9113115453685283,14.108483533066824,-0.030227906197013467,0.9967703660486747,-0.49997792682295744
1.9059304930194712,13.930769179009026,-0.0295615643480667,0.9778335679268679,-0.5346614152952227
1.900665425074488,13.7564540116846,-0.02893919059618672,0.9590016245667636,-0.5706091650938317
1.895508551807199,13.585519393040425,-0.02835940126258132,0.940271915924059,-0.607716103803979
1.8904523344587452,13.417947147257628,-0.027820791498017496,0.9216419261070008,-0.6458786862591348
1.8854894887587879,13.253719542242735,-0.02732193850150693,0.9031092407251563,-0.6849946660259068
1.880612987898548,13.09281927156293,-0.026861404390048426,0.8846715446060036,-0.7249628681635256
1.8758160650168736,12.935229436759208,-0.026437738739667246,0.8663266198798114,-0.7656829622649695
1.8710922152569172,12.78093352997077,-0.02604948081540406,0.84807234443618,-0.8070552347637672
1.866435197448047,12.629915416803232,-0.025695161505374584,0.8299066907586887,-0.8489803594593462
1.8618390354651264,12.482159319371686,-0.02537330497152164,0.8118277251473922,-0.8913591651739182
1.8572980193152424,12.337649799447597,-0.02508243002718979,0.7938336073424694,-0.9340923994047555
1.8528067060003723,12.196371741635815,-0.024821051249143737,0.7759225905662237,-0.9770804867766268
1.8483599202033305,12.058310336504412,-0.024587679829098562,0.7580930220049098,-1.0202232810293583
1.8439527548436634,11.923451063585876,-0.02438082416720429,0.7403433437566098,-1.0634198091941114
1.8395805715499671,11.791779674162882,-0.02419899020719822,0.7226720942766663,-1.1065680065180443
1.8352390010954127,11.663282173745753,-0.024040681510073315,0.7050779103581135,-1.149564440589522
1.8309239438440994,11.537944804141311,-0.023904399060072884,0.6875595296912259,-1.1923040229938147
1.8266315702572715,11.415754025004254,-0.023788640793571104,0.6701157940538628,-1.2346797066911164
1.8223583215104397,11.296696494752048,-0.023691900837891373,0.6527456531928642,-1.2765821671535398
1.8181009102751324,11.180759050712705,-0.023612668443300705,0.6354481694665182,-1.3178994651243414
1.8138563217223833,11.067928688361086,-0.023549426587243374,0.6182225233292608,-1.3585166886700317
1.8096218148092564,10.958192539483726,-0.0235006502252787,0.6010680197525019,-1.39831557198347
1.8053949239147526,10.851537849093898,-0.023464804158096535,0.5839840956900377,-1.4371740881632926
1.8011734608974752,10.747951950897608,-0.02344034047831998,0.5669703287131889,-1.4749660129425664
1.7969555176545233,10.647422241087032,-0.023425695554477818,0.5500264469598947,-1.5115604560690419
1.7927394692694012,10.549936150209898,-0.023419286502434643,0.5331523405638259,-1.546821356754232
1.7885239778463897,10.455481112831247,-0.023419507086584378,0.5163480747545083,-1.580606939314735
1.784307997140028,10.364044534667038,-0.02342472298410075,0.49961390484782175,-1.6127691248365688
1.7800907781012794,10.275613756826676,-0.02343326633532875,0.4829502933784015,-1.6431528944170397
1.7758718754768386,10.190176016753068,-0.023443429491790107,0.4663579296616852,-1.6715955993020941
1.7716511556151766,10.107718405393275,-0.02345345786001238,0.44983775211377447,-1.697926213074792
1.7674288056526013,10.028227820069873,-0.023461541724155908,0.4333909737018175,-1.7219645210135959
1.7632053442752762,9.951690912451589,-0.023465806912789978,0.41701911094578087,-1.7435202419021638
1.7589816342792113,9.87809403094159,-0.02346430415459849,0.4007240169431007,-1.7623920780437472
1.7547588971803827,9.80742315671224,-0.023454996943498698,0.38450791893857494,-1.7783666901702135
1.7505387301620607,9.73966383251695,-0.02343574770452151,0.36837346100908347,-1.7912175955653222
1.7463231256871965,9.674801083303848,-0.02340430201619244,0.3523237524698245,-1.8007039903724085
1.7421144941516846,9.612819327545292,-0.023358270600606162,0.33636242262524574,-1.8065695012024114
1.7379156900114692,9.55370227808698,-0.023295108735121303,0.3204936824671229,-1.808540877485113
1.7337300418855746,9.497432831219488,-0.023212092663708484,0.3047223938383517,-1.8063266455073042
1.7295613872224507,9.443992942598587,-0.0231062924821109,0.2890541463938862,-1.7996157591945332
1.725414112224887,9.393363488612678,-0.02297454082415451,0.2734953423384373,-1.7880763035026268
1.721293197869079,9.345524111854264,-0.02281339646259881,0.25805328831060886,-1.7713543368114204
1.7172042730418688,9.300453049556637,-0.022619101617515413,0.24273629277412812,-1.7490730033234256
1.7131536760816375,9.25812694429774,-0.02238753127394481,0.22755376565808527,-1.7208321114519254
1.7091485263831423,9.218520637088101,-0.022114132042668995,0.21251631444901525,-1.6862084685108318
1.7051968082802098,9.181606944355075,-0.02179384687880194,0.19763582702907584,-1.6447573983080719
1.7013074702598256,9.147356422614234,-0.021421020014354072,0.1829255256469498,-1.596016063756143
1.697490543862635,9.115737128216164,-0.02098927328776293,0.1683999676649468,-1.5395094938347873
1.6937572886770325,9.086714385073329,-0.020491339885601204,0.1540749561443493,-1.4747605997503694
1.690120373110073,9.060250581482325,-0.019918833080616902,0.13996730597792068,-1.401305983615055
1.6865941058887286,9.036305028933374,-0.019261913823207185,0.12609438901044762,-1.3187199992614282
1.6831947417496544,9.014833931804052,-0.018508798833173676,0.11247335687091313,-1.2266502591731705
1.679940898480202,8.995790536684098,-0.017645015271853,0.09911992223968707,-1.1248683699385493
1.6768541444461387,8.979125550390318,-0.016652251773294116,0.08604659213563999,-1.0133395347357508
1.67395985079338,8.964787926120607,-0.015506566590692307,0.07326034419448231,-0.892312505704073
1.6712884588078298,8.95272609317307,-0.014175566582086973,0.060760021889284394,-0.7624248657609669
1.6688774079178388,8.942889598427826,-0.01261388775114852,0.048534364168995855,-0.6248045762662235
1.6667741553015185,8.935230852843535,-0.010755585763519104,0.03656280898980225,-0.48112548548282585
1.6650411906110034,8.92970608685081,-0.008499577464427576,0.02482347981826484,-0.333548319677177
1.6637656186045848,8.92627326751073,-0.005673444829111956,0.013318957293756054,-0.18446986828772116
1.6630849540114683,8.924879239560365,-0.001889495094405674,0.002170242154732882,-0.03605351327651704
