x,y,v_x,v_y,omega
2.375,32.48,0.0,3.333333333333333,-7.755102040816326
2.3724262414567803,31.72419764647529,-0.022380509071474066,3.238861045142367,-7.145624803242345
2.365162918600797,30.98955311552948,-0.04077882011099315,3.149352267429927,-6.60873743636636
2.3540469251066614,30.27497427057364,-0.05588199288148815,3.0643768191425758,-6.133311428241986
2.339772023168236,29.579461633501413,-0.06824758919177494,2.9835591553985292,-5.710238190414759
2.322915502402949,28.902096919202574,-0.07833085224550501,2.9065687950261565,-5.332008981279833
2.303959321269338,28.242033525352213,-0.0865055054380657,2.83311289062916,-4.992393327861061
2.2833070057606246,27.598488550139667,-0.09307984681162018,2.762930372088623,-4.686190167321632
2.261297251090921,26.970736021925514,-0.098309324229279,2.6957872645561785,-4.409033396744267
2.2382149376941745,26.358101103382953,-0.102406444438083,2.631472896683474,-4.157238613877395
2.2143001029754514,25.759955089021403,-0.10554864007255127,2.5697967934169723,-3.9276813721094395
2.1897552852609707,25.175711056006968,-0.10788455744467072,2.510586102360725,-3.7176997749511647
2.164751563204383,24.604820058485842,-0.10953911261261505,2.4536834413012274,-3.5250160298891617
2.1394335436190506,24.046767778294168,-0.11061757943375404,2.398945082104649,-3.3476728859204155
2.1139234971458625,23.50107156213687,-0.11120891163744609,2.3462394062196736,-3.18398183869677
2.0883247999797256,22.967277788523802,-0.11138845502461314,2.295445581720029,-3.0324807008439976
2.062724807948257,22.44495951801032,-0.11122017133598514,2.2464524227450307,-2.8918986709680947
2.0371972643012173,21.933714388347646,-0.11075846907305709,2.199157400408659,-2.7611274409839917
2.0118043229671856,21.433162722544296,-0.1100497164402602,2.1534657804900528,-2.639197191679879
1.9865982535308837,20.94294582296633,-0.10913349604932089,2.1092898680139913,-2.525256565276516
1.9616228818550583,20.462724428751255,-0.10804364895785805,2.066548342551894,-2.4185558888849528
1.9369148104148637,19.99217731719387,-0.10680914617426826,2.0251656709905608,-2.3184330672129247
1.912504454496375,19.53100003254534,-0.10545481833432907,1.9850715868227733,-2.2243016762465624
1.8884169240241202,19.07890372797246,-0.10400196838092925,1.9462006268544232,-2.135640879126295
1.8646727756082602,18.635614108348292,-0.10246888740915847,1.9084917177035554,-2.0519868564506085
1.8412886551935288,18.20087046316065,-0.10087129011024525,1.8718878056672592,-1.9729254998757737
1.818277848256284,17.774424780189932,-0.09922268325710075,1.8363355245129234,-1.8980861632596286
1.7956507516811768,17.356040931766906,-0.09753467826556964,1.801784896556843,-1.827136302122846
1.7734152791350577,16.945493926410883,-0.09581725691807609,1.7681890630607402,-1.759776861725136
1.751577209847533,16.542569219497636,-0.09407899775605037,1.735504040532745,-1.6957382980158606
1.7301404891291157,16.147062077338088,-0.09232726936062305,1.703688499985055,-1.6347771352420974
1.7091074876483403,15.758776989681657,-0.09056839568959678,1.6727035665926007,-1.5766729799637695
1.6884792253997012,15.377527126207688,-0.08880779777683206,1.6425126375288712,-1.5212259243298498
1.6682555653853366,15.003133833047595,-0.0870501153915558,1.6130812160371526,-1.4682542822619167
1.6484353812731705,14.635426165799146,-0.08529931167075681,1.5843767600363212,-1.4175926111089059
1.6290167026567537,14.27424045586178,-0.08355876325460825,1.556368543766864,-1.3690899787289237
1.6099968410062446,13.919419907245128,-0.08183133805416476,1.5290275311605417,-1.322608442100353
1.5913724989485587,13.570814221288042,-0.08011946244745304,1.502326259770645,-1.2780217086903216
1.573139865133524,13.228279246977642,-0.07842517942241287,1.4762387342328442,-1.2352139560956807
1.5553250909937677,12.891681792826905,-0.07648590005372864,1.4506956496866181,-1.1864773823348385
1.537951268908853,12.56089380915354,-0.07459081372813928,1.4257215996469867,-1.1402122395745724
1.5210082301321828,12.235786996897243,-0.07273995824290401,1.4012941591034287,-1.096261365807529
1.5044858188632173,11.916238082960298,-0.07093318322636201,1.377392049043934,-1.054479493584323
1.4883739320492377,11.602128565089508,-0.0691701803734602,1.3539950628759878,-1.0147322077898413
1.4726625527106776,11.293344473031446,-0.06745050952706294,1.331083998498477,-0.9768950068555288
1.4573417776803543,10.98977614471956,-0.06577362117140073,1.3086405955179126,-0.940852455966086
1.4424018405258487,10.69131801636225,-0.06413887582429925,1.28664747715436,-0.9064974222119743
1.4278331303201663,10.397868425400226,-0.06254556074685183,1.265088096428442,-0.8737303828472739
1.4136262068361969,10.109329425390882,-0.06099290433114359,1.2439466862615072,-0.8424587988623056
1.3997718126632623,9.825606611957731,-0.05948008847698153,1.2232082131571942,-0.8125965469944088
1.386260882677413,9.546608959015703,-0.05800625922605644,1.2028583341647783,-0.7840634040973914
1.3730845512395855,9.272248664548624,-0.05657053588548806,1.1828833568533055,-0.7567845784865745
1.3602341574459955,9.002441005274619,-0.055172018841380725,1.1632702020510794,-0.7306902834858084
1.3477012487120872,8.737104199589037,-0.05380979623608217,1.1440063691278983,-0.7057153489370749
1.3354775829340781,8.476159278223271,-0.052482949659649426,1.1250799036178878,-0.6817988669023471
1.323555129439824,8.219529962102317,-0.05119055898603858,1.1064793669991064,-0.6588838681998538
1.3119260689126915,7.967142546924226,-0.04993170646728792,1.0881938084625649,-0.636917026780167
1.300582792447786,7.718925794021448,-0.048705480184065134,1.0702127385181026,-0.6158483892679558
1.2895178998787409,7.474810827097606,-0.04751097693806504,1.0525261042979015,-0.5956311272782719
1.2787241974948953,7.234731034463849,-0.04634730466059178,1.0351242664304343,-0.5762213103666044
1.2681946952526977,6.998621976426971,-0.04521358440199599,1.0179979773685064,-0.5575776976937016
1.2579226035712685,6.766421297507133,-0.04410895195825681,1.0011383610648643,-0.539661546682877
1.2479013297899406,6.538068643186435,-0.04303255918372418,0.9845368938977271,-0.522436437122226
1.238134048120296,6.3136203304899965,-0.041900324900140944,0.9671875643321851,-0.5260602231159612
1.2286219478290867,6.0931474179209495,-0.04081359067559162,0.9499681971377744,-0.5321806275078472
1.2193546114580491,5.876620468182775,-0.03977194298560467,0.9328748440637299,-0.5406599098013135
1.21032172931434,5.664010932779888,-0.03877485826403919,0.9159037246570246,-0.551364981193547
1.201513123530142,5.455291114365217,-0.03782171377246522,0.8990512180792455,-0.5641670663495044
1.1929187697282668,5.250434130898032,-0.036911797548187616,0.8823138555484402,-0.5789413801416686
1.1845288164974646,5.0494138814724,-0.036044317502266485,0.8656883133700851,-0.5955668178793481
1.1763336028654172,4.852205013684433,-0.03521840973292702,0.8491714065252755,-0.6139256576275647
1.1683236739429932,4.658782892413409,-0.034433146114239054,0.8327600827879756,-0.6339032732811822
1.1604897949001496,4.469123569897917,-0.0336875412148358,0.8164514173467268,-0.6553878571154511
1.152822963421824,4.283203756993437,-0.03298055859669042,0.8002426079096319,-0.6782701505800299
1.1453144207811576,4.101000795502234,-0.03231111653953963,0.7841309702747593,-0.7024431821401328
1.1379556616573847,3.922492631470231,-0.03167809323239869,0.7681139343513628,-0.7278020109959706
1.1307384428166412,3.7476577893484624,-0.031080331469718274,0.7521890406205466,-0.7542434755302441
1.1236547907657268,3.576475346918965,-0.030516642886058563,0.736353937027247,-0.7816659453431382
1.1166970084814682,3.4089249108864834,-0.029985811759668177,0.7206063762986948,-0.8099690757350061
1.1098576813117234,3.244986593038025,-0.029486598412025746,0.7049442136879118,-0.8390535634885491
1.1031296821382124,3.0846409868723192,-0.029017742227200275,0.6893654051443233,-0.8688209027845555
1.0965061758862291,2.9278691446002334,-0.02857796431178405,0.6738680059172882,-0.8991731400577918
1.0899806234618652,2.7746525544154785,-0.02816596981311948,0.658450169602312,-0.9300126265620046
1.0835467851936433,2.6249731179321536,-0.027780449910549176,0.6431101476439796,-0.9612417673646316
1.077198723852415,2.4788131276819527,-0.027420083491436285,0.6278462893142968,-0.9927627654321071
1.0709308073210195,2.336155244558931,-0.027083538520697562,0.6126570421902264,-1.024477359394824
1.0647377109835432,2.196982475093673,-0.026769473109531698,0.5975409531598552,-1.0562865534960884
1.0586144199030716,2.0612781484311036,-0.026476536285873847,0.5824966699929149,-1.0880903381308573
1.052556230856626,1.9290258928772985,-0.02620336846582594,0.5675229435184302,-1.119787399266784
1.0465587542965422,1.8002096118697573,-0.025948601621859323,0.5526186304602035,-1.1512748149111476
1.0406179163089382,1.6748134592130022,-0.025710859139915592,0.5377826969898262,-1.1824477366417618
1.0347299606421847,1.5528218134064566,-0.025488755353593014,0.5230142230670948,-1.2131990540571735
1.028891450881497,1.4342192508740723,-0.025280894739342752,0.5083124076493045,-1.2434190398209517
1.0230992728499986,1.3189905178850303,-0.025085870751948902,0.4936765748641063,-1.2729949727765995
1.0173506373219618,1.2071205009312536,-0.0249022642744573,0.47910618125569504,-1.3018107363943612
1.0116430831405263,1.0985941953002474,-0.02472864165106947,0.46460082423130844,-1.3297463895808075
1.0059744808401512,0.9933966715503608,-0.02456355226523655,0.4501602518546486,-1.3566777066401348
1.00034303688356,0.8915130395592286,-0.02440552561816559,0.4357843741551912,-1.3824756829286915
0.9947472986341392,0.7929284097743938,-0.024253067855058996,0.42147327614772495,-1.4070060025010651
0.9891861601978955,0.6976278512471161,-0.02410465767749503,0.4072272327851306,-1.4301284638221445
0.9836588692844066,0.6055963459753748,-0.023958741570235118,0.39304672609957747,-1.4516963594375878
0.9781650352540241,0.5168187390192749,-0.023813728259178678,0.3789324648230435,-1.4715558053886904
0.9727046385392728,0.4312796837806516,-0.023667982303875918,0.36488540681718334,-1.489545016176206
0.9672780416523834,0.34896358175795683,-0.023519816712553862,0.3509067846844853,-1.505493521293291
0.9618860020187514,0.2698545159969896,-0.023367484449463523,0.33699813497612474,-1.5192213198650795
0.9565296869085473,0.1939361773574504,-0.023209168682746466,0.32316133145462916,-1.5305379709029605
0.9512106907766258,0.12119178260581265,-0.023042971594831402,0.3093986229074542,-1.5392416183244362
0.9459310553655509,0.051603983227508365,-0.022866901544950403,0.29571267603430745,-1.5451179525210093
0.9406932929796787,-0.014845236269088957,-0.022678858332199285,0.28210662393608105,-1.5479391143343966
0.9355004134022908,-0.07817467190224647,-0.022476616253783218,0.268584120700074,-1.5474625534873685
0.9303559550063347,-0.13840402706785682,-0.022257804580617917,0.2551494024791662,-1.5434298627680736
0.9252640207078207,-0.19555405420811667,-0.022019884971677926,0.2418073552622331,-1.535565622974682
0.9202293195376186,-0.24964671281770734,-0.021760125203992127,0.2285635891690054,-1.5235763138037293
0.915257214775216,-0.30070534519771286,-0.021475568382116648,0.21542451848322183,-1.507149375426353
0.910353779817354,-0.34875487107022707,-0.021162996468858396,0.20239744562560513,-1.4859525486532394
0.9055258632780092,-0.3938220015678411,-0.020818886481964928,0.1894906456580072,-1.4596336843907625
0.9007811652866482,-0.4359354720397022,-0.02043935692117528,0.17671344540163822,-1.427821304135459
0.8961283276546361,-0.4751262913136358,-0.020020100748495504,0.16407628741518035,-1.3901263245373814
0.8915770416548878,-0.5114280021480013,-0.019556299249315155,0.15159076331844376,-1.346145546779621
0.8871381788357602,-0.5448769430666047,-0.01904250787353295,0.1392695924955109,-1.295467776240862
0.8828239529402506,-0.5755124948764845,-0.01847249991350586,0.1271265101990772,-1.2376838026240513
0.8786481252333902,-0.6033772850257435,-0.01783904536354103,0.11517601283797507,-1.1724019532359016
0.8746262723342633,-0.6285173086392533,-0.017133588541910102,0.10343288814908172,-1.0992715238338162
0.8707761465625079,-0.6509819060923121,-0.01634576599509226,0.09191143752967736,-1.0180170069361585
0.8671181762743574,-0.670823514540885,-0.015462671293172298,0.08062428811006968,-0.928486405642387
0.8636761814195586,-0.6880970905296167,-0.014467718748556204,0.06958072048756817,-0.8307163793760499
0.8604784234572682,-0.702859098034601,-0.013338872227881438,0.05878456216449138,-0.7250141501406785
0.8575591792647779,-0.715166005160988,-0.01204585988073065,0.0482320215432028,-0.612048694455963
0.8549611507765866,-0.7250723976015223,-0.010545692190496728,0.03791052141796085,-0.49292910222141617
0.852739278656967,-0.7326292055068109,-0.008774934936630114,0.027800851671508003,-0.3692262027078877
0.8509672567936581,-0.7378833580644084,-0.006633950831273487,0.017887431438005263,-0.2428737938643085
0.8497509543187671,-0.7408822760049105,-0.0039425924286487155,0.008190115870733157,-0.11588865474272023
