x,y,v_x,v_y,omega
2.375,32.48,0.0,2.6666666666666665,-5.183673469387755
2.3739911733840087,31.95237728602741,-0.010088266159913383,2.6095604730591986,-4.891202847435239
2.3710976771414107,31.43597011276656,-0.01884669626606375,2.554511259549269,-4.623101128508367
2.366568824351543,30.930379477273284,-0.026441831632613773,2.5013950953835025,-4.376701361750605
2.360622894903196,30.43523009413985,-0.033017462850857764,2.4500987359508453,-4.149685263760243
2.3534513397671533,29.950168384871706,-0.038698088509568,2.400518356730621,-3.940030791158303
2.3452223522321676,29.474860700978926,-0.04359178684029257,2.3525584821971592,-3.745968619688555
2.336083912385097,29.0089917454507,-0.04779261163040972,2.306131073085093,-3.5659458378806854
2.3261663912048705,28.55226316380831,-0.05138260017185759,2.26115474333884,-3.3985955201122926
2.3155847848887072,28.1043922810656,-0.05443346298977536,2.217554084088229,-3.2427111177513446
2.304440637471706,27.66511096499638,-0.05700801118023323,2.1752590766039996,-3.097224819054846
2.292823699719034,27.23416459936107,-0.05916136634649044,2.134204579749089,-2.9611891939214487
2.280813364123432,26.81131115336474,-0.06094198960952653,2.0943298802142185,-2.8337615696282583
2.268479909219348,26.396320335743276,-0.06239255943131646,2.055578296000431,-2.7141906865935086
2.2558855810141263,25.988972823610396,-0.06355072262090145,2.0178968253283416,-2.601805265169021
2.2430855348931917,25.589059557625617,-0.06444973858844172,1.9812358345194685,-2.496004180127805
2.2301286576903228,25.196381096224826,-0.06511903344024765,1.9455487794884156,-2.396247992402872
2.217058286577086,24.810747022639397,-0.06558467769212212,1.9107919563658606,-2.302051630455115
2.2039128388995026,24.431975399254117,-0.06586979908370881,1.8769242774869526,-2.212978048483799
2.190726364981343,24.059892264549134,-0.06599494009788737,1.843907069562881,-2.1286327171596633
2.177529034147096,23.69433116845964,-0.06597836824458243,1.811703891332042,-2.048658825920671
2.164347562733317,23.3351327424882,-0.06583634589320968,1.7802803683823925,-1.972733095116633
2.1512055916058554,22.9821443013335,-0.06558336538140438,1.749604043164597,-1.9005621122055345
2.1381240196428015,22.63521947316811,-0.06523235424913396,1.7196442384893127,-1.83187911941448
2.1251212987464507,22.294217856016022,-0.06479485471437825,1.6903719330315594,-1.7664411912792457
2.11221369518569,21.959004697957,-0.06428118089322794,1.6617596475586556,-1.7040267496674701
2.099415521421119,21.629450599124922,-0.06370055675247918,1.6337813407621062,-1.644433371593042
2.0867393420109166,21.30543123367739,-0.0630612373495461,1.6064123137132513,-1.5874758516033551
2.0741961567210727,20.986827090097904,-0.06237061554889426,1.5796291220816125,-1.5329844859780697
2.0617955635566956,20.673523228354036,-0.06163531609487594,1.553409495357069,-1.4808035505901007
2.0495459040813557,20.365409052577824,-0.060861278658520625,1.5277322624050147,-1.4307899481877273
2.0374543930902194,20.06237809806135,-0.060053831252844414,1.5025772827597386,-1.382812004176679
2.025527234442808,19.76432783147265,-0.05921775522127035,1.4779253831272887,-1.3367483928081734
2.013781634629428,19.47116291973184,-0.05823824291253107,1.4537237342808358,-1.2889149076556083
2.002232425314959,19.182791397391668,-0.057253850232157774,1.429991489120837,-1.2432579088241953
1.9908803271683815,18.89912105739544,-0.05626713123361663,1.406711910841443,-1.199652639039307
1.979725580641528,18.62006296339836,-0.055280334034919984,1.383869029129381,-1.1579828477802776
1.968768003876073,18.345531300908668,-0.05429543361962859,1.3614475957675198,-1.1181401189212778
1.9580070444081428,18.075443236999682,-0.05331416105967384,1.3394330433223725,-1.0800232586277883
1.9474418253451733,17.809718788001042,-0.052338029570019824,1.317811446664017,-1.0435377374808756
1.9370711866126369,17.548280694625582,-0.051368357755343604,1.2965694870905633,-1.0085951814664227
1.9268937218005513,17.291054304031483,-0.050406290365514014,1.2756944188504031,-0.9751129070512942
1.916907811080119,17.037967458359006,-0.049452816838807805,1.255174037874367,-0.9430134960835884
1.907111650608362,16.788950389316888,-0.04850878787876216,1.2349966525468425,-0.9122244067086323
1.897503278792318,16.54393561842619,-0.04757493028167619,1.2151510563601027,-0.8826776168939602
1.8880805997435017,16.302857862559204,-0.04665186020648769,1.1956265023097554,-0.8543092975118614
1.8788414042171941,16.065653944438075,-0.04574009505658818,1.1764126789015306,-0.8270595122429439
1.8697833882991663,15.83226270778285,-0.044840064123690834,1.1574996876507166,-0.8008719418435576
1.8609041700741193,15.602624936821218,-0.043952118126779,1.1388780219655805,-0.7756936305681577
1.8522013044850278,15.376683279893143,-0.043076537764134386,1.120538547315167,-0.7514747527585512
1.8436722965702934,15.154382176902619,-0.04221354138321064,1.1024724825900838,-0.7281683978087129
1.835314613245827,14.935667790386379,-0.0413632918614532,1.0846713825723224,-0.7057303718893421
1.8271256937815945,14.720487939985453,-0.040525902780873015,1.0671271214369191,-0.6841190149730486
1.8191029591064982,14.50879204012032,-0.039701443970089505,1.049831877214408,-0.6632950318411708
1.8112438200615373,14.300531040684017,-0.03888994647951898,1.0327781171486066,-0.6432213358786557
1.8035456847087583,14.09565737058022,-0.03809140704826934,1.0159585838893692,-0.6238629045758333
1.7960059647924318,13.894124883944823,-0.03730579211499853,0.9993662824645916,-0.6051866457567595
1.7886220814389913,13.695888808900364,-0.03653304141940493,0.9829944679799908,-0.5871612736443772
1.7813978925033125,13.501093210480288,-0.03570884793738426,0.9649615162207617,-0.6071285284561883
1.7743344170827506,13.309892867709252,-0.03492590626823288,0.9470419114896108,-0.6288628446767015
1.7674234918745007,13.122265418940255,-0.03418334581426859,0.9292325762003574,-0.652249241890322
1.7606571335852328,12.938189105668261,-0.03348023707840879,0.9115305565195679,-0.6771754087871138
1.754027550099151,12.75764274823391,-0.03281559778241065,0.8939330178239385,-0.7035314499302446
1.7475271504762653,12.580605722393358,-0.03218839844644688,0.8764372405815706,-0.7312096385730931
1.7411485538848739,12.407057936670707,-0.03159756746746637,0.8590406166449343,-0.7601041744918771
1.734884597565093,12.236979810411604,-0.031041995730342036,0.8417406459460973,-0.7901109458121766
1.7287283439138044,12.070352252458235,-0.030520540782545853,0.8245349335876079,-0.8211272938127657
1.722673086775551,11.907156640366946,-0.030032030599987013,0.8074211873252782,-0.8530517796876415
1.7167123570186846,11.74737480009021,-0.02957526696867785,0.7903972154420692,-0.8857839522368632
1.710839927471414,11.590988986044469,-0.029149028504029038,0.77346092501535,-0.919224115438552
1.7050498172883315,11.437981861484626,-0.028752073326795326,0.7566103205830561,-0.9532730948278011
1.699336295814455,11.288336479104547,-0.028383141411971173,0.7398435032177274,-0.9878320015729185
1.6936938860108333,11.14203626178066,-0.02804095662424654,0.7231586700211388,-1.0228019930948422
1.6881173675033134,10.999064983372918,-0.027724228450950503,0.7065541140562839,-1.0580840290211828
1.6826017793141477,10.859406749493498,-0.027431653440707287,0.6900282247379156,-1.093578621201476
1.6771424223347493,10.723045978148932,-0.027161916353276708,0.6735794887077484,-1.1291855764341472
1.6717348615970997,10.589967380155567,-0.026913691023218635,0.6572064912258783,-1.1648037304675922
1.6663749284010703,10.460155939221373,-0.026685640937075764,0.6409079181160655,-1.2003306717368087
1.6610587223552953,10.333596891578829,-0.02647641952067518,0.62468255830937,-1.2356624531822968
1.6557826133902407,10.210275705044058,-0.026284670129868112,0.6085293070383434,-1.270693290368609
1.6505432438038024,10.090178057365954,-0.02610902573451561,0.5924471697427177,-1.3053152439751834
1.645337530402177,9.973289813715937,-0.02594810828173864,0.57643526675744,-1.339417884571299
1.6401626668019702,9.859597003153674,-0.025800527720330767,0.5604928388651721,-1.372887937409799
1.635016125963565,9.749085793886337,-0.02566488066372089,0.544619253808207,-1.405608904780757
1.6298956630308024,9.64174246711858,-0.025539748663905248,0.5288140138693738,-1.437460663257358
1.6247993185580853,9.537553389266826,-0.02542369606326513,0.5130767646481621,-1.4683190329439015
1.6197254222132527,9.436504982284283,-0.02531526738506173,0.4974073051772577,-1.4980553156035592
1.6146725970530915,9.338583691811937,-0.02521298421655014,0.48180559954621954,-1.5265357983073682
1.6096397644783405,9.243775952834973,-0.025115341530959984,0.46627179022342374,-1.5536212190152805
1.6046261499866536,9.152068152483142,-0.025020803385907738,0.4508062132948832,-1.579166190289372
1.599631289855467,9.063446589566723,-0.024927797925959293,0.43540941586931736,-1.6030185771700063
1.5946550389022878,8.977897430386498,-0.0248347116058334,0.4200821759329293,-1.6250188251495203
1.5896975794879198,8.895406660295748,-0.024739882537846973,0.4048255249745805,-1.6449992342009954
1.5847594319489067,8.815960030424101,-0.02464159285228435,0.38964077374188344,-1.6627831750286455
1.5798414666694858,8.739542998896912,-0.024538059941924754,0.37452954153000345,-1.678184244197584
1.5749449180311643,8.666140665799354,-0.024427426441288373,0.3594937894455776,-1.6910053557124984
1.5700714005104095,8.595737701042342,-0.02430774876626111,0.3445358581245407,-1.7010377681456452
1.5652229272328673,8.528318264188993,-0.02417698400915989,0.3296585104089631,-1.7080600488493776
1.5604019313373718,8.4638659151986,-0.024032974945795267,0.3148649794949648,-1.7118369805359148
1.5556112905566626,8.402363514945417,-0.023873432861298574,0.3001590230368559,-1.7121184211542306
1.550854355487016,8.343793114280786,-0.023695917835167526,0.2855449836094549,-1.7086381363845156
1.546134982100007,8.288135830344164,-0.023497816034920058,0.2710278557567774,-1.7011126364182665
1.5414575691526267,8.235371708814586,-0.023276313438883176,0.256613359538979,-1.6892400667429313
1.5368271012866266,8.18547957086546,-0.0230283652211184,0.24230801995226925,-1.672699228915139
1.5322491987893436,8.138436843798086,-0.02275065975171148,0.22811925072148254,-1.6511488453882535
1.5277301752402455,8.094219374768041,-0.022439575739271772,0.21405543957896508,-1.624227237501362
1.5232771046282028,8.052801227810782,-0.022091130381153196,0.20012602999363296,-1.59155266501423
1.5188979000554192,8.014154465707545,-0.021700915346683242,0.1863415910387355,-1.5527246892180453
1.514601406944264,7.978248920385223,-0.021264015764868943,0.1727138621844858,-1.507327083386273
1.5103975148939157,7.94505195890541,-0.020774904738614985,0.159255752613662,-1.454933041828701
1.506297294255678,7.914528257203521,-0.020227301643759805,0.1459812644052175,-1.3951137526955257
1.5023131665312177,7.886639601273032,-0.019613975600843127,0.13290529489968972,-1.3274518187543682
1.4984591225248152,7.861344746217462,-0.01892646446318358,0.12004325565600127,-1.251561537856225
1.4947510098759176,7.838599378099932,-0.01815466202579183,0.1074104255192882,-1.1671186447520867
1.4912069238449484,7.81835624151503,-0.01728619828390067,0.09502094032972008,-1.073902599545339
1.4878477546115172,7.800565514519295,-0.01630549405040961,0.0828863296276414,-0.9718544491350105
1.4846979748517604,7.785175523473029,-0.015192303547160746,0.07101358083501776,-0.8611517415400645
1.4817867995477845,7.772133873442392,-0.01391944949259713,0.05940291947135546,-0.7422972084964221
1.4791499292070287,7.761388985169194,-0.012449253914960684,0.0480459632606335,-0.6162075077603199
1.4768322354610524,7.752891808109396,-0.010727683544804098,0.03692580733733662,-0.48427060329195915
1.4748920998195345,7.746597005890845,-0.00867367287037189,0.026022214848174283,-0.3483189598211618
1.4734092556032268,7.7424618932973495,-0.006154769292707104,0.015328911086767847,-0.21045471852007955
1.4725033044407219,7.740438059708904,-0.002904742332340565,0.004909424797679654,-0.07268605523989202
