x,y,v_x,v_y,omega
2.375,32.48,0.0,2.769230769230769,-2.612244897959184
2.374567780823092,31.986588412594244,-0.004802435298981763,2.7131202019442795,-2.4736927911554503
2.3733255619697142,31.503111340616723,-0.008999996405212025,2.6588472644726022,-2.3459140324606382
2.37137575673524,31.029246790969868,-0.012664506200058333,2.606314398270247,-2.227807149162973
2.3688086812600586,30.56468970406131,-0.01585855463528857,2.5554310118248402,-2.1184046386456687
2.365704099005599,30.10915075753909,-0.018636803747599823,2.5061128384220375,-2.016854393059122
2.3621325485284808,29.66235527893027,-0.02104709044259925,2.458281368342613,-1.9224039967242659
2.3581564878775594,29.224042254741054,-0.023131361234303916,2.411863344870911,-1.834387407351333
2.353831283350026,28.793963425324833,-0.024926466849400915,2.366790315309319,-1.7522136229091605
2.34920606577169,28.37188245627857,-0.02646483957655311,2.3229982296491443,-1.675357008475667
2.344324473712529,27.95757417834496,-0.027775072191902273,2.2804270807243197,-1.603349015601129
2.339225299953758,27.550823888822958,-0.02888241401666649,2.2390205806312533,-1.5357710736598968
2.333943054962076,27.15142670835776,-0.029809197002023644,2.198725868982048,-1.472248470697875
2.3285084590009304,26.759186987720952,-0.030575202566261304,2.1594932492047114,-1.4124450722232287
2.3229488727380607,26.373917759824906,-0.031197978132289552,2.121275949640254,-1.3560587516584994
2.317288674729337,25.99544023276021,-0.03169311085353197,2.0840299066341346,-1.3028174268902464
2.311549592919407,25.623583320115582,-0.032074464812353175,2.0477135671950784,-1.2524756143987326
2.3057509962581526,25.258183205248024,-0.03235438697936384,2.012287709111108,-1.2048114265238037
2.2999101516544,24.899082936526714,-0.032543886395666785,1.9777152766812385,-1.1596239490805396
2.2940424507470665,24.5461320508849,-0.03265279035247903,1.9439612304500287,-1.1167309462247033
2.2881616103461604,24.199186223286887,-0.03268988076869985,1.9109924095279114,-1.075966847541048
2.2822798498631682,23.858106939957025,-0.03266301348677106,1.878777405248324,-1.0371809790754647
2.276408048596975,23.522761193429485,-0.03257922280426373,1.8472864450576616,-1.000236005688067
2.270555885354816,23.193021197664933,-0.032444813219728176,1.8164912856595687,-0.9650065568580832
2.2647319625573363,22.868764121646606,-0.032265440085599686,1.7863651145440946,-0.9313780120772281
2.2589439166938807,22.549871840016188,-0.032046180619459796,1.756882459127236,-0.8992454253522795
2.253198516751294,22.236230699441887,-0.031791596520396884,1.7280191028094278,-0.868512571203356
2.2475017520307374,21.927731299528947,-0.031505789263560874,1.6997520073343477,-0.8390910969770177
2.2418589105871716,21.62426828718845,-0.031192448998281937,1.6720592408934014,-0.8108997683629835
2.236274649370899,21.325740163475054,-0.030854897849193038,1.6449199114776667,-0.783863796768069
2.2307530570163707,21.03204910198946,-0.03049612831223083,1.6183141050289251,-0.7579142387090427
2.2252977101071902,20.74310077801816,-0.030118837345331856,1.5922228279855535,-0.7329874586775417
2.219911723645387,20.458804207652218,-0.029725456674706916,1.5666279538582393,-0.7090246480383651
2.214597796365384,20.179071596189495,-0.029318179769770338,1.541512173505344,-0.6859713934752647
2.209358251456774,19.903818195181223,-0.02889898588145012,1.5168589488088058,-0.6637772893191692
2.204195073193496,19.632962167535297,-0.028469661488303145,1.492652469479222,-0.642395588802213
2.1991121263012245,19.366425154214753,-0.028007526203603684,1.468869900749038,-0.6208023202986728
2.1941124809571493,19.104131423204223,-0.02754408873056693,1.4455048882568475,-0.600120734234596
2.1891962844368558,18.846007063713834,-0.027080317050470988,1.42254355052528,-0.5803021265215343
2.1843635198185414,18.591980611116817,-0.026617067597466706,1.3999725894415755,-0.5613008846478198
2.179614025038291,18.34198294472989,-0.02615509662753798,1.3777792593020521,-0.5430742600874371
2.174947510004874,18.09594719099007,-0.025695070410431644,1.3559513378070327,-0.5255821597017324
2.1703635719744088,17.853808631689734,-0.025237574372511163,1.334477098863371,-0.5087869543654454
2.1658617093635466,17.615504616956308,-0.024783121303737606,1.3133452870636169,-0.49265330322998296
2.1614413341605965,17.38097448268563,-0.0243321587290374,1.292545093721657,-0.4771479921979799
2.1571017830770183,17.150159472158784,-0.023885075532944052,1.2720661343544593,-0.46223978532648097
2.1528423275665776,16.92300266159112,-0.023442207916397933,1.251898427508452,-0.44789928800365564
2.1486621828260817,16.699448889380015,-0.02300384475577965,1.232032374837156,-0.4340988208576964
2.1445605158796774,16.479444688833706,-0.02257023242648703,1.2124587423440683,-0.42081230345806875
2.1405364528381075,16.262938224178704,-0.022141579146512484,1.1931686427115018,-0.4080151469600035
2.1365890854148732,16.04987922965687,-0.02171805888942295,1.1741535186422263,-0.3956841549242875
2.132717476772854,15.840218951535899,-0.02129981491078995,1.1554051271463457,-0.38379743161710883
2.128920666767419,15.633910092868742,-0.020886962927377146,1.1369155247109715,-0.37233429715990435
2.125197676645378,15.43090676084821,-0.020479593984192083,1.1186770532949302,-0.3612752089576739
2.1215475132531303,15.231164416613112,-0.02007777704078291,1.1006823270950368,-0.35060168888681603
2.117969172802023,15.034639827371464,-0.01968156130485277,1.082924220034399,-0.3402962557708454
2.114461644234137,14.841291020714955,-0.019290978338324844,1.0653958539268216,-0.33034236271495165
2.111023912227434,14.651077241006817,-0.01890604395837608,1.0480905872747,-0.3207243389087613
2.1076549598753536,14.463958907732618,-0.01852675995362998,1.0310020046608352,-0.31142733554131113
2.1043537710725007,14.279897575710375,-0.018153115633624418,1.0141239066974037,-0.30243727550353716
2.1011193326349704,14.098855897062798,-0.017785089227820974,0.9974503004978994,-0.29374080658187357
2.0979532436972423,13.921015160333397,-0.017393676746934213,0.9785578853843283,-0.33311976067967963
2.0948540824048503,13.746565835514748,-0.017041448724089796,0.959767945934016,-0.3736568721938682
2.091814904628027,13.5754897058594,-0.01672719324061494,0.9410779391253788,-0.41525261656837836
2.088828986566912,13.407769003560844,-0.016449674105101356,0.9224854197474869,-0.4578087916362777
2.0858898288265046,13.243386392364325,-0.01620763412164904,0.9039880379916088,-0.5012283030187614
2.082991159934495,13.08232495058061,-0.015999798011792413,0.8855835373830078,-0.5454149499982037
2.08012693936258,12.924568154441229,-0.015824875009486674,0.8672697530545705,-0.5902732109242808
2.0772913601085907,12.770099861733325,-0.015681561145950068,0.849044610366587,-0.635708027183058
2.0744788508939793,12.618904295651138,-0.015568541238619463,0.8309061238799236,-0.6816245847216457
2.0716840780288672,12.470966028799577,-0.01548449059595727,0.8128523966929863,-0.7279280920749909
2.0689019469949725,12.326269967283142,-0.015428076447322202,0.7948816201563009,-0.7745235537858886
2.0661276037953034,12.184801334810668,-0.015397959104557365,0.7769920739823141,-0.8213155380435553
2.0633564361185535,12.046545656742765,-0.015392792859328352,0.7591821267721846,-0.8682079372891973
2.0605840743656363,11.91148874400453,-0.015411226617530556,0.7414502369859914,-0.915103720447876
2.0578063925858263,11.779616676780872,-0.015451904269245267,0.7237949543879896,-0.961904675343457
2.0550195093705192,11.650915787905554,-0.015513464789721928,0.7062149220044234,-1.0085111397362336
2.052219788753715,11.525372645847732,-0.015594542063658835,0.6887088786380553,-1.0548217192895122
2.0494038411700415,11.402974037191104,-0.015693764421601843,0.671275661991128,-1.1007329906205063
2.0465685245234795,11.283706948490764,-0.015809753873530636,0.6539142124571032,-1.1461391874206874
2.043710945423008,11.167558547380999,-0.015941125020598888,0.6366235776513867,-1.1909318674395928
2.0408284606452214,11.054516162793742,-0.01608648362147558,0.6194029177625648,-1.2349995579123658
2.037918678888663,10.944567264131429,-0.016244424784728803,0.602251511818684,-1.278227376773423
2.0349794628902567,10.837699439219723,-0.016413530753120475,0.5851687649780666,-1.3204966267353795
2.032008931980925,10.733900370844271,-0.01659236823944916,0.5681542169713997,-1.3616843590229477
2.0290054651653824,10.633157811651092,-0.016779485266584432,0.5512075518416976,-1.4016629032360608
2.025967704820308,10.53545955716169,-0.016973407456460542,0.5343286091516342,-1.4402993594764517
2.0228945611158755,10.440793416621176,-0.017172633703902145,0.5175173968540951,-1.4774550485109068
2.0197852172780273,10.34914718135962,-0.017375631161080336,0.5007741060520875,-1.5129849153691666
2.016639135823304,10.260508590303136,-0.017580829446956475,0.48409912790885057,-1.5467368813964584
2.013456065914604,10.174865292220563,-0.017786613983041714,0.4674930730086077,-1.5785511394183402
2.0102360520053577,10.092204804233592,-0.017991318341914034,0.45095679351329093,-1.608259386357563
2.006979443961578,10.012514466051407,-0.018193215477861537,0.43449140851100726,-1.6356839874125095
2.0036869088765297,9.935781389314702,-0.018390507689343773,0.418098333007951,-1.6606370658296115
2.000359444821876,9.861992401347116,-0.01858131514013847,0.4017793110763238,-1.6829195124745802
1.9969983968127232,9.791133982514083,-0.01876366273933828,0.3855364537351519,-1.7023199099717805
1.9936054753027943,9.723192196279399,-0.01893546514876235,0.3693722822057884,-1.7186133673467254
1.990182777571051,9.658152610928905,-0.019094509648384283,0.35328977724415844,-1.7315602631799512
1.986732812413748,9.596000211800057,-0.019238436543871647,0.3372924352985973,-1.7409048987101134
1.9832585286180233,9.536719302719703,-0.01936471674195794,0.3213843322608969,-1.7463740677670905
1.9797633477672931,9.480293395217128,-0.019470626043932387,0.3055701955454891,-1.7476755588351276
1.9762512020187293,9.426705083958097,-0.01955321560677785,0.28985548511040593,-1.7444966173543361
1.9727265776047325,9.375935906759267,-0.019609277882075064,0.2742464837655045,-1.7365024156408422
1.9691945649524825,9.327966187525664,-0.01963530714292451,0.25875039660784677,-1.7233346065899888
1.965660916502464,9.282774860562231,-0.01962745341283705,0.24337545854139872,-1.7046100800999908
1.9621321135610925,9.24033927503067,-0.019581468157956288,0.22813104736482442,-1.6799201044739636
1.9586154438813361,9.200634978990653,-0.019492639394893495,0.21302779752425371,-1.648830128482144
1.9551190921898869,9.163635483687248,-0.019355712732320177,0.1980777058469177,-1.6108806570684557
1.9516522466720994,9.129312010838191,-0.01916479302087353,0.18329421469815532,-1.5655898143422178
1.948225225657486,9.097633229099646,-0.01891321825260979,0.16869224906346186,-1.5124584980915818
1.9448496307060648,9.06856499131348,-0.018593392318738182,0.15428817078281393,-1.450979444529573
1.9415385354611965,9.04207009246969,-0.018196554846464152,0.14009959414817302,-1.3806520977823784
1.9383067248139378,9.01810808067296,-0.017712452345298668,0.12614498137104185,-1.3010059416250397
1.9351710074551403,8.996635170874853,-0.01712885164133984,0.11244290527456947,-1.2116358730506176
1.9321506389656666,8.977604334015513,-0.01643079824170199,0.09901083760700105,-1.1122540934114666
1.9292679157473653,8.96096566002111,-0.015599459739423331,0.0858633178863908,-1.0027632989301976
1.9265490380094135,8.946667112142123,-0.014610292904484512,0.07300943632457654,-0.8833543120888964
1.9240254022967134,8.934655777008732,-0.013430103903295104,0.06044984293531607,-0.7546249925407709
1.921735590223938,8.92487961491711,-0.012012252460877362,0.04817418030493881,-0.6177020793880384
1.919728525368857,8.917289427690903,-0.01028846815113271,0.036161233319562086,-0.47432009308166667
1.918068784021893,8.911840109892498,-0.008153102370689842,0.02438674221826108,-0.32677673654259515
1.9168468627841126,8.90848872927398,-0.005423800271312108,0.012850820209740169,-0.1776664595088905
1.916207382403071,8.907180791457193,-0.001681537295818345,0.0016818221990022933,-0.029348012186984296
