x,y,v_x,v_y,omega
2.375,32.48,0.0,3.948717948717949,-3.836734693877551
2.374055754455703,31.778516708846265,-0.010491617158856466,3.845540841879061,-3.557183965136386
2.371381394693511,31.09517243320286,-0.019223491309941457,3.7471733319365894,-3.3084107265217386
2.367268080938061,30.429132879932254,-0.026479994861725864,3.6532661488478833,-3.086064475270201
2.3619602548458833,29.779623544821476,-0.032495850606916434,3.563504241271873,-2.8865169270215794
2.355663723257766,29.145923942260897,-0.03746561148327753,3.47760245384569,-2.7067264480202073
2.3485522132169803,28.527362551277232,-0.04155116674767077,3.3953018904172527,-2.544130681571057
2.340772713376125,27.923312366457946,-0.044887720372943724,3.316366829797047,-2.3965609544617528
2.332449846461301,27.333186963547305,-0.04758857868065794,3.240582091432299,-2.2621736316224847
2.3236894640183072,26.756437005922123,-0.04974900401927471,3.167750771069714,-2.1393947490496585
2.314581613811331,26.192547131022707,-0.051449331613789874,3.097692283368223,-2.0268751159790006
2.3052029987933382,25.641033166012434,-0.0527575019194635,3.0302406611903847,-1.9234537209092912
2.295619022196666,25.1014396301088,-0.05373112693245061,2.9652430710722317,-1.8281277610905058
2.285885494293605,24.573337487637815,-0.0544191831015595,2.902558511938719,-1.7400279833133165
2.276050061481894,24.056322121258134,-0.05486340369523296,2.8420566700576897,-1.658398305339377
2.2661534066104796,23.55001149924075,-0.05509942820937193,2.7836169079132738,-1.5825789039203015
2.2562302601617805,23.05404451437042,-0.05515775455394859,2.727127368423718,-1.5119921230492575
2.2463102545057194,22.568079475107226,-0.055064530513399414,2.672484178945148,-1.4461306866685721
2.2364186475239816,22.091792732226416,-0.05484221372813128,2.6195907419527096,-1.384547802291669
2.226576937152395,21.624877426334102,-0.054510123733940936,2.5683571012952022,-1.3268488224569286
2.216803384559492,21.16704234350616,-0.05408490507609301,2.5186993745708386,-1.2726841945663185
2.207113460579717,20.718010867876096,-0.05358091692140624,2.470539243541003,-1.2217434802285243
2.197520227501715,20.277520021349744,-0.0530105617230613,2.4238034956406547,-1.1737502655900924
2.188034666259212,19.845319581787976,-0.052384563193638954,2.3784236106012626,-1.1284578164969197
2.1786659573925014,19.42117127200308,-0.05171220199203333,2.334335387008683,-1.0856453583775283
2.169421722769972,19.004848012785203,-0.05100151603607134,2.2914786043010573,-1.0451148817929832
2.160308233923936,18.596133233931816,-0.050259471142108936,2.24979671629211,-1.0066883916794254
2.1513305919173793,18.194820237913483,-0.04949210670851829,2.209236572800495,-0.9702055322187784
2.142492882881489,17.80071161138633,-0.0487046603569313,2.169748166390087,-0.9355215306405038
2.1337983127184543,17.413618680268048,-0.047901674787895386,2.131284401590816,-0.902505412579021
2.125249323926415,17.0333610045393,-0.047087089568096666,2.0938008842841604,-0.8710384492811055
2.1168476970542955,16.659765909324868,-0.04626432012212372,2.057255729209498,-0.8410128032883613
2.108594638918155,16.29266804915549,-0.04543632583499545,2.021609383783581,-0.8123303444617568
2.100490859394883,15.931909002618202,-0.04460566886802405,1.9868244666307477,-0.7849016125686241
2.092536638343296,15.57733689487538,-0.043774565038500066,1.9528656194006198,-0.7586449062786268
2.0847318839784825,15.228806045774725,-0.04294492790387051,1.9196993706066436,-0.7334854814441077
2.0770761838356933,14.886176641488078,-0.04211840701600692,1.887294010356109,-0.7093548440772551
2.069568849299428,14.549314427809371,-0.04129642116471951,1.8556194749628458,-0.686190125567261
2.062208954536983,14.218090423414118,-0.04048018730689324,1.8246472405399459,-0.6639335294748083
2.0549953705596624,13.892380651536811,-0.03967074577444363,1.794350224763474,-0.6425318407558096
2.0479267950358975,13.57206588866082,-0.03886898226739063,1.7647026960808823,-0.6219359895480414
2.041001778395982,13.257031428939541,-0.0380756470650026,1.7356801897111072,-0.6021006627415885
2.0342187466957986,12.947166863179191,-0.03729137182592446,1.7072594298483266,-0.5829839574784716
2.027576021644859,12.642365871314322,-0.03651668429562475,1.6794182575391128,-0.5645470715146685
2.021071838150717,12.34252602739793,-0.03575202119484455,1.6521355637541275,-0.5467540260506103
2.0147043596859544,12.04754861621014,-0.0349977395247389,1.6253912272213444,-0.5295714172121835
2.0084716917444467,11.757338460663632,-0.03425412649201469,1.5991660566287178,-0.5129681928582768
2.0023718936194914,11.471803759251372,-0.033521408229710684,1.5734417368408204,-0.4969154518155225
1.996402988706913,11.190855932843089,-0.03279975746560282,1.5482007788067675,-0.4813862630065686
1.9905629735107144,10.914409480192528,-0.03208930026993944,1.523426472866146,-0.4663555022537854
1.9848498255067075,10.642381841567829,-0.03139012199680341,1.4991028451860868,-0.45179970481313714
1.9792653852969384,10.374693805828521,-0.030659213667296556,1.4752086630284509,-0.43659529058925434
1.9738109585504557,10.111268821502765,-0.029945527960287703,1.451735607257733,-0.42203176882228355
1.9684834740538655,9.852032347878186,-0.029248744224050865,1.428669655237602,-0.4080749562331244
1.9632799195411983,9.596912315200886,-0.02856852813891739,1.405997374510167,-0.3946928369109961
1.9581973438664912,9.34583902126241,-0.02790453491338177,1.3837058914728917,-0.38185540290533215
1.9532328586396759,9.098745033447468,-0.027256412051234472,1.3617828620264611,-0.36953450811183886
1.948383639398188,8.855565095900605,-0.026623801743075156,1.3402164440497808,-0.35770373421555945
1.9436469263777136,8.616236041494808,-0.02600634292886268,1.3189952715701811,-0.34633826758062286
1.939020024937606,8.380696708307799,-0.02540367307233226,1.2981084305077062,-0.33541478608901537
1.9345003056896228,8.14888786033271,-0.024815429683036593,1.2775454358821794,-0.3249113550309052
1.9300852043725885,7.920752112169055,-0.02424125161734512,1.2572962103806615,-0.31480733123826976
1.9257722215102984,7.696233857457603,-0.023680780185876767,1.237351064191043,-0.3050832747331201
1.921558921885337,7.475279200839065,-0.02313366009147136,1.2177006760149172,-0.29572086723262164
1.9174429338574075,7.2578358932315545,-0.022599540218859196,1.1983360751796366,-0.28670283691686965
1.9134219485511952,7.04385327023558,-0.022078074294611158,1.1792486247756186,-0.2780128889218542
1.9094937189356476,6.83328219348822,-0.02156892143369531,1.1604300057506087,-0.26963564107100996
1.9056560588137859,6.626074994799868,-0.021071746586988897,1.14187220189776,-0.2615565644043518
1.9019068417397444,6.4221854229179485,-0.02058622090236088,1.123567485679116,-0.25376192810514275
1.8982439998775944,6.2215685927720905,-0.02011202201041876,1.105508404830402,-0.2462387484608327
1.8946655228146356,6.024180937064624,-0.019648834244677626,1.0876877696970082,-0.23897474152811057
1.8911694563401884,5.829980160078971,-0.01919634880473537,1.0700986412546802,-0.2319582792017191
1.8877539011994617,5.638925193586591,-0.018754263870006106,1.05273431977179,-0.22517834841355638
1.8844170118308021,5.450976154740548,-0.018322284670655834,1.0355883340731278,-0.21862451321283313
1.8811569950935005,5.266094305850846,-0.017900123521585317,1.018654431367997,-0.21228687949995748
1.8779721089923438,5.084242015943008,-0.017487499824601394,1.0019265676079923,-0.2061560622066187
1.8748606614042327,4.905382724007488,-0.01708414004329797,0.9853988983422524,-0.20022315473245972
1.8718245278254475,4.7297027490211185,-0.01665067749876151,0.9666008237285307,-0.24333229041592627
1.8688624901857138,4.55739749158753,-0.01626085183161017,0.9479020366446775,-0.287475760082508
1.8659668285120006,4.38844929864209,-0.01591316676520621,0.9293001071935394,-0.33255722359979445
1.863130092794687,4.222840946126709,-0.015606118982719703,0.9107926985329318,-0.37848146193994875
1.860345104054963,4.0605556224274935,-0.015338200347546444,0.8923775647916968,-0.4251541659176803
1.8576049550382367,3.901576912157669,-0.015107899838300567,0.8740525493174556,-0.4724817246907149
1.8549030105836026,3.7458887802257337,-0.014913705213189247,0.85581558325959,-0.5203710130632573
1.8522329077169584,3.5934755561279275,-0.014754104416191434,0.8376646844938128,-0.5687291765977471
1.8495885555133431,3.4443219184026894,-0.014627586735090998,0.8195979568977212,-0.6174634134963007
1.8469641347724721,3.2984128791827914,-0.0145326437190323,0.8016135899900299,-0.666480752159912
1.844354097550283,3.155733768778205,-0.014467769860846826,0.7837098589498038,-0.7156878232699511
1.8417531665885845,3.016270220219482,-0.014431463046915201,0.7658851250360074,-0.7649906251618235
1.8391563346846347,2.880008153687349,-0.014422224774749463,0.748137836432144,-0.8142942811737681
1.8365588640426875,2.7469337607493394,-0.014438560135773233,0.7304665295457531,-0.8635027875534902
1.8339562856502565,2.6170334883183877,-0.014478977557906269,0.7128698307981505,-0.912518750390294
1.831344398723091,2.4902940222414003,-0.014541988299485257,0.6953464589461722,-0.9612431099091104
1.828719270264692,2.3667022704176013,-0.014626105682730263,0.6778952279849179,-1.0095748503136752
1.826077234788625,2.2462453453369697,-0.014729844051346813,0.6605150506887577,-1.0574106931973277
1.8234148942550443,2.1289105459178224,-0.01485171743288154,0.6432049428573335,-1.1046447723496091
1.8207291182766996,2.0146853385096897,-0.014990237882062505,0.6259640283441482,-1.1511682875730826
1.8180170446544304,1.9035573369125096,-0.015143913476482702,0.6087915449578454,-1.1968691348856868
1.8152760803077976,1.7955142812456408,-0.015311245930547245,0.5916868513406982,-1.2416315102176534
1.8125039026731726,1.6905440154798868,-0.01549072778750968,0.574649434945466,-1.285335483417126
1.8096984616494656,1.5886344634222027,-0.015680839142567255,0.557678921251005,-1.3278565390542287
1.8068579821808322,1.4897736029154807,-0.015880043842249288,0.5407750843792396,-1.3690650801595996
1.8039809675763374,1.3939494379841904,-0.016086785096580496,0.5239378593017707,-1.4088258906520759
1.8010662036788936,1.3011499686201695,-0.01629948043057364,0.5071673558540283,-1.4469975518055658
1.7981127640100132,1.2113631578604966,-0.016516515890319133,0.4904638748089991,-1.4834318076852206
1.7951200160333376,1.12457689576053,-0.016736239406076447,0.473827926301753,-1.517972874061572
1.792087628698784,1.0407789598087014,-0.016956953200075398,0.4572602509407735,-1.5504566849104922
1.789015581450887,0.959956971264667,-0.017176905109891807,0.4407618439929399,-1.5807100702612031
1.7859041749098972,0.8820983468275472,-0.017394278678884424,0.4243339830861526,-1.608549858916861
1.7827540434629476,0.8071902449554713,-0.01760718184277527,0.40797825993692427,-1.6337818995217848
1.779566170035714,0.7352195060600408,-0.01781363401537635,0.3916966166789866,-1.6561999937045175
1.7763419033532053,0.6661725856892247,-0.0180115513458313,0.37549138744117955,-1.6755847357618392
1.7730829780425825,0.6000354796889837,-0.018198729883310453,0.3593653458948444,-1.6917022548244594
1.769791537982389,0.5367936401984146,-0.018372826341062087,0.34332175955593663,-1.7043028580418504
1.7664701633629312,0.47643188118774304,-0.018531336097357232,0.32736445167370887,-1.7131195776034607
1.7631219019939928,0.41893427209785017,-0.018671568001958745,0.31149787154729797,-1.71786663120443
1.7597503054818193,0.36428401799377497,-0.01879061546663489,0.2957271740535352,-1.7182378160871945
1.7563594710021648,0.31246332451936354,-0.018885323196193897,0.28005830899545264,-1.7139048728494306
1.7529540895274573,0.2634532458634098,-0.018952248744999692,0.26449812051512417,-1.7045158794692368
1.7495395015353532,0.21723351396465773,-0.018987617833935207,0.24905445613770122,-1.6896937724015326
1.7461217614515696,0.17378234736652587,-0.01898727198588317,0.23373628384152026,-1.6690351459671864
1.7427077123921122,0.1330762385968569,-0.01894660645253133,0.21855381359926568,-1.642109562159844
1.7393050732187412,0.09508971987180814,-0.018860495473815908,0.20351861667902815,-1.6084597229656357
1.7359225405901633,0.0597951085811772,-0.01872320039927025,0.18864373099461762,-1.567603034401162
1.732569909720445,0.02716223681881047,-0.018528253708712247,0.17394373303168098,-1.5190353511578107
1.729258219183047,-0.0028418262119060955,-0.018268307817929555,0.15943474508740987,-1.4622380671854305
1.7259999277264657,-0.03025304289562314,-0.017934930588532284,0.14513432917607902,-1.3966902527030356
1.7228091353773414,-0.055110640020274104,-0.017518317735070364,0.13106119443118033,-1.3218882731113428
1.7197018682465424,-0.0774572626732919,-0.01700687260714184,0.1172346128245715,-1.2373762718238752
1.7166964583339261,-0.09733898404863339,-0.016386570866371835,0.10367340245701688,-1.1427919634785004
1.7138140693832926,-0.1148050785371666,-0.015639973029555655,0.09039431408220977,-1.0379329898355067
1.7110794525482753,-0.1299074386656116,-0.014744658470637122,0.07740968734497536,-0.9228486140027223
1.70852206964478,-0.14269950878381366,-0.013670707123754997,0.06472442507949115,-0.7979574880465181
1.7061778124641787,-0.15323466389001794,-0.012376594882927153,0.05233285387832379,-0.6641805014237238
1.7040917115521106,-0.16156416842135002,-0.0108023041400526,0.0402171964697884,-0.5230532364001913
1.7023223961543459,-0.16773536203649542,-0.00885675583510963,0.028351621476269302,-0.3767452291842417
1.700950209599788,-0.17179186959544523,-0.0063897614377562105,0.01672068473428512,-0.22788047666497885
1.7000962082142637,-0.17378115758417323,-0.0030991428458472855,0.0053825151404759825,-0.07906661184418176
