x,y,v_x,v_y,omega
2.375,32.48,0.0,2.9743589743589745,-6.285714285714286
2.3737610973699494,31.921167373175898,-0.013041080316323518,2.908089729052593,-5.91262739577035
2.3702149041422835,31.374684019787935,-0.02428726944858079,2.844366622399638,-5.572466486789004
2.3646800186436625,30.840081734239227,-0.03397468316848227,2.7830258570604514,-5.261427923635652
2.357433402832789,30.316921982824667,-0.042305483261767605,2.723918894671782,-4.9762326396216325
2.348716316028048,29.804793191122556,-0.04945332520918393,2.6669104916662034,-4.714042843351948
2.3387393066143307,29.303308373462894,-0.05556782651415703,2.611877062646033,-4.472393695459854
2.327686429042924,28.81210304850902,-0.06077825318486202,2.5587053052894793,-4.24913694024071
2.315718820150235,28.330833396088224,-0.0651965772644964,2.507291035982072,-4.042394152496979
2.3029777429433076,27.859174618982046,-0.0689200249136877,2.4575381967145367,-3.850517768278756
2.2895871856959396,27.39681948007277,-0.07203320926913456,2.409358002330441,-3.672058454797297
2.2756560881342085,26.94347699050047,-0.07460992295961065,2.362668203693752,-3.505737671515318
2.2612802536824828,26.498871228654714,-0.07671465021645164,2.317392447314238,-3.3504245041203533
2.246543996459473,26.062740273158468,-0.0784038468678595,2.273459715804133,-3.20511603230994
2.2315215634083723,25.63483523568729,-0.07972702735425516,2.230803836524068,-3.0689206331728847
2.2162783651972497,25.214919381646446,-0.08072769065756154,2.1893630481163937,-2.9410437333994017
2.200872044014681,24.802767328510516,-0.08144411126420899,2.149079616472334,-2.820775612285134
2.185353401862597,24.398164313096427,-0.08191001665246804,2.109899493149675,-2.7074809285507886
2.169767209219761,24.000905520255852,-0.0821551690615972,2.0717720104353137,-2.6005897012093517
2.154152910862882,23.610795466485826,-0.08220586627396945,2.034649608196523,-2.499589521007838
2.138545243067628,23.227647432805803,-0.08208537367607534,1.9984875884353142,-2.404018806610312
2.1229747742729326,22.851282941965945,-0.08181429784703259,1.9632438940895107,-2.3134609504278623
2.107468379502229,22.481531275659044,-0.0814109102656363,1.9288789091410226,-2.227539224209734
2.0920496573328307,22.11822902792635,-0.08089142835960848,1.8953552775189126,-2.1459123352647222
2.07673929693975,21.761219691391283,-0.08027025998860984,1.8626377386397033,-2.068270541334054
2.061555401672187,21.41035327333675,-0.07956021651205489,1.8306929777238006,-1.9943322463620967
2.0465137747166984,21.065485938971786,-0.07877269880887636,1.7994894892758102,-1.9238410112486792
2.031628171633557,20.726479679519564,-0.07791785996103226,1.7689974523265317,-1.856562923549107
2.0169105238997673,20.39320200300836,-0.07700474776307223,1.7391886162124601,-1.7922842783633819
2.0023711370352553,20.06552564586525,-0.07604142975810475,1.7100361958202432,-1.730809529606375
1.988018866412683,19.743328303603775,-0.07503510311107812,1.6815147753532125,-1.6719594767044343
1.9738612734435175,19.426492379065316,-0.07399219130119117,1.6536002197884672,-1.6155696567074738
1.9599047644829395,19.11490474682296,-0.07291842933646984,1.6262695932889868,-1.5614889159913934
1.9461547144950746,18.80845653248826,-0.0718189389568465,1.5995010839183257,-1.5095781392787584
1.932615577260561,18.50704290577865,-0.0706982950906632,1.573273934077576,-1.4597091167289782
1.9192909836844603,18.2105628863073,-0.06956058465776484,1.5475683761471433,-1.4117635324277613
1.906183829568742,17.918919161150598,-0.06840945866558434,1.522365572870809,-1.3656320598098006
1.8932963540457102,17.63201791333144,-0.06724817841896431,1.4976475620677308,-1.3212135514369319
1.8806406157806346,17.349772260435536,-0.06597011910814655,1.4733593105206875,-1.2750906119387502
1.868226695672659,17.072098294581856,-0.06470272413370173,1.4495245405706676,-1.2310039277208353
1.8560524288984186,16.79891135267924,-0.06344745243724895,1.4261274794568681,-1.1888400188513004
1.8441153937322243,16.530129701816215,-0.06220554931216586,1.4031530559434262,-1.1484929277115998
1.8324129498663644,16.26567440972432,-0.0609780703284645,1.3805868608133673,-1.1098636407401428
1.8209422724357147,16.00546922249457,-0.05976590262574341,1.358415110026099,-1.0728595605856965
1.8097003822182245,15.749440449060934,-0.058569783874154936,1.3366246103279331,-1.0373940237650097
1.798684172429284,15.497516852002978,-0.057390319167323,1.3152027271242515,-1.0033858594454264
1.7878904324808151,15.24962954425446,-0.05622799607971849,1.2941373544390873,-0.970758985437942
1.7773158690343565,15.005711891336432,-0.05508319809353024,1.273416886803309,-0.9394420378969944
1.766957124640748,14.765699418762104,-0.05395621657603121,1.2530301929264573,-0.909368031587044
1.7568107942266242,14.529529724287212,-0.052847261467378503,1.2329665910197882,-0.8804740478985281
1.7468734396592938,14.297142394703645,-0.051756470820311685,1.213215825649338,-0.8527009480821295
1.73714160259625,14.068478926896194,-0.050683919316990914,1.1937680460080304,-0.8259931094248812
1.7276118158031102,13.843482652902452,-0.04962962587395439,1.1746137855050536,-0.8002981823182516
1.7182806131038904,13.62209866873446,-0.048593560433623395,1.155743942579092,-0.775566866370346
1.709144538109872,13.404273766737735,-0.04757565002972567,1.1371497626495803,-0.7517527038946217
1.7002001518576437,13.189956371278956,-0.0465757842042571,1.1188228211270266,-0.7288118892685719
1.6914440394729648,12.979096477567968,-0.045593819844993826,1.1007550074097125,-0.7067030927999127
1.682872815964719,12.771645593433064,-0.04462958550496168,1.0829385097997823,-0.6853872978668379
1.674483131242186,12.567556683880778,-0.043682885258543434,1.065365801276922,-0.6648276502145943
1.6662716744390442,12.366784118282574,-0.04275350214295028,1.0480296260725792,-0.644989318394475
1.6582351776187556,12.16928362004144,-0.04184120122850858,1.0309229869919954,-0.6258393644246305
1.6503704189281763,11.975012218600849,-0.040945732356534946,1.0140391334352923,-0.607346623836033
1.6426742252592605,11.78392820366761,-0.04006683257942116,0.9973715500724728,-0.5894815943425007
1.6351509344585435,11.596196302371904,-0.039125702164967927,0.9787537267244424,-0.6153151844857123
1.6278018494891897,11.411991204265142,-0.03823308698612446,0.9602473059783285,-0.6427437839264177
1.6206178816312313,11.231292021476008,-0.037387627308172584,0.941849354959933,-0.6716537314160813
1.6135902035689045,11.054078412149213,-0.03658793124263773,0.9235570590063303,-0.7019336549900974
1.6067102550824328,10.880330558352142,-0.0358325791412748,0.9053677178049612,-0.7334742204726499
1.599969747946131,10.71002914467583,-0.035120127556639937,0.8872787419457061,-0.7661678844584076
1.593360670112406,10.543155337452536,-0.03444911279836046,0.8692876498784216,-0.7999086507135243
1.5868752892559965,10.37969076451331,-0.033818054111213046,0.8513920652713391,-0.8345918289390107
1.5805061557480977,10.219617495409505,-0.03322545649824563,0.8335897147687283,-0.8701137948321128
1.5742461051258707,10.062918022022288,-0.03266981320940725,0.8158784261493365,-0.9063717503656582
1.5680882601191986,9.909575239483512,-0.032149607913458146,0.7982561268903984,-0.9432634831810865
1.5620260322934318,9.759572427330102,-0.031663316568295546,0.7807208431454885,-0.9806871239576835
1.5560531233642325,9.612893230812201,-0.03120940900222356,0.7632706991482278,-1.0185409005778956
1.5501635262384925,9.469521642272618,-0.030786350216093904,0.7459039170579097,-1.0567228878559494
1.5443515258336697,9.3294419825117,-0.0303926014136197,0.7286188172675425,-1.0951307515336701
1.5386116997267494,9.192638882047312,-0.030026620764490624,0.7114138191996865,-1.1336614851726603
1.532938918683417,9.059097262174358,-0.029686863902163293,0.6942874426208816,-1.172211138485019
1.5273283471179548,8.928802315721782,-0.029371784155334205,0.6772383095115085,-1.2106745355447046
1.5217754435348345,8.801739487397391,-0.02907983250908885,0.6602651465347062,-1.248944981207515
1.5162759610040617,8.677894453601812,-0.02880945728852142,0.6433667881556119,-1.2869139539385552
1.5108259477240038,8.557253101582301,-0.028559103554193044,0.6265421804708302,-1.3244707831010964
1.5054217477278213,8.439801507784878,-0.028327212195096187,0.6097903858178408,-1.361502308599113
1.5000600017927144,8.325525915248889,-0.028112218700766523,0.5931105882451925,-1.397892520586969
1.494737648615113,8.214412709871578,-0.02791255158977369,0.5765020999370203,-1.43352217676356
1.489451926319723,8.106448395351073,-0.02772663046696267,0.5599643686998811,-1.4682683945551478
1.4842003743761003,8.00161956659413,-0.027552863676433958,0.543496986636384,-1.5020042152625883
1.4789808360032697,7.899912881349529,-0.027389645511257724,0.5270997001488761,-1.534598137007455
1.4737914611509497,7.801315029798793,-0.027235352934216087,0.5107724214378104,-1.565913613062669
1.4686307101553466,7.705812701802252,-0.027088341756343302,0.49451524168367467,-1.5958085119046137
1.463497358178397,7.61339255146007,-0.026946942211548832,0.47832844612876535,-1.6241345350877263
1.45839050055198,7.524041158603776,-0.026809453855997707,0.462212531305895,-1.65073658883789
1.4533095591632117,7.437744986783649,-0.026674139709982114,0.4461682246954411,-1.675452105115299
1.448254290033752,7.354490337260238,-0.0265392195474891,0.43019650712994084,-1.6981103078514161
1.4432247922654402,7.274263298443792,-0.02640286222421584,0.4142986383063399,-1.7185314201771251
1.4382215185469338,7.19704969015282,-0.02626317691795565,0.39847618580915095,-1.7365258088154005
1.43324528744186,7.12283500198226,-0.02611820313545334,0.38273105809149116,-1.7518930625343951
1.4282972977089599,7.051604324982847,-0.025965899316126303,0.3670655419023126,-1.764421002822027
1.4233791449396804,6.983342275757316,-0.025804129834183617,0.35148234468222955,-1.7738846270039552
1.418492840839783,6.918032911977921,-0.025630650164736632,0.3359846424693139,-1.7800449872465107
1.413640835530443,6.855659638227809,-0.025443089933577533,0.32057613384766376,-1.7826480137864975
1.4088260433033102,6.796205100972745,-0.02523893350992613,0.3052611004161725,-1.781423298060924
1.4040518723365047,6.739651071391513,-0.025015497719605668,0.2900444741231006,-1.77608286225102
1.3993222589696772,6.68597831475175,-0.02476990614173725,0.27493191155862157,-1.7663199576602813
1.3946417072539004,6.6351664450425325,-0.02449905928749192,0.2599298748541804,-1.7518079575526886
1.3900153346485338,6.587193763711721,-0.024199599716366805,0.2450457181017231,-1.7321994438003665
1.385448924951563,6.542037081674678,-0.023867870778064768,0.23028777702504358,-1.7071256355363074
1.3809489898529543,6.499671524367713,-0.02349986710202567,0.21566545778511703,-1.6761963785316831
1.3765228409415227,6.460070320672269,-0.023091174070938015,0.20118931795638506,-1.6390010154304617
1.3721786746541702,6.423204578267185,-0.022636892111719716,0.1868711284129274,-1.595110601950074
1.3679256736609693,6.389043050711262,-0.02213153939565938,0.17272389849153466,-1.5440821394867474
1.363774129739475,6.357551905785087,-0.02156892293586038,0.15876183757345239,-1.4854657809750802
1.3597355956456818,6.328694510950736,-0.020941962261961836,0.1450002133144354,-1.4188163562815805
1.3558230773835007,6.302431260970959,-0.020242440497839385,0.13145504963058793,-1.3437110698394361
1.35205128448217,6.278719485494026,-0.01946064267406311,0.11814258696870977,-1.2597758287271896
1.3484369657855522,6.257513491007156,-0.018584817290335433,0.1050784076299021,-1.166723259009145
1.3449993739636354,6.238764810645851,-0.01760035978247322,0.09227612248910018,-1.0644057555272366
1.3417609267221708,6.22242275157333,-0.016488558548732532,0.07974555195848179,-0.9528861691346215
1.3387481716094123,6.208435329101352,-0.015224653164516613,0.0674904740623226,-0.8325255402371712
1.3359932236036558,6.1967506295957016,-0.01377479952765697,0.05550636283925939,-0.7040793214553905
1.3335359526290844,6.187318495613191,-0.012091210730990294,0.04377925802926806,-0.5687783007495134
1.3314274250857085,6.180092086465187,-0.010103816041388346,0.03228820668655417,-0.42834845309814984
1.329735741547705,6.175028163112341,-0.007703379095492649,0.021016249659201163,-0.28490476511411394
1.3285579002729073,6.172083169486857,-0.004694950112903243,0.00998368324061771,-0.1406580547166355
1.328057467651737,6.171192554037926,-0.0005727616888891764,-0.0006087837781936882,0.002518081146718504
