x,y,v_x,v_y,omega
2.375,32.48,0.0,3.6923076923076925,-4.204081632653061
2.3739277239983467,31.787561392159386,-0.011287115806878056,3.596519758646111,-3.9011485783433937
2.3708886383834162,31.112902248976457,-0.020703259087125142,3.505155432753117,-3.6311486002498032
2.3662098647664003,30.45521254660195,-0.028546989513044657,3.417894065925928,-3.389478324409578
2.3601666923186553,29.813740176234806,-0.03506535204216582,3.3344466747808355,-3.172291055243732
2.352991440692826,29.18778531574438,-0.04046361244024618,3.254551856697314,-2.97635591080476
2.344880664230502,28.576695513774425,-0.04491298190000807,3.1779723745654134,-2.79894607267208
2.3360010365728137,27.97986137198698,-0.04855678291776038,3.104492275828721,-2.6377495506991138
2.326494179359245,27.396712733693693,-0.051515398277701296,3.033914443047981,-2.490797490256561
2.3164806414608727,26.826715304418915,-0.05389026381042991,2.9660584966865158,-2.3564062430823363
2.3060631914020555,26.269367643358542,-0.055767105229749786,2.900758988159546,-2.2331303068930333
2.2953295518699703,25.72419847523709,-0.05721857405535525,2.8378638341715354,-2.119723899776773
2.284354679016051,25.19076428043596,-0.05830640335432306,2.7772329532087703,-2.0151094335791924
2.27320266879664,24.668647127983395,-0.059083177902639256,2.7187370726077105,-1.9183515289737558
2.261928356531812,24.157452721439896,-0.05959379330607698,2.662256680481766,-1.828635504511547
2.250578663171434,23.65680863216234,-0.05987666311894859,2.6076811013872296,-1.7452494950305555
2.239193731684757,23.16636269809664,-0.05996472095133703,2.554907678251674,-1.6675695277273777
2.227807888956152,22.685781569292686,-0.05988625513924288,2.5038410460004914,-1.5950470190245698
2.2164504621332477,22.214749383879372,-0.05966560615448624,2.454392484665977,-1.5271982610802444
2.2051464731949295,21.75296656037721,-0.059323751090969795,2.4064793416726027,-1.4635955501065716
2.1939172313227644,21.30014869403552,-0.05887879493182006,2.3600245145557075,-1.4038596746618903
2.18278083926611,20.85602554642002,-0.05834638461191018,2.3149559866600833,-1.3476535346064809
2.1717526271288268,20.42034011879101,-0.057740058938440024,2.2712064094347593,-1.294676703404276
2.1608455247488307,19.99284780094055,-0.05707154506151516,2.228712725833245,-1.2446607801693919
2.1500703819918265,19.57331558812899,-0.056351010275371996,2.1874158300778963,-1.1973654050404627
2.139436244759151,19.16152135960207,-0.055587276384372775,2.1472602596791446,-1.1525748334701644
2.1289505932544825,18.757253212899634,-0.05478800261213795,2.1081939161359786,-1.1100949828969786
2.1186195480154657,18.36030884880272,-0.05395984200908806,2.0701678111999593,-1.0697508798478175
2.1084480483542474,17.970495002321137,-0.053108575477422586,2.0331358359746274,-1.031384447454033
2.098440007133436,17.58762691561019,-0.052239226846906156,1.997054550456363,-0.9948525831637589
2.08859844520524,17.211527849132846,-0.051356161870950295,1.96188299141043,-0.9600254845083952
2.078925608340497,16.842028627760037,-0.05046317354739234,1.9275824967244237,-0.9267851874554331
2.0694230690540443,16.478967218834537,-0.04956355578369289,1.8941165445966084,-0.895024287413615
2.0600918153794066,16.122188339518008,-0.04866016710723129,1.8614506061037022,-0.8646448175582836
2.050932328347892,15.771543091001867,-0.047755485856077896,1.8295520098556646,-0.8355572629827228
2.0419446496754423,15.42688861739477,-0.04685165806444626,1.7983898175874495,-0.8076796923911194
2.033128440947462,15.088087787306034,-0.04595053907218287,1.767934709662405,-0.7809369917406223
2.0244830354109893,14.755008896328814,-0.0450537297327986,1.7381588795714924,-0.7552601865033856
2.0160074833297443,14.427525388791683,-0.04416260796451603,1.7090359366088395,-0.7305858411275575
2.0077005917265747,14.105515597294879,-0.043278356279374854,1.6805408159890793,-0.7068555258887211
1.9995609592258858,13.78886249867995,-0.042401985833138575,1.6526496957469925,-0.6840153426893966
1.9915870066129682,13.477453485200478,-0.0415343574607315,1.6253399198264056,-0.6620155025242805
1.9837770036450921,13.171180149768666,-0.040676200095858726,1.5985899268242416,-0.6408099483162796
1.9761290925788342,12.869938084249107,-0.03982812691738361,1.572379183907982,-0.6203560176706748
1.968641308817534,12.573626689858063,-0.038990649517352184,1.546688125471409,-0.6006141408148449
1.9613115990306176,12.282148998805447,-0.03816419034492771,1.5214980961350657,-0.5815475696079024
1.9541378370514964,11.995411506387793,-0.037349093645823485,1.496791297734973,-0.5631221340342543
1.9471240854230618,11.713324866603056,-0.03647987086401268,1.472541752630689,-0.5435031239019977
1.940273615040548,11.435802837106152,-0.03563034368876508,1.4487427683893435,-0.5247463804752561
1.9335827068706444,11.162761288318372,-0.03480026862600857,1.425378797797826,-0.50680407473118
1.927047691346214,10.894118979821634,-0.03398936847326023,1.4024349758520345,-0.48963153252691555
1.9206649542108147,10.629797434317055,-0.03319733821515183,1.3798970820909149,-0.473186993343272
1.9144309413157141,10.369720818505513,-0.032423850154329734,1.3577515053989897,-0.457431389940945
1.9083421625055927,10.113815830439087,-0.031668558373261824,1.3359852110897243,-0.4423281469072494
1.902395194712156,9.862011592926226,-0.030931102610282986,1.3145857100982774,-0.42784299628663813
1.896586684360029,9.614239552604843,-0.030211111622633745,1.2935410301268024,-0.41394380867860714
1.8909133491763725,9.37043338432592,-0.0295082061000661,1.2728396885987063,-0.40060043835505565
1.885371979484328,9.13052890051647,-0.028822001184613893,1.2524706672902508,-0.387784581098494
1.8799594390504968,8.894463965214616,-0.028152108645186705,1.2324233885187486,-0.375469643595024
1.8746726655479917,8.66217841249157,-0.02749813874960471,1.2126876927764687,-0.3636306233337998
1.8695086706889938,8.433613968995516,-0.026859701871426115,1.193253817708328,-0.35224399806948287
1.8644645400740973,8.208714180370965,-0.02623640986432472,1.174112378339593,-0.34128762399758583
1.8595374327998742,7.987424341324314,-0.025627877232763135,1.1552543484672453,-0.33074064187589514
1.8547245808609625,7.769691429122059,-0.02503372212420057,1.136671043135424,-0.3205833903995588
1.850023288378488,7.555464040322647,-0.024453567165006553,1.1183541021215344,-0.3107973262039435
1.8454309306826535,7.344692330556402,-0.02388704015956592,1.1002954743652462,-0.30136494992891466
1.8409449532738726,7.1373279571803145,-0.02333377466970711,1.0824874032777634,-0.2922697378315576
1.8365628706837458,6.933324024645948,-0.022793410489521906,1.0649224128734573,-0.2834960784822378
1.832282265254502,6.732635032429293,-0.02226559402883372,1.0475932946702755,-0.27502921412190057
1.8281007858531497,6.535216825381234,-0.021749978616981074,1.0304930953092961,-0.26685518629717264
1.824016146534504,6.3410265463663436,-0.021246224737185244,1.013615104847429,-0.2589607854246277
1.8200261251654197,6.1500225910661825,-0.020754000200542126,0.9969528456805968,-0.2513335039669293
1.816132757142404,5.962362006242106,-0.020228821094360125,0.9784217314149624,-0.2852679073090403
1.812335214084103,5.778212173179032,-0.01974531636144023,0.9599975639858171,-0.32059367503295244
1.8086256869127206,5.597553035047035,-0.01930233807416201,0.9416775742457266,-0.3572071984304995
1.8049965878422622,5.4203650510648025,-0.01889870477276956,0.9234590992514564,-0.3950067423029858
1.8014405563470675,5.24662917663419,-0.018533205702963438,0.9053395789655189,-0.4338922201136497
1.7979504643644812,5.076326844067232,-0.018204604640051407,0.8873165533182409,-0.47376497194859113
1.7945194208076658,4.909439943837555,-0.01791164332642464,0.8693876596257305,-0.5145275443405581
1.7911407754597648,4.7459508062887465,-0.017653044546217786,0.8515506303617227,-0.5560834709985494
1.7878081223163442,4.585842183732403,-0.01742751485820919,0.8338032912839948,-0.5983370534671648
1.7845153024393112,4.429097232868127,-0.017233747005296205,0.816143559918893,-0.6411931407126314
1.7812564063822678,4.275699497456831,-0.017070422016215156,0.7985694444105458,-0.684556906596955
1.7780257762445362,4.125632891177091,-0.016936211012540125,0.7810790427446057,-0.7283336241571202
1.7748180074088653,3.9788816805921634,-0.016829776731362746,0.7636705423599055,-0.772428435551993
1.771627950016103,3.8354304681522677,-0.016749774771398687,0.7463422201652998,-0.816746116474758
1.7684507102289024,3.695264175153156,-0.016694854567555654,0.7290924429832567,-0.8611908337524455
1.7652816513358456,3.5583680245673257,-0.01666366009620107,0.7119196684465375,-0.9056658947653071
1.7621163947472136,3.424727523658838,-0.01665483031045035,0.6948224463796535,-0.9500734872163227
1.7589508209340572,3.2943284462860056,-0.016666999301721698,0.6777994207028095,-0.9943144076636616
1.7557810703632435,3.1671568147884663,-0.016698796180529205,0.6608493319028611,-1.0382877770950538
1.7526035444828265,3.0431988813459547,-0.016748844665966916,0.6439710201235593,-1.0818907416712158
1.7494149068144549,2.922441108685277,-0.016815762369522,0.6271634289361911,-1.125018156594112
1.746212084212655,2.804870149999463,-0.016898159754687836,0.6104256098618325,-1.1675622508632533
1.7429922683547796,2.690472827928428,-0.01699463874926406,0.5937567277280251,-1.209412270467824
1.7397529175302946,2.5792361124334455,-0.017103790982158095,0.5771560669560111,-1.2504540973227252
1.736491758803958,2.4711470973780756,-0.017224195610859607,0.5606230388899947,-1.2905698409914683
1.7332067906344781,2.3661929756052587,-0.017354416699452598,0.5441571902975672,-1.329637399947703
1.7298962860385345,2.2643610122738664,-0.017493000099953398,0.5277582131907905,-1.3675299888103953
1.7265587963997686,2.1656385161873573,-0.0176384697817945,0.5114259561408945,-1.4041156276472384
1.723193156033697,2.07001280881175,-0.01778932354527316,0.4951604372865378,-1.4392565890809927
1.7197984876326604,1.9774711906392035,-0.01794402804458616,0.47896185926659923,-1.4728087985619107
1.7163742087301488,1.8880009045061996,-0.018101013034485,0.4628306263439651,-1.504621182799137
1.7129200393414417,1.8015890954209368,-0.01825866474137883,0.44676736402723993,-1.5345349609956305
1.709436010957773,1.718222766391758,-0.018415318244606235,0.43077294154307993,-1.5623828732365792
1.7059224770945924,1.6378887296766678,-0.01856924873624397,0.41484849756312875,-1.587988340188683
1.7023801256214104,1.5605735527917872,-0.01871866150777743,0.3989954696461488,-1.6111645482491583
1.6988099931317506,1.4862634985232752,-0.01886168048863976,0.38321562791712127,-1.6317134545456604
1.6952134816475772,1.4149444580820898,-0.01899633513423844,0.36751111356904737,-1.6494247068889238
1.6915923779941164,1.3466018764235628,-0.019120545428507572,0.35188448283650464,-1.6640744751499954
1.6879488762293795,1.2812206686251635,-0.019232104726617048,0.336338757146653,-1.675424192912458
1.6842856035694465,1.2187851260778793,-0.01932866011478326,0.32087748019317514,-1.6832192121339395
1.6806056503178155,1.159278811104457,-0.019407689902385387,0.3055047826849512,-1.6871873796689931
1.676912604387907,1.1026844384799794,-0.019466477780859217,0.2902254554674375,-1.6870375539263476
1.6732105911066366,1.04898374221251,-0.019502083074619335,0.2750450315585616,-1.6824580942283456
1.6695043191107146,0.9981573258693892,-0.01951130635613808,0.2599698773163978,-1.673115376919034
1.6657991333067568,0.9501844947500935,-0.01949064947499754,0.24500729236039112,-1.6586524243274712
1.6621010760784838,0.905043068375722,-0.019436268717350495,0.23016561684350315,-1.6386877803270328
1.6584169582170334,0.8627091721926412,-0.019343919297915513,0.21545434297838997,-1.6128148367526958
1.6547544414691857,0.8231570082353237,-0.01920888857416618,0.20088422499336672,-1.5806019189845781
1.651122135218538,0.7863586060083634,-0.019025914064230418,0.18646737739568917,-1.5415935918534127
1.647529710762241,0.7522835574020128,-0.0187890802125796,0.1722173447764367,-1.495313870099557
1.6439880381318916,0.7208987435958782,-0.0184916843174119,0.15814911634077766,-1.4412723397126206
1.640509352786327,0.6921680684054401,-0.018126056162215902,0.1442790435585798,-1.3789746531422389
1.637107463371712,0.6660522224142298,-0.017683306096890433,0.13062459845416818,-1.3079394885369613
1.6337980180944207,0.6425085167149547,-0.017152959979859793,0.11720388259081727,-1.2277248756318686
1.630598857727346,0.6214908451519605,-0.01652241230513943,0.10403476544068192,-1.137967724957433
1.6275305005451486,0.6029498592746094,-0.01577608434956762,0.0911335069525031,-1.0384411762064802
1.6246168328513437,0.5868334663403054,-0.014894101901010627,0.07851273446123652,-0.9291342383185247
1.6218861251555856,0.5730877732409319,-0.013850189633285544,0.06617877184796911,-0.8103553882598402
1.6193725707126019,0.5616585630852242,-0.012608278187594501,0.05412870347527575,-0.6828530780619597
1.6171186777119324,0.5524932349642988,-0.011116911293136437,0.04234843463973313,-0.5479270723019355
1.6151791270775773,0.545542734820426,-0.009299411173761464,0.030814724769462384,-0.40747353182971546
1.6136274987005348,0.5407621154799784,-0.007033519110895009,0.019507584077346877,-0.2638746356496866
1.6125704964503083,0.5381060277658101,-0.004092820365175052,0.008451233966531925,-0.11964090184204859
