x,y,v_x,v_y,omega
2.375,32.48,0.0,2.564102564102564,-4.204081632653061
2.3739428080767184,31.897059614124537,-0.00919297324592663,2.504944269597079,-3.944248387905309
2.3709231168720195,31.327457591425883,-0.017065211142761272,2.44811679734773,-3.7082754777018136
2.366223890703134,30.770675104193465,-0.02379762510841407,2.393470048151579,-3.4933054773194927
2.360089580602297,30.226226285959676,-0.029544201855390077,2.3408675017074345,-3.296887352489466
2.3527318076595507,29.693655299417667,-0.03443643242935907,2.290184555179616,-3.1169103855191196
2.344334120390885,29.172533756172264,-0.03858693512425179,2.2413071252151857,-2.951550154521711
2.335055992886618,28.66245843363148,-0.0420924344780724,2.1941304620959956,-2.799224125647228
2.3250361973332105,28.163049244810388,-0.04503622250808057,2.14855813634826,-2.658554962447523
2.3143956586151537,27.673947424945716,-0.04749020112719456,2.1045011668228017,-2.528340067804936
2.3032398783344945,27.194813905192717,-0.04951658392201555,2.0618772658119857,-2.4075261875638687
2.291660999442251,26.725327848722134,-0.051169319488796515,2.0206101817582924,-2.2951881463142128
2.279739569797891,26.265185328566464,-0.05249528611433733,1.9806291239432061,-2.1905109728402725
2.267546052638394,25.814098129813463,-0.0535352978812881,1.941868256517666,-2.092774818803989
2.2551421235995135,25.37179266138451,-0.05432495463071714,1.9042662515601816,-2.0013421890239558
2.2425817871693488,24.938008964796634,-0.054895362153321865,1.867765892682218,-1.9156470924887916
2.2299123399447245,24.512499809089995,-0.05527374414776078,1.8323137221581076,-1.8351857954402624
2.217175203552515,24.095029862583488,-0.05548396361058134,1.7978597257245623,-1.7595089155881867
2.2044066463941316,23.685374933359363,-0.055546968201446174,1.7643570501374206,-1.6882146429070464
2.191638410316761,23.283321271419524,-0.05548117160177604,1.731761749339425,-1.6209429099160302
2.178898255786851,22.88866492633771,-0.05530278083222562,1.7000325557198421,-1.5573703647156025
2.1662104370419226,22.50121115498166,-0.05502607781932604,1.6691306734631888,-1.49720602478654
2.1535961169478055,22.120773874520975,-0.054663662129519654,1.639019591412351,-1.4401875097786472
2.1410737298269114,21.747175156487316,-0.05422666066086253,1.609664913228178,-1.3860777681115177
2.1286592992983984,21.3802447581295,-0.05372490915229564,1.5810342029267273,-1.3346622258780554
2.1163667171418252,21.01981968771828,-0.05316710960051416,1.553096844127362,-1.2857462978379102
2.1042079883286884,20.665743800814425,-0.05256096703545879,1.5258239115583336,-1.2391532096548485
2.0921934466336554,20.317867424827185,-0.05191330857352086,1.4991880535480757,-1.1947220883234682
2.0803319446169963,19.97604700946481,-0.05123018722351626,1.4731633843856333,-1.1523062842312004
2.068652274093836,19.640147943056867,-0.050332165151791446,1.4476980626399685,-1.1068288036713447
2.0571799411924045,19.310040895253913,-0.049427251382395905,1.4227980052117901,-1.0636604511194339
2.045916168048936,18.985598406957116,-0.04851860203906583,1.3984410234560145,-1.0226542926180522
2.0348614984021496,18.666697992726526,-0.047608960106905664,1.374606056809984,-0.9836745146057975
2.0240158869889764,18.35322188960631,-0.04670070435546993,1.3512731007571261,-0.9465954499537869
2.013378778367088,18.045056821885247,-0.0457958923566032,1.3284231402955669,-0.9113007006005057
2.002949176436296,17.742093780582973,-0.04489629834593683,1.3060380884198717,-0.8776823461059701
1.9927257057702443,17.444227816559618,-0.04400344657625078,1.2841007291745234,-0.8456402287460257
1.9827066657306465,17.15135784624308,-0.04311864072459915,1.2625946648823256,-0.8150813068949293
1.972890078215604,16.863386469054717,-0.042242989840987774,1.241504267190399,-0.7859190694239262
1.9632737297886855,16.5802197956925,-0.04137743126265232,1.2208146316114765,-0.7580730046963144
1.9538552088442267,16.301767286501207,-0.04052275086307666,1.2005115352693478,-0.731468118483216
1.9446319383848585,16.02794159922295,-0.039679600957516215,1.1805813975850616,-0.7060344957740539
1.9356012049179707,15.758658445479163,-0.0388485161458553,1.1610112436652467,-0.681706902024398
1.926760183917304,15.493836455387413,-0.038029927338203,1.1417886701760536,-0.6584244198823432
1.9181059622429482,15.233397049763973,-0.03722417417793422,1.1229018135060351,-0.6361301178722907
1.909635557866708,14.977264319406288,-0.036431516050243334,1.1043393200390552,-0.6147707478999338
1.9013459372091999,14.725364910988755,-0.035652141841129865,1.0860903183742807,-0.5942964687812928
1.8932340303594366,14.477627919141078,-0.034886178591595235,1.0681443933446682,-0.5746605932977059
1.8852967444163604,14.233984784311136,-0.03413369917428341,1.0504915616982915,-0.5558193565428811
1.8775309751643012,13.994369196044204,-0.03339472910449379,1.033122249318523,-0.5377317035618299
1.8699336172701095,13.758717001337569,-0.03266925258412893,1.016027269869617,-0.5203590944885521
1.8625015731684074,13.526966117754728,-0.03195721786545408,0.9991978047637778,-0.5036653255730081
1.8552377241244413,13.299158326594313,-0.031206686864686792,0.9817395096746102,-0.505514706192657
1.8481431244179707,13.075350628846582,-0.030485484495927084,0.9644143837839176,-0.5099378383551031
1.8412109750728896,12.855512863183108,-0.029794075026517063,0.9472183611158539,-0.5167964018284958
1.8344343884808114,12.639615783729031,-0.02913276490459814,0.930147547180462,-0.5259567679890261
1.8278064231214497,12.427631021587178,-0.02850171648115597,0.9131982105747853,-0.5372896688293761
1.8213201152535468,12.219531048222251,-0.027900960631043394,0.8963667752071897,-0.5506698805054926
1.8149685078199456,12.015289140565905,-0.027330408356792228,0.8796498131088563,-0.5659759200305835
1.8087446767919215,11.814879347711361,-0.026789861452111402,0.8630440378002175,-0.5830897537956067
1.8026417551609355,11.618276459073211,-0.026279022295595294,0.8465462981837005,-0.6018965166562613
1.7966529547704253,11.425455973894266,-0.025797502839275906,0.830153572937568,-0.6222842403780758
1.790771586166021,11.23639407198672,-0.025344832851195147,0.8138629653889222,-0.6441435902740008
1.7849910766295318,11.051067585599576,-0.02492046746610263,0.7976716988471133,-0.6673676089032433
1.7793049865501596,10.86945397230824,-0.02452379409365752,0.7815771123818919,-0.6918514657261086
1.7737070242755435,10.691531288825445,-0.024154138729090377,0.7655766570337108,-0.7174922116274615
1.7681910595753787,10.517278165635204,-0.02381077170712582,0.7496678924466393,-0.7441885372310846
1.762751135841414,10.346673782353335,-0.023492912936044136,0.7338484839174481,-0.771840533928626
1.7573814811395898,10.179697843719207,-0.023199736645036214,0.7181161998575889,-0.8003494565398361
1.7520765182228488,10.016330556123755,-0.022930375674449475,0.7024689096680761,-0.829617486505129
1.7468308736067506,9.856552604578393,-0.022683925335100715,0.6869045820307139,-0.8595474944868249
1.74163938580437,9.700345130028243,-0.022459446859514363,0.671421283622769,-0.8900428012213022
1.7364971128120854,9.547689706911022,-0.022255970464699838,0.6560171782660966,-0.9210069354201569
1.731399338933714,9.398568320859933,-0.022072498042877812,0.6406905265259782,-0.9523433874637122
1.7263415810270455,9.252963346444798,-0.02190800549336955,0.6254396857795608,-0.983955357564095
1.7213195942541593,9.110857524840572,-0.021761444705641654,0.610263110778911,-1.0157454969967772
1.716329377414986,8.97223394130597,-0.0216317452002148,0.5951593547393793,-1.0476156409080408
1.7113671779424235,8.837076002347054,-0.021517815430760683,0.5801270709903246,-1.0794665311002876
1.70642949663696,8.705367412431439,-0.021418543747184857,0.5651650152324027,-1.1111975270764105
1.7015130922192192,8.57709215010754,-0.021332799015779585,0.5502720484536909,-1.1427063034875493
1.6966149857802177,8.452234443370266,-0.021259430888580365,0.5354471405660836,-1.1738885319744201
1.6917324652114019,8.330778744099277,-0.02119726970981787,0.5206893748338127,-1.204637545220189
1.6868630896998553,8.212709701377939,-0.021145126042762478,0.5059979531778322,-1.2348439808419238
1.6820046943784845,8.09801213348035,-0.021101789795242964,0.4913722024533822,-1.2643954025378528
1.6771553952266218,7.98667099828965,-0.02106602891660697,0.47681158181357985,-1.2931758956795671
1.672313594323441,7.87867136188278,-0.021036587632790378,0.4623156912896479,-1.3210656342936462
1.6674779855650423,7.7739983649845215,-0.021012184179374838,0.4478842817386947,-1.347940416119398
1.6626475609661484,7.672637186956262,-0.020991507984919996,0.43351726633313703,-1.3736711621644793
1.6578216176793255,7.574573006941847,-0.02097321624832175,0.41921473379222,-1.3981233769178307
1.6529997658786733,7.479790961743358,-0.020955929844305814,0.4049769635859541,-1.4211565651347882
1.6481819376713531,7.388276099942804,-0.020938228480216887,0.3908044433753833,-1.4426236009054794
1.6433683972194308,7.300013331720724,-0.02091864501475898,0.3766978889905293,-1.462370044589111
1.6385597522767128,7.214987373748638,-0.020895658834963395,0.362658267288473,-1.480233403194324
1.6337569673710286,7.133182688448461,-0.020867688170988503,0.34868682227827835,-1.4960423299839167
1.6289613788923507,7.054583416817717,-0.020833081208819604,0.3347851049455829,-1.509615759589438
1.6241747123819963,6.979173303914614,-0.02079010583773947,0.32095500725533,-1.5207619758951352
1.619399102358892,6.9069356159822455,-0.020736937841427182,0.3071988008522333,-1.5292776116202913
1.6146371150668224,6.8378530480682755,-0.02067164730700518,0.2935191810083819,-1.5349465812258374
1.6098917745835064,6.771907620869186,-0.020592182982698964,0.27991931637501627,-1.5375389529764156
1.6051665928008272,6.709080565403738,-0.02049635425798991,0.266402905063648,-1.5368097724011827
1.6004656038693068,6.649352194010831,-0.02038181036392757,0.25297423748336373,-1.5324978590302627
1.595793403804612,6.59270175609247,-0.020246016285591417,0.23963826615454434,-1.5243246126143928
1.591155196088117,6.5391072770155745,-0.02008622472741014,0.22640068234020583,-1.5119928862092054
1.5865568442708349,6.488545378697445,-0.019899443248957007,0.21326799868701185,-1.495186014642452
1.5820049328318277,6.440991080708304,-0.01968239535110544,0.20024763600115625,-1.4735671325050765
1.5775068378829444,6.396417581351557,-0.01943147376961945,0.1873480105792616,-1.446778982435949
1.573070809807394,6.354796019312577,-0.019142683409079674,0.17457861584664475,-1.4144445114076938
1.568706070661669,6.316095218375043,-0.018811570032007417,0.16195008795800275,-1.376168692992416
1.564422930308943,6.280281420793006,-0.018433128687348758,0.1494742388423234,-1.3315422148303295
1.560232927034769,6.24731801975107,-0.018001682392424,0.13716403108754488,-1.2801479551874642
1.5561490012301857,6.217165308722446,-0.017510715908301753,0.1250334561178777,-1.221571565614042
1.5521857152815448,6.189780276413295,-0.01695264016683507,0.11309725961387442,-1.1554179972648668
1.548359540167508,6.1651164913516325,-0.016318447781312365,0.10137043657450641,-1.0813364451323262
1.5446892411759847,6.1431241404998325,-0.015597195623237603,0.08986739691941281,-0.999056837658107
1.5411964143690793,6.123750310053172,-0.014775211393331204,0.07860069392112161,-0.9084413559286074
1.5379062562343306,6.1069396172348185,-0.013834859343612955,0.0675792436297839,-0.809553764410188
1.5348486982457876,6.0926353015202785,-0.012752601426326086,0.05680611040970594,-0.702746010161348
1.532060118534568,6.080780822940479,-0.011495917801672157,0.04627631202331858,-0.5887530011141492
1.5295859863368273,6.071321819917902,-0.010018275222158833,0.035975888173019235,-0.46876989820812515
1.5274851101009406,6.064207824573678,-0.008250213785552133,0.02588494090719888,-0.34446244573410423
1.5258371052454718,6.059392158999046,-0.006080263218524242,0.01599041191570572,-0.2178412693008277
1.5247587637942017,6.0568256804971625,-0.003296618966433118,0.006326792448496332,-0.09093954566039644
