x,y,v_x,v_y,omega
2.375,32.48,0.0,2.717948717948718,-7.877551020408164
2.3737691788746034,31.995754647621943,-0.013675790282182975,2.6625551973629853,-7.464706478134286
2.370227845377826,31.521308429416777,-0.025672359682013524,2.609069449361087,-7.083673055189012
2.364660601192161,31.056328415484327,-0.03618590904759415,2.5573751498883683,-6.73119115720082
2.35731901688511,30.60050165592655,-0.04538724991963764,2.5073666229758165,-6.404405742036087
2.34842586527784,30.153533386775198,-0.05342554571669991,2.4589474787058783,-6.100807615471484
2.3381787383223074,29.71514546110574,-0.06043142045588547,2.412029473176971,-5.818184529175763
2.3267531502967773,29.285074969224272,-0.06651955760555636,2.3665315477282367,-5.554580218187492
2.314305210493188,28.86307301867358,-0.0717908846565527,2.3223790139461147,-5.308259913572151
2.300973933195696,28.44890365019516,-0.076334418648907,2.279502858036339,-5.0776811696606945
2.2868832406016293,28.042342870050383,-0.08022883239628396,2.237839143572274,-4.861469078946107
2.272143704654898,27.643177782504026,-0.08354378923406436,2.1973284958317283,-4.658395129085053
2.256854065985843,27.251205809000364,-0.08634108486654121,2.1579156542089413,-4.467359098384261
2.2411025618598552,26.86623398276339,-0.08867562764443557,2.119549081757446,-4.287373498074301
2.224968089912297,26.488078309339937,-0.09059628288398712,2.082180622947571,-4.11755015856482
2.2085212302468467,26.116563185064685,-0.09214660228768737,2.045765202333031,-3.9570886279472983
2.1918251450118054,25.751520866625025,-0.09336545587943894,2.0102605581076034,-3.8052661081920416
2.1749363716994576,25.392790985894376,-0.0942875809244252,1.9756270055662821,-3.6614287007600135
2.1579055240238874,25.040220105024627,-0.09494405991524352,1.9418272263198162,-3.5249837710030136
2.140777912233529,24.693661307474837,-0.09536273775540155,1.9088260797889727,-3.395393271521418
2.123594093035237,24.352973821228648,-0.09556858667006478,1.8765904340575632,-3.2721678899574993
2.106390357890178,24.018022670937988,-0.0955840260528171,1.8450890136164364,-3.154861907596216
2.0891991672428403,23.688678356141153,-0.09542920336204493,1.8142922619039574,-3.04306867246809
2.0720495372260683,23.364816553052624,-0.09512224126875547,1.7841722168574843,-2.936416605068463
2.054967384517295,23.046317837720196,-0.0946794554953933,1.754702397947245,-2.834565666856149
2.0379758342796084,22.733067428600876,-0.0941155471455666,1.7258577033785552,-2.737204231798226
2.0210954954857763,22.424954946827263,-0.09344377278590103,1.6976143163282418,-2.6440463097291733
2.0043447073773004,22.12187419262678,-0.09267609508605296,1.6699496192326708,-2.5548290774689186
1.9877397603402187,21.82372293652128,-0.0918233164370795,1.6428421152729242,-2.4693106797206705
1.97129509407325,21.530402724078684,-0.09089519764034956,1.6162713563114608,-2.387268266929267
1.9550234755724598,21.24181869311419,-0.08990056347954266,1.5902178766273154,-2.3084962416745767
1.9389361591518672,20.957879402348873,-0.08884739674926148,1.5646631318762074,-2.2328046889258553
1.9230430304546267,20.678496670630715,-0.08774292210896936,1.539589442770027,-2.1600179686939347
1.9073527361788651,20.403585425908815,-0.08659368095504621,1.5149799430288375,-2.0899734523732314
1.8918728010412023,20.133063563227388,-0.08540559835231927,1.4908185312092588,-2.0225203864349868
1.8766162998563571,19.866858348440324,-0.08411108147929312,1.4670171886469592,-1.9544749121746476
1.8615937682735675,19.604899416410454,-0.08280593610725875,1.4436376116849776,-1.8893082957935652
1.8468068225630083,19.347112133878966,-0.0814934606767306,1.4206655275537579,-1.8268662511989548
1.832256517288398,19.093424380981542,-0.08017659793005069,1.3980872824176125,-1.7670043297252618
1.817943406188616,18.843766442937664,-0.07885796984530699,1.3758898069588317,-1.7095871915483993
1.8038675970872489,18.598070907726125,-0.07753990905877305,1.3540605842804945,-1.6544879384016253
1.7900288014286367,18.356272569346082,-0.07622448714802671,1.332587619942198,-1.6015875018207932
1.776426378975784,18.11830833629486,-0.07491354010589185,1.3114594139602758,-1.5507740817480065
1.7630593781493973,17.884117144922673,-0.07360869129840379,1.2906649346195715,-1.5019426308553063
1.7499265724374684,17.65363987735072,-0.07231137216747241,1.2701935939576894,-1.4549943804224872
1.7370264932604744,17.426819283662972,-0.0710228409102408,1.2500352247950601,-1.409836404022846
1.7243574596377884,17.20359990810384,-0.06974419934182469,1.2301800591953111,-1.3663812156440496
1.711917604965707,16.98392801903372,-0.06847640812574769,1.210618708250446,-1.3245463992039164
1.699704901186096,16.76775154241269,-0.06722030053659434,1.1913421430943714,-1.284254266717581
1.6877171805966342,16.555019998599114,-0.06597659490187016,1.1723416770564443,-1.2454315426374962
1.67595215552856,16.345684442265366,-0.06474590585451165,1.1536089488740762,-1.2080090721246741
1.664407436095422,16.139697405246594,-0.06352875451368775,1.1351359068900782,-1.171921551221719
1.6530805461962557,15.937012842151503,-0.06232557769927166,1.116914794166467,-1.1371072770883885
1.6419689379386204,15.737586078575848,-0.061136736274453915,1.0989381344519198,-1.1035079166310837
1.6310700046308064,15.54137376177012,-0.05996252270125622,1.0811987189450367,-1.0710682920110057
1.6203810924780386,15.34833381362306,-0.05880316788505107,1.063689593800092,-1.0397361816536475
1.6098995111045016,15.158425385831706,-0.05765884737647266,1.0464040483260737,-1.0094621355064637
1.59962254301132,14.971608817137337,-0.05652968699221275,1.0293356038335646,-0.9801993034035089
1.5895474520701174,14.787845592514447,-0.05541576791003745,1.0124780030874514,-0.951903275496825
1.579671491142307,14.607098304207184,-0.054317131287853586,0.9958252003265778,-0.9245319338055916
1.5700011017904705,14.429562257501669,-0.05313163928811035,0.9767975408458064,-0.9490591507895163
1.5605394319860126,14.255441273160706,-0.05199802520586565,0.957880062942674,-0.9750896007078023
1.5512772907186976,14.08471577038723,-0.050914655542080085,0.9390699678737223,-1.0025061027174322
1.5422057827803854,13.917366661501202,-0.04987987710583268,0.9203645753043731,-1.0311934790004498
1.5333163120024271,13.753375330918363,-0.0488920204270384,0.9017613200605165,-1.061038295652758
1.5246005839119627,13.592723614675137,-0.047949402800342975,0.8832577493086764,-1.0919286067627763
1.5160506078714429,13.43539378042276,-0.0470503309832116,0.8648515201621858,-1.1237537005708478
1.507658698761781,13.281368507813902,-0.04619310356858456,0.8465403977140415,-1.1564038465921538
1.4994174782661163,13.130630869204595,-0.045376013049912435,0.8283222535004838,-1.1897700425693818
1.4913198758081747,12.983164310593288,-0.04459734759388439,0.8101950644029133,-1.2237437600962562
1.4833591291966917,12.838952632717067,-0.04385539253370364,0.7921569119995607,-1.2582166877189702
1.4755287850252596,12.69797997222269,-0.04314843159332088,0.7742059823824173,-1.2930804702791574
1.4678226988753078,12.560230782826928,-0.04247474785058705,0.7563405664593782,-1.3282264432088768
1.4602350353687226,12.425689816376607,-0.04183262444480573,0.738559060766414,-1.363545360424665
1.4527602681158434,12.294342103713834,-0.041220345031627845,0.7208599688199427,-1.398927114393508
1.445393179604292,12.166172935245942,-0.040636193985609,0.7032419030455093,-1.4342604468580673
1.438128861074266,12.041167841112554,-0.04007845634801341,0.6857035873254897,-1.4694326486111482
1.430962712426634,11.919312570833824,-0.03954541751456573,0.6682438602159327,-1.504329246599774
1.423890442211392,11.800593072314204,-0.03903536265478827,0.650861678890945,-1.538833676517023
1.4169080677458463,11.684995470064607,-0.038546575851276965,0.6335561238823656,-1.572826938904913
1.4100119154142963,11.572506042492822,-0.038077338943722394,0.6163264046929959,-1.6061872366443728
1.4031986212040852,11.463111198096836,-0.0376259300586236,0.5991718663735336,-1.6387895915495632
1.3964651315366816,11.35679745037821,-0.03719062180141826,0.5820919971667644,-1.6705054376151762
1.3898087044570748,11.253551391272808,-0.03676967908310011,0.5650864373377028,-1.701202188289695
1.383226911250254,11.153359662873129,-0.03636135654824206,0.548154989325415,-1.7307427749695161
1.3767176385600077,11.056208927190415,-0.035963895565606176,0.5312976293714162,-1.7589851537353023
1.3702790910928542,10.962085833674902,-0.03557552073609959,0.5145145208009615,-1.7857817771933746
1.3639097949987007,10.87097698417865,-0.03519443586560559,0.49780602915737515,-1.8109790281566032
1.3576086020300135,10.782868895007063,-0.034818819342030335,0.4811727394158299,-1.8344166118231404
1.35137469459304,10.697747955661796,-0.03444681884656413,0.46461547553156884,-1.8559269031189929
1.3452075918181925,10.615600383829225,-0.034076545318409666,0.4481353226081246,-1.8753342460066846
1.3391071567923591,10.536412176114233,-0.03370606607973928,0.4317336520028935,-1.8924542018907033
1.3330736051140177,10.460169053959248,-0.03333339701294362,0.4154121497191637,-1.9070927448608392
1.3271075149530325,10.386856404122838,-0.0329564936646692,0.39917284846317314,-1.9190454025336683
1.3212098388215332,10.316459213021993,-0.03257324112976756,0.3830181637684477,-1.9280963428590099
1.3153819172911,10.248961994168653,-0.03218144254171136,0.366950934602002,-1.9340174097042562
1.309625494925747,10.184348707857122,-0.03177880596221043,0.35097446885943967,-1.9365671136706541
1.3039427387414766,10.122602672189366,-0.03136292941857309,0.3350925941156197,-1.935489589934053
1.29833625955378,10.063706464467522,-0.030931283778055433,0.31930971390486845,-1.9305135426478162
1.2928091366377512,10.007641811949327,-0.030481193066708413,0.3036308696306421,-1.921351206600465
1.2873649462065235,9.95438947097103,-0.030009811724711167,0.28806180790597524,-1.9076973728026918
1.2820077943202186,9.903929093521935,-0.029514098123122116,0.27260905263953666,-1.8892285474886283
1.2767423549812917,9.85623908054703,-0.02899078342050939,0.25727998041494926,-1.8656023464709963
1.27157391437132,9.811296421622067,-0.028436334468064296,0.2420828965291022,-1.8364572728306716
1.266508422467386,9.769076521280411,-0.02784690890898147,0.22702710726708883,-1.801413091010812
1.2615525536879104,9.729553013306724,-0.027218299751856394,0.21212298132941768,-1.7600721019691525
1.2567137788283893,9.692697565938516,-0.026545865353934932,0.1973819894284521,-1.7120217519832595
1.252000451467833,9.658479683397704,-0.025824438652247983,0.18281670546945486,-1.6568391844335553
1.2474219134315436,9.626866512865753,-0.025048206195410018,0.16844074488556618,-1.5940985836240777
1.2429886260595724,9.597822671366039,-0.02421054238204706,0.15426860511126,-1.5233824752835434
1.2387123373806985,9.571310114528476,-0.023303776272108084,0.14031535975055673,-1.44429854269256
1.2346063004885457,9.547288079297136,-0.022318855862922565,0.12659614281990295,-1.3565039632107685
1.2306855664592196,9.525713145253544,-0.021244855574033914,0.11312534655333244,-1.2597396674452077
1.226967387525504,9.506539473022443,-0.02006824368947227,0.09991545601444739,-1.1538770176799613
1.223471785119815,9.489719288890058,-0.018771783040406494,0.08697547878983027,-1.0389786454330323
1.2202223661513691,9.475203682036629,-0.017332872164546227,0.0743090418038376,-0.9153725602952062
1.2172475154117426,9.462943743964374,-0.015721024942414747,0.06191249233233865,-0.7837325841852074
1.2145821663971643,9.452891972420154,-0.013893964108456105,0.04977385815897105,-0.6451471048581711
1.212270501347715,9.445003627147766,-0.011791203107647686,0.03787442264535012,-0.501142507331878
1.2103703173911637,9.439237262267714,-0.009321951965144109,0.02619629824410907,-0.3536135342200778
1.2089611276020589,9.435552630954376,-0.006335712358243138,0.014744049681846668,-0.20461330691954982
1.2081647348527573,9.433900132028555,-0.002513095967329443,0.003617049493957289,-0.05599287954935203
