x,y,v_x,v_y,omega
2.375,32.48,0.0,2.41025641025641,-2.0
2.3746841154581317,32.026480446611195,-0.003325100440718466,2.3636336254151655,-1.901077387073226
2.373774056649109,31.581686182618064,-0.006254465970047954,2.318411258723076,-1.8092354109294992
2.372340839166685,31.145357687859796,-0.008832033844942747,2.274520265048176,-1.7238026799723747
2.370447631746702,30.717248129164084,-0.011096465312770728,2.2318961422751076,-1.6441838166586573
2.368150692510451,30.297122533532693,-0.01308184243723983,2.1904785485816136,-1.5698496336019008
2.365500182395743,29.88475703023175,-0.014818264033371708,2.1502109598493733,-1.5003287264666774
2.362540873432314,29.479938154650203,-0.016332356634298124,2.1110403620616607,-1.435200258845503
2.3593127667517506,29.08246220769289,-0.017647713687425105,2.072916974331114,-1.3740877531841156
2.3558516329256105,28.692134665240683,-0.018785273956154223,2.0357939988500053,-1.3166537334186064
2.3521894853126533,28.30876963286373,-0.01976364828550067,1.999627394591598,-1.262595090776384
2.348354995497841,27.932189341534034,-0.020599402396733142,1.9643756720367918,-1.2116390653216087
2.3443738585663514,27.562223680566138,-0.021307302145264738,1.9299997065726446,-1.163539753200294
2.3402691148300447,27.198709764432117,-0.02190052665796087,1.8964625685223278,-1.118075063877832
2.3360614336750136,26.841491530459606,-0.02239085392131436,1.863729368030384,-1.075044063532728
2.331769364397041,26.490419364737825,-0.022788822688924033,1.8317671132515154,-1.0342646506306434
2.32740955821255,26.145349753833102,-0.023103873989933053,1.80054458048242,-0.9955715179181724
2.322996965055755,25.80614496015847,-0.023344475028958537,1.7700321950400126,-0.9588143619407179
2.3185450082816947,25.472672719055797,-0.023518227855885768,1.7402019218302427,-0.9238563069416361
2.3140657399758586,25.14480595583796,-0.023631964837126034,1.7110271646733186,-0.8905725148338232
2.3095699792129234,24.822422521206125,-0.02369183266745491,1.6824826735565075,-0.8588489570075515
2.3050674353001597,24.505404943605917,-0.023703366414271083,1.6545444590772758,-0.8285813271782969
2.3005668177775287,24.19364019721873,-0.023671554876577846,1.6271897134194275,-0.7996740773909488
2.2960759347197657,23.887019484402778,-0.023600898363036575,1.6003967372748023,-0.772039561768871
2.291601780690288,23.585438031504154,-0.023495459841988066,1.574144872184423,-0.7455972746992595
2.2871506155280183,23.288794897053073,-0.023358910287169347,1.5484144378269618,-0.7202731719392246
2.2827280350021524,22.99699279144566,-0.023194568932468976,1.5231866738299942,-0.6959990646590423
2.2783390342433862,22.709937907288257,-0.023005439054546512,1.498443685721623,-0.672712077750793
2.2739908556585946,22.427540388176332,-0.022764861837995056,1.4741617786144205,-0.6492121127745596
2.2696896806363998,22.149713517854018,-0.022510664711422945,1.4503315931994387,-0.626752031654615
2.26543792096058,21.87637295140711,-0.022244700297206738,1.4269375272943172,-0.6052737943640792
2.261237654061579,21.607437243196152,-0.021968635481752468,1.403964664399954,-0.5847232109471385
2.257090656560177,21.34282772018173,-0.021683969796160385,1.3813987357518462,-0.565049645559693
2.2529984345000504,21.08246836222279,-0.021392051889385904,1.3592260848685724,-0.5462057462899409
2.2489622506116156,20.826285688891677,-0.021094094304663778,1.337433634406325,-0.5281471982542245
2.2449831489118894,20.574208652384293,-0.020791186745087283,1.3160088551450582,-0.5108324977314938
2.241061976911819,20.32616853613556,-0.020484307992491367,1.2949397369468492,-0.494222745336498
2.2371994056731808,20.082098858779254,-0.02017433662475869,1.274214761540636,-0.4782814564412374
2.2333959479311294,19.841935283117913,-0.019862060659989966,1.2538228769997795,-0.4629743872397067
2.2296519744755026,19.605615529792885,-0.01954818624134565,1.2337534737900004,-0.44826937501551156
2.2259677289635413,19.37307929536668,-0.01923334546350866,1.2139963622753314,-0.4341361913180721
2.222343341318619,19.144268174550533,-0.018918103430407843,1.1945417515788526,-0.4205464068831023
2.218778839853462,18.919125586328725,-0.01860296462388149,1.1753802297033078,-0.40747326724878186
2.215274162242046,18.69759670374861,-0.018288378654178056,1.1565027448242413,-0.3948915781222185
2.2118291654516327,18.479628387161164,-0.017974745455439294,1.1379005876751902,-0.3827775996429056
2.208443634735032,18.265169120711697,-0.017662419982460785,1.119565374950737,-0.37110894877219086
2.205117291773097,18.05416895189378,-0.01735171645896509,1.1014890336589587,-0.35986450911142503
2.2018498020483808,17.846579433991973,-0.017042912222256287,1.083663786360032,-0.3490243475174301
2.1986407815228515,17.64235357125068,-0.0167362512043676,1.0660821372325477,-0.3385696369430909
2.195489802685305,17.44144576661681,-0.016431947085592532,1.0487368589134547,-0.32848258498398386
2.1923964000276825,17.24381177191418,-0.016130186152540214,1.0316209800615714,-0.31874636765969094
2.1893600750036866,17.049408640316496,-0.015831129889522066,1.0147277735982756,-0.3093450680013859
2.1863803005179165,16.858194680994337,-0.015534917329109893,0.9980507455823572,-0.30026361905595433
2.1834583590564307,16.670327429411124,-0.015222361212846555,0.9794992710830247,-0.332652857440517
2.180592701311513,16.48597470482417,-0.014942457154704616,0.9610557245691234,-0.3664643911873986
2.177777190738885,16.305116267250604,-0.014694496241381255,0.9427173025210386,-0.40159419467117696
2.1750058307558553,16.127732399167453,-0.014477714106301273,0.92448130888054,-0.43794011088658635
2.172272774763785,15.953803885411393,-0.014291296336539748,0.9063451517095698,-0.4754016293977687
2.1695723351888043,15.783311993679188,-0.014134383400101279,0.8883063402083892,-0.513879666883173
2.166898991629,15.616238455560975,-0.014006075124155958,0.8703624820885965,-0.553276349357873
2.1642473981907955,15.452565448039145,-0.0139054347516789,0.8525112812990798,-0.5934947951418112
2.1616123900922997,15.292275575385698,-0.013831492600909318,0.8347505361056395,-0.6344388976219065
2.1589889896070478,15.13535185139052,-0.013783249349110502,0.8170781375278152,-0.6760131068276656
2.156372411417754,14.98177768185213,-0.013759678959247177,0.799492068139448,-0.7181222088034341
2.153758067446415,14.831536847260821,-0.013759731265374825,0.7819904012427259,-0.7606711017151008
2.15114157122438,14.68461348560201,-0.013782334229728731,0.7645713004289588,-0.8035645675742444
2.1485187418637963,14.54099207520466,-0.013826395881680203,0.7472330195431651,-0.8467070383975899
2.1458856076901798,14.400657417556047,-0.013890805945862787,0.7299739030737911,-0.890002355543279
2.1432384095947588,14.263594619999644,-0.013974437163830072,0.712792386993601,-0.9333535208768546
2.1405736041646923,14.129789078227361,-0.014076146310553646,0.6956870000830594,-0.9766624383178129
2.137887866649322,13.99922645847099,-0.014194774903866775,0.6786563657734749,-1.0198296442008328
2.1351780938213065,13.87189267928989,-0.01432914960156464,0.6616992045539111,-1.0627540247529261
2.13244140679282,13.747773892842883,-0.014478082277239155,0.6448143369935181,-1.105332518837262
2.129675153849092,13.62685646552173,-0.014640369762004253,0.6280006874396643,-1.147459803944711
2.126876913364377,13.509126957811048,-0.014814793234998501,0.6112572884622279,-1.1890279632236112
2.124044496869169,13.39457210322518,-0.015000117240871705,0.5945832861258514,-1.229926131125286
2.1211759523420928,13.283178786155638,-0.015195088307298056,0.5779779461851106,-1.2700401150060263
2.118269567805566,13.174934018443349,-0.015398433129828026,0.5614406613126773,-1.309251989764461
2.115323875311157,13.069824914467286,-0.015608856285001386,0.5449709594879806,-1.3474396623059781
2.112337655408661,12.967838664515003,-0.01582503742548747,0.5285685136939395,-1.3844764023135343
2.109309942202457,12.868962506170295,-0.016045627902973963,0.5122331530924666,-1.4202303354687538
2.1062400291099066,12.773183693418286,-0.01626924675545081,0.49596487587603527,-1.4545638949129038
2.103127475449538,12.680489463127863,-0.016494475985266793,0.479763864023147,-1.4873332263718586
2.099972114001883,12.590866998524717,-0.016719855042680327,0.4636305002204889,-1.5183875420053476
2.096774059703275,12.504303389214606,-0.016943874416352346,0.4475653872543782,-1.5475684176990405
2.093533719653101,12.420785587254624,-0.017164968217059276,0.43156937021911873,-1.5747090282297613
2.090251804638249,12.34030035869948,-0.017381505623491587,0.41564356194030455,-1.5996333145468964
2.086929342405321,12.26283422996881,-0.01759178103890798,0.3997893720667398,-1.6221550773978082
2.083567692942139,12.188373428289722,-0.017794002784057784,0.38400854034472787,-1.6420769917868503
2.0801685660658378,12.116903815365102,-0.017986280124378792,0.3683031746512669,-1.6591895374510042
2.0767340416563145,12.048410813302876,-0.018166608396919595,0.35267579442480623,-1.6732698418871643
2.0732665929221104,11.982879321714684,-0.0183328519631202,0.3371293801877475,-1.6840804348090832
2.0697691131424287,11.92029362475693,-0.018482724665110837,0.32166742989385594,-1.691367916732704
2.0662449463960657,11.86063728674722,-0.01861376740186897,0.3062940228399175,-1.6948615504000668
2.062697922868534,11.80389303485374,-0.0187233223616208,0.29101389182828674,-1.6942717929995104
2.059132399426971,11.7500426272392,-0.018808503339042045,0.27583250411424654,-1.689288801157816
2.0555533062753253,11.699066704969624,-0.018866161415123563,0.260756151354956,-1.6795809617221675
2.051966200660239,11.65094462601235,-0.018892845059469532,0.2457920481953109,-1.6647935327284573
2.048377328807666,11.605654279811766,-0.01888475338866956,0.2309484381266389,-1.6445475255297417
2.0447936975585526,11.56317188134749,-0.018837680812523815,0.21623470360258581,-1.6184390279497491
2.0412231575830297,11.523471744404933,-0.018746950508765268,0.2016614747401121,-1.586039269873078
2.0376745006596435,11.486526035263342,-0.01860733289530296,0.187240726750338,-1.5468958817267104
2.034157574431154,11.45230451049267,-0.018412943194055325,0.17298584978305984,-1.5005360136565786
2.0306834194958103,11.420774246578848,-0.018157108756934746,0.15891166509926632,-1.44647229683068
2.0272644360061314,11.391899375418632,-0.017832191134423244,0.14503434711351978,-1.384213072819175
2.0239145907026757,11.365640849340565,-0.017429338375637572,0.13137119055034407,-1.3132789276854573
2.0206496814708568,11.341956273393738,-0.016938127222453674,0.11794013520572573,-1.2332283598679794
2.017487686668049,11.320799862192374,-0.01634602859657565,0.10475893007179524,-1.143696326769558
2.0144492432261383,11.30212260334989,-0.015637586581434163,0.09184379458594279,-1.044450194605375
2.0115583250778055,11.285872735348967,-0.014793130769436556,0.07920744752903702,-0.9354675341783415
2.008843238567348,11.27199666097864,-0.013786727235382079,0.06685649321123807,-0.8170376100129428
2.0063381261280986,11.260440384902978,-0.012582877388290269,0.05478851811154163,-0.6898801931285673
2.0040853002774277,11.251151417264538,-0.011131078934564682,0.04299008860887599,-0.5552571979119323
2.0021390000944117,11.244080702941197,-0.009356291412973032,0.0314384832157614,-0.41502266992170767
2.0005719098207693,11.239183288789594,-0.007139395677997674,0.020113244695869774,-0.2715245733011511
1.9994887582527203,11.236414257209116,-0.004262199775149105,0.00903445615125718,-0.12726672954300988
