x,y,v_x,v_y,omega
2.375,32.48,0.0,3.230769230769231,-2.1224489795918373
2.374578425111152,31.90498381353555,-0.00468416543164286,3.1582995077245872,-1.9936563401928955
2.373373737203944,31.34276432841378,-0.008701255759555809,3.0885836602951304,-1.8765095070296725
2.3714978498469836,30.792860696844016,-0.012141937095561928,3.021456690480007,-1.7696395943848948
2.3690475564061444,30.254820588270825,-0.015083545580428105,2.9567667381110336,-1.6718678296104597
2.366106736193093,29.728217943470717,-0.0175922345645878,2.8943737596679147,-1.5821756070026973
2.3627482080884272,29.21265095179633,-0.019724744376146026,2.8341483700474996,-1.499679775602925
2.3590352931002925,28.707740224417147,-0.021529866603125145,2.7759708230545446,-1.423612160045494
2.3550231357021807,28.213127140383037,-0.02304966004256537,2.7197301106577734,-1.353302520950494
2.350759824542867,27.72847234562302,-0.02432046394980577,2.6653231644535196,-1.2881643225124226
2.346287345720223,27.253454387726798,-0.025373745190686078,2.6126541455045333,-1.2276828008914462
2.3416423958625505,26.7877684716481,-0.02623680878344947,2.5616338109254557,-1.1714049259922608
2.3368570774605986,26.331125323400364,-0.026933395682685556,2.5121789473826928,-1.118930927394028
2.3319594950033324,25.883250150452334,-0.027484187175828147,2.464211863151001,-1.0699071172451446
2.3269742673061087,25.443881688925842,-0.027907231682210636,2.4176599315877563,-1.0240197924141612
2.3219229688361964,25.012771328892008,-0.028218306872372683,2.37245517989932,-0.9809900378148503
2.3168245107236016,24.58968231008813,-0.028431227712013236,2.328533917921538,-0.9405692846946141
2.3116954704046835,24.174388981263768,-0.02855810916485227,2.285836402349144,-0.9025355034126423
2.306550377410429,23.766676117131745,-0.028609590771313816,2.244306532451111,-0.8666899310987145
2.301401961623402,23.36633828756732,-0.028595029084538693,2.203891573820282,-0.8328542515608719
2.296261369341552,22.97317927428076,-0.028522662936016754,2.1645419071414915,-0.8008681586741264
2.2911383516664685,22.58701153069783,-0.028399755676024194,2.126210799335503,-0.7705872458430021
2.2860414290487583,22.20765568122954,-0.028232717854088943,2.0888541947566246,-0.7418811734710579
2.280978035249927,21.8349400565056,-0.028027213244031034,2.05243052439822,-0.714632074074609
2.2759546434990625,21.46870026149282,-0.02778825065446624,2.0169005312993717,-0.6887331610520653
2.2709768772178567,21.10877877372608,-0.027520263581156147,1.9822271105533282,-0.664087512410077
2.2660496073461456,20.75502456915138,-0.02722717943785682,1.9483751624988348,-0.6406070051503068
2.261177038011521,20.40729277332153,-0.02691247983574935,1.9153114578328805,-0.6182113796952531
2.2563627820420185,20.065444335899667,-0.026579253158722522,1.8830045135211249,-0.5968274168069339
2.2516099276131762,19.729345726617492,-0.026230240495077075,1.8514244785030396,-0.5763882120329427
2.2469210971439733,19.39886865100567,-0.025867875829404082,1.8205430282949489,-0.5568325348855795
2.242298499405354,19.07388978436724,-0.025494321266366127,1.7903332676876629,-0.5381042617909919
2.237743975676177,18.754290522601735,-0.02511149794670783,1.7607696408179399,-0.5201518733935369
2.233259040671028,18.439956748611177,-0.024721113221613387,1.7318278479660265,-0.5029280081127091
2.228844918869631,18.13077861312957,-0.0243246845716895,1.7034847684962326,-0.4863890649645686
2.2245025767961644,17.826650328917566,-0.023923560689049345,1.6757183894149525,-0.4704948496084915
2.2202327517266554,17.527469977353775,-0.023518940083275933,1.6485077390716416,-0.45520825838968354
2.216035977242104,17.233139326535685,-0.02311188752284839,1.6218328255737966,-0.44049499584013035
2.211912605992705,16.943563660076556,-0.022703348581588737,1.595674579527617,-0.4263233216937784
2.207862829993227,16.65865161585136,-0.022294162523717916,1.570014800752352,-0.4126638239809539
2.2038866987303685,16.37831503400525,-0.021885073730269048,1.544836108648853,-0.39948921520507846
2.199984135328764,16.102468813592974,-0.021476741843115,1.5201218959320124,-0.38677414898229573
2.1961549509926765,15.83103077726743,-0.021069750780073584,1.4958562854629391,-0.37449505485065226
2.1924010484432466,15.563921842339212,-0.020640277546927547,1.4720207692950467,-0.36190019696044456
2.188723876348858,15.301065584344077,-0.020217190168502323,1.4486043195398102,-0.34983664955421684
2.1851222697724433,15.042387825010604,-0.019800660680546887,1.4255930063876674,-0.33827605461689886
2.1815950364032344,14.787816840795035,-0.019390821199554865,1.4029734848964313,-0.3271918528356998
2.178140963310479,14.537283260391689,-0.01898776871994892,1.380732964029633,-0.3165591512827255
2.1747588228820387,14.290719967641664,-0.018591569373833276,1.3588591776373309,-0.3063546021319567
2.1714473780390757,14.048062009502875,-0.018202262214642502,1.3373403572380993,-0.29655629138393935
2.168205386807675,13.809246508768915,-0.017819862578697523,1.3161652064725629,-0.2871436366767581
2.165031606319087,13.574212581246538,-0.017444365072283148,1.2953228771094132,-0.2780972933553246
2.161924796302218,13.34290125712219,-0.017075746226262473,1.274802946494467,-0.2693990680541381
2.158883722124874,13.1152554062669,-0.01671396685533762,1.2545953963420629,-0.26103183912269706
2.155907157433965,12.891219667246268,-0.016358974154762874,1.2346905927760632,-0.2529794832887451
2.152993886439318,12.670740379818273,-0.016010703563537187,1.2150792675349904,-0.2452268080134489
2.1501427058808193,12.453765520716505,-0.015669080419781014,1.195752500262448,-0.2377594890452658
2.147352426714242,12.240244642529984,-0.015334021431079297,1.1767017018100339,-0.23056401272637383
2.144621875547245,12.030128815503385,-0.015005435979997546,1.157918598485484,-0.22362762264774375
2.1419498958536014,11.823370572093147,-0.014683227282707854,1.139395217183849,-0.21693827028678334
2.1393353489906586,11.619923854125627,-0.014367293416658265,1.121123871344141,-0.21048456929546236
2.1367771150423285,11.419743962413623,-0.0140575282314493,1.1030971476781433,-0.20425575313736638
2.1342740935075017,11.222787508696612,-0.013753822155516952,1.0853078936219718,-0.19824163579960022
2.1318252038516197,11.029012369778826,-0.013456062909837061,1.0677492054645583,-0.19243257533020441
2.129429385937257,10.83837764374707,-0.013164136138640025,1.0504144171105203,-0.18681943997405226
2.127085600347836,10.650843608157711,-0.012877925966038139,1.0332970894379034,-0.18139357670032177
2.124792828617107,10.466371680089033,-0.01259731548650399,1.0163910002140741,-0.17614678193281644
2.122550073375656,10.284924377961563,-0.012322187196282674,0.9996901345356013,-0.17107127431084426
2.120358500761218,10.106679015592949,-0.012028619630810415,0.9808138917823491,-0.21305229799836795
2.1182163044299305,9.931822254399481,-0.011773561827936723,0.9620390103672807,-0.2561425364292817
2.1161166605832387,9.760336075109954,-0.01155581424641931,0.9433629817385795,-0.30024521339743654
2.114052963349174,9.592202901472557,-0.011374155020967945,0.9247833920102907,-0.34526479796315906
2.1120188285188632,9.427405583423749,-0.011227343093594914,0.9062979196431344,-0.39110679624696315
2.1100080967495995,9.265927380645198,-0.011114121009331738,0.8879043334518493,-0.4376775434483333
2.108014836293218,9.107751946449856,-0.01103321739490757,0.8696004909408467,-0.4848839951724858
2.1060333453053968,8.952863311937644,-0.010983349136441084,0.8513843369726,-0.5326335171170951
2.104058153788845,8.801245870360269,-0.010963223269691737,0.8332539027760201,-0.5808336721319236
2.1020840252211195,8.652884361632964,-0.01097153859392325,0.8152073053051316,-0.6293920036164896
2.1001059579160533,8.50776385692895,-0.011006987017926177,0.7972427469616973,-0.6782158141635951
2.098119186166462,8.365869743289476,-0.01106825464420004,0.7793585156991145,-0.7272119382888731
2.0961191812149624,8.227187708178949,-0.011154022594679484,0.7615529855289774,-0.7762865080074991
2.094101652099361,8.091703723910278,-0.01126296757867162,0.743824617456246,-0.8253447099277402
2.092062546419207,7.959404031860551,-0.011393762200818686,0.7261719608740677,-0.8742905324258199
2.0899980510707845,7.83027512639093,-0.011545075003873532,0.7085936554550655,-0.923026501346243
2.087904592999031,7.704303738377554,-0.0117155702378333,0.6910884335824454,-0.9714534025347018
2.0857788400167134,7.58147681825168,-0.011903907343472471,0.6736551233717292,-1.019469989355248
2.0836177017436963,7.461781518437405,-0.01210874013449788,0.656292652342436,-1.0669726731677278
2.081418330722339,7.345205175063793,-0.012328715658356835,0.639000051808806,-1.1138551945435922
2.079178123769088,7.231735288814711,-0.01256247271109888,0.6217764620698867,-1.1600082727760772
2.0768947236272,7.1213595047641185,-0.012808639976547078,0.6046211384922391,-1.2053192309924534
2.0745660209914245,7.014065591026405,-0.013065833754290938,0.5875334585934525,-1.2496715938996916
2.0721901569824266,6.909841416030321,-0.013332655234573335,0.5705129302519036,-1.2929446548890378
2.0697655261569343,6.808674924200716,-0.013607687270897355,0.5535592011881408,-1.3350130088887942
2.0672907801491838,6.710554109804011,-0.013889490592999034,0.5366720698863452,-1.375746046988326
2.0647648320503924,6.615466988680652,-0.014176599393572588,0.5198514981509857,-1.4150074084619872
2.0621868616459245,6.5234015675498505,-0.014467516211626903,0.5030976255245831,-1.4526543854040097
2.059556321644772,6.434345810528118,-0.01476070602339913,0.4864107858279809,-1.488537274753272
2.056872945053235,6.348287602452324,-0.015054589438121338,0.46979152612528,-1.5224986720552491
2.0541367538645723,6.265214708539453,-0.015347534880353373,0.45324062846216445,-1.5543727009014618
2.0513480692592956,6.185114729847729,-0.015637849622723927,0.43675913477919415,-1.5839841716419272
2.048507523537139,6.107975053926115,-0.015923769512346767,0.4203483754609849,-1.6111476627407681
2.0456160740320946,6.03378279995032,-0.01620344721036968,0.40401000204784904,-1.635666518125442
2.0426750192968877,5.962524757542337,-0.01647493873637168,0.3877460247075001,-1.6573317541946104
2.0396860178837115,5.894187318356181,-0.01673618807669737,0.3715588551386613,-1.675920870989201
2.0366511100948825,5.828756399385053,-0.016985009576959195,0.3554513556516577,-1.691196563677605
2.0335727431316872,5.766217356805178,-0.017219067791877644,0.3394268952358428,-1.7029053333752835
2.0304538001337535,5.706554889021891,-0.017435854407386882,0.32348941346735877,-1.7107760010250275
2.027297633677259,5.649752927429713,-0.01763266177588377,0.30764349311240635,-1.7145181355125247
2.024108104391683,5.59579451325094,-0.017806552508295593,0.29189444220727456,-1.7138204187208825
2.02088962546684,5.544661658694892,-0.01795432443440506,0.27624838619327624,-1.708348987816491
2.0176472139626944,5.496335190613376,-0.01807247005610132,0.26071237026801586,-1.697745821637138
2.0143865500166362,5.450794574867562,-0.01815712934454359,0.24529447135214338,-1.6816272779601618
2.0111140452870653,5.408017719847603,-0.01820403431735659,0.23000391775849696,-1.6595829480797626
2.00783692231192,5.367980758126613,-0.018208443184259845,0.21485121247472544,-1.631175083971035
2.0045633069521447,5.3306578062828045,-0.018165060813239545,0.19984825245647003,-1.5959389851794072
2.001302336826859,5.296020704792252,-0.01806794057882453,0.18500843077188842,-1.553384927338008
1.9980642897878176,5.264038743038199,-0.017910359854968957,0.17034669982870917,-1.5030024997385625
1.9948607382950736,5.234678379574326,-0.017684656731074815,0.155879560881008,-1.4442686327135221
1.9917047385017674,5.2079029757644655,-0.017382007638995722,0.14162492589521367,-1.3766611810410265
1.9886110677117081,5.183672573028982,-0.016992112250551934,0.1276017711656968,-1.2996807272204383
1.9855965319515294,5.161943761507068,-0.01650272952921108,0.1138294679666986,-1.2128842777693292
1.982680378890028,5.142669711819828,-0.01589897115413806,0.10032663966928944,-1.1159356113086056
1.9798848738427217,5.125800470298941,-0.015162196038154344,0.08710937722943674,-1.0086777130984894
1.9772361339899476,5.111283643479101,-0.014268246770446389,0.074188698546569,-0.8912317293992297
1.9747653780682142,5.099065596535784,-0.01318459680437066,0.06156737860141413,-0.7641214713958967
1.9725108548133745,5.089093209227215,-0.01186566158273491,0.04923692482713657,-0.628408033693521
1.970520914035843,5.081315968216217,-0.010244791500949521,0.03717686418397183,-0.48579065239706665
1.9688591656188432,5.07568754273278,-0.008219079799048335,0.02536119674308654,-0.3385901616172664
1.9676143082479705,5.072164526800666,-0.00561266876620433,0.013783424724833952,-0.18950382100639795
1.9669259466522495,5.070694597939049,-0.00203579340847194,0.0025491181820418134,-0.04105877183125023
