x,y,v_x,v_y,omega
2.375,32.48,0.0,2.564102564102564,-5.428571428571429
2.3741988133537792,32.02296302158533,-0.008902073846895828,2.5140860849492657,-5.158260191739742
2.3718898429739803,31.574787826145492,-0.016753152595315506,2.4656383088267493,-4.907521274107627
2.3682517856602483,31.135199650951915,-0.023669706446153786,2.418674748879652,-4.674472011938387
2.3634436429908905,30.70393835120616,-0.029754100991155497,2.3731174705176237,-4.45744764114618
2.3576070881966786,30.280757283892072,-0.03509650783341934,2.3288943885277873,-4.254972133802511
2.3508685152940405,29.86542230931887,-0.03977652441811429,2.2859386622855786,-4.065733468403115
2.34334081833838,29.457710894196637,-0.04386455286700052,2.244188172405874,-3.8885625760417306
2.3351249405577263,29.057411302791266,-0.04742297802915257,2.2035850654315836,-3.7224153491744594
2.3263112265655197,28.664321864888816,-0.050507177439811216,2.1640753557067645,-3.566357213667348
2.316980605502336,28.278250311071968,-0.053166389928899285,2.1256085755915404,-3.419549855381241
2.3072056285697613,27.899013167259355,-0.05544446487748207,2.08813746677082,-3.2812397649559486
2.2970513808025967,27.526435201648653,-0.05738051031323471,2.0516177066814274,-3.150748322703534
2.2865762839279684,27.160348918187985,-0.05900945496041335,2.01600766510381,-3.027463192645134
2.275832804664089,26.800594091517624,-0.0603625368604707,1.9812681867890736,-2.9108308330550825
2.264868080724308,26.447017339007083,-0.06146772913709452,1.9473623966613718,-2.8003499622078807
2.2537244750397964,26.099471726086204,-0.06235011180192508,1.9142555246817463,-2.6955658437555456
2.2424400672374754,25.75781640155318,-0.06303219711275261,1.8819147479073939,-2.5960652773891506
2.231049090160979,25.421916259953058,-0.06353421484831434,1.8503090476495023,-2.501472198020627
2.21958231816287,25.091641628470132,-0.0638743629084549,1.8194090799385831,-2.4114438013417234
2.208067412994603,24.766867976077194,-0.06406902785006686,1.7891870577607136,-2.3256671258201695
2.1965292323511276,24.447475642942052,-0.06413297929966343,1.7596166437408771,-2.2438560314139973
2.1849901054683607,24.133349588313827,-0.0640795416199659,1.7306728521282821,-2.165748523873974
2.173470079606667,23.82437915530425,-0.06392074573218734,1.7023319590892738,-2.0911043807445115
2.161987140767411,23.52045785114651,-0.06366746359287842,1.6745714204411275,-2.0197030412952333
2.15055741157066,23.221483141660634,-0.06332952748213676,1.6473697960686087,-1.9513417278062155
2.1391953288600822,22.927356258782247,-0.06291583596872193,1.6207066803579189,-1.885833770043306
2.1279138032876883,22.637982020124443,-0.062434448168989125,1.5945626380621312,-1.8230071085221284
2.1167243628591375,22.353268659641596,-0.061892667703800135,1.5689191450806117,-1.7627029553744227
2.105637282184037,22.073127668551884,-0.06129711757509623,1.5437585336939752,-1.704774594384457
2.0946616989698508,21.797473645753172,-0.06065380702696992,1.5190639418472858,-1.6490863041278452
2.083805719118536,21.526224157036232,-0.059968191320969,1.4948192661186956,-1.5955123901798123
2.073080264602821,21.259303223247557,-0.05920352552031141,1.470968887088833,-1.5417798888441745
2.062494235062535,20.996637393925322,-0.058419024927316265,1.4475403276026308,-1.4903242247096
2.0520509073053255,20.738152018001813,-0.05761795015278353,1.4245194048808139,-1.4410232755514032
2.041753000597205,20.48377494259463,-0.05680323549300344,1.4018925440878978,-1.3937627073920777
2.0316027325847568,20.233436406567247,-0.055977520200866084,1.3796467451052334,-1.3484353979625348
2.0216018698686664,19.98706893987365,-0.05514317664458184,1.3577695514902723,-1.3049409086085082
2.01175177375922,19.744607268308847,-0.05430233568259614,1.3362490214520253,-1.2631850000911111
2.0020534416886244,19.50598822331624,-0.05345690954624799,1.3150737006880329,-1.223079188202868
1.9925075447054386,19.271150656529546,-0.05260861248914984,1.294232596941914,-1.1845403355392181
1.9831144614323926,19.040035358751012,-0.05175897943358273,1.273715156152916,-1.1474902761371129
1.9738743088296684,18.812584983090048,-0.050909382818908756,1.2535112400800084,-1.111855470022659
1.9647869700708458,18.58874397200647,-0.050061047834675104,1.2336111052930745,-1.0775666850037853
1.9558521198076035,18.36845848802114,-0.049215066201349106,1.2140053834328068,-1.0445587033059458
1.9470692470715076,18.151676347873774,-0.048372408644161216,1.194685062649079,-1.0127700508827313
1.9384376760364275,17.93834695992321,-0.047533936190063436,1.175641470134969,-0.9821427474421939
1.9299565848429534,17.72842126459983,-0.046700410404092486,1.156866255680318,-0.9526220754166184
1.9216250226663527,17.521851677732872,-0.04587250266924863,1.1383513761747988,-0.9241563662708875
1.9134419251918342,17.3185920365875,-0.04505080260317885,1.1200890809959978,-0.8966968026947117
1.9054061286449688,17.118597548457785,-0.044235825695326164,1.1020718982230588,-0.8701972353587627
1.8975163825108223,16.92182474167182,-0.04342802023963539,1.0842926216210214,-0.8446140130358651
1.889771361062531,16.728231418874863,-0.042627773630265965,1.0667442983451745,-0.8199058249973712
1.8821696738085218,16.537776612465123,-0.04183541808094771,1.0494202173185732,-0.7960335546929759
1.8747098749572089,16.35042054206491,-0.04105123582253067,1.032313898239358,-0.7729601438107162
1.8673904719886754,16.166124573917372,-0.04027546382784224,1.0154190811777215,-0.7506504658937424
1.8602099334144404,15.984851182106102,-0.0395082981081016,0.9987297167252953,-0.7290712087625875
1.8531723359268661,15.80679007540196,-0.03868722953161347,0.9797270244318426,-0.7579331428572531
1.8462785909992405,15.632139718322854,-0.037909936330893845,0.9608324986693461,-0.7881994069636569
1.8395209365004561,15.460880886823048,-0.03717511365559771,0.9420434068840531,-0.8197587732087234
1.8328918479121836,15.292994838653463,-0.03648142621409739,0.9233571283335514,-0.8525017856015447
1.8263840434624505,15.128463293504446,-0.035827512116270215,0.904771151099996,-0.88632051818696
1.8199904886024831,14.967268413650498,-0.03521198632781053,0.8862830694994271,-0.9211083353624597
1.813704399894633,14.809392785025803,-0.034633443759412796,0.8678905818860552,-0.9567596533259264
1.8075192483752551,14.654819398659253,-0.034090462011454055,0.849591488853403,-0.9931697016055742
1.8014287624529295,14.503531632397081,-0.03358160379216275,0.8313836918373834,-1.0302342835992004
1.7954269303994141,14.355513232840039,-0.03310541902467408,0.8132651921297638,-1.067849535017145
1.7895080024881702,14.210748297420093,-0.03266044665581549,0.7952340903141033,-1.1059116790817156
1.7836664928332242,14.069221256539208,-0.03224521617691574,0.7772885861401819,-1.1443167772847522
1.7778971809795094,13.93091685568944,-0.0318582488643622,0.7594269788572399,-1.1829604744438575
1.7721951132946652,13.79582013746949,-0.03149805874501614,0.7416476680310788,-1.2217377367259452
1.7665556042116122,13.663916423407915,-0.031163153288907706,0.7239491548753221,-1.2605425812234077
1.7609742373710149,13.535191295497167,-0.03085203382883944,0.7063300441329747,-1.2992677955725949
1.7554468667130956,13.409630577335612,-0.030563195703597924,0.688789046550975,-1.337804645995591
1.7499696175691182,13.287220314766223,-0.030295128118370644,0.6713249819977873,-1.3760425720236888
1.7445388878043264,13.167946755891005,-0.030046313712650655,0.6539367832824039,-1.4138688660237164
1.739151349066177,13.051796330328763,-0.029815227822341653,0.6366235007425213,-1.451168335495847
1.7338039481944651,12.938755627570707,-0.029600337418901775,0.6193843076803325,-1.4878229459433505
1.728493908853392,12.828811374273194,-0.029400099704132238,0.6022185067364898,-1.5237114419309223
1.7232187334499094,12.721950410309319,-0.029212960334565316,0.5851255373065718,-1.5587089437493868
1.7179762054078145,12.618159663380922,-0.029037351244266325,0.5681049841200516,-1.5926865168923061
1.7127643918732063,12.517426121969358,-0.02887168802915643,0.5511565871195616,-1.6255107113272467
1.7075816469341185,12.419736806376736,-0.02871436684959634,0.5342802527984396,-1.6570430673161554
1.7024266154455796,12.325078737578913,-0.028563760800837515,0.5174760671773826,-1.6871395843133257
1.6972982375611414,12.233438903576541,-0.028418215692920808,0.5007443106267674,-1.7156501492577918
1.6921957540832508,12.14480422289083,-0.02827604517252842,0.48408547477001185,-1.7424179203976204
1.6871187127579148,12.059161504805349,-0.02813552510898425,0.467500281735345,-1.7672786626627894
1.6820669756541733,11.97649740590391,-0.027994887154809796,0.45098970605844063,-1.790060030579416
1.6770407277862505,11.896798382396796,-0.027852311377665674,0.43455499957617744,-1.8105807948461843
1.6720404871562353,11.820050637662707,-0.027705917844725238,0.41819771969147573,-1.8286500090530815
1.6670671164182336,11.746240064361853,-0.02755375702196169,0.40191976142913327,-1.8440661137262109
1.6621218363916763,11.675352180396622,-0.02739379882867186,0.3857233937401124,-1.856615976092135
1.6572062416826392,11.607372057911203,-0.02722392016063102,0.36961130054231406,-1.8660738659015657
1.6523223187086176,11.542284244432182,-0.027041890661831474,0.353586627002346,-1.8722003706642556
1.647472466465657,11.480072675162116,-0.026845356482174763,0.3376530315539395,-1.8747412581943401
1.6426595204290149,11.420720575353513,-0.02663182170273881,0.32181474409721844,-1.8734263011190513
1.637886780042611,11.364210351621526,-0.026398627035084186,0.30607663070262703,-1.8679680879229428
1.633158040332749,11.310523471016019,-0.026142925296714473,0.2904442649141179,-1.8580608595567099
1.628477628284623,11.259640326692399,-0.025861653015796442,0.27492400534833816,-1.8433794315969425
1.6238504447562059,11.211540089134278,-0.025551497299949127,0.2595230786307846,-1.8235782922039503
1.6192820128892906,11.16620054214772,-0.025208856776885818,0.24424966566429052,-1.798291009679869
1.6147785342369774,11.123597903354224,-0.024829794915485207,0.22911298759679583,-1.7671301459234405
1.6103469542009985,11.08370662978755,-0.024409983262056716,0.2141233853662556,-1.729687961404926
1.6059950389252835,11.046499210638196,-0.023944630912553933,0.1992923829599016,-1.6855383242675495
1.6017314666273879,11.011945951461474,-0.023428394619622636,0.18463271900365846,-1.634240415138655
1.5975659376331128,10.980014757651869,-0.022855260872321356,0.170158323325299,-1.5753450680371874
1.5935093093789956,10.95067093019508,-0.022218386395647317,0.15588420397236075,-1.50840492583615
1.5895737657900297,10.92387699426368,-0.021509875703972486,0.14182619526544768,-1.4329900305180407
1.5857730354049189,10.899592591764034,-0.020720461908371315,0.12800049917508,-1.3487110059559018
1.582122680472157,10.8777744828231,-0.019839037344537014,0.11442293350197155,-1.2552525534805208
1.5786404916164216,10.858376717718201,-0.01885194994141293,0.10110778988576873,-1.152420350487729
1.575347042065596,10.841351056466003,-0.017741933956650455,0.08806622402754478,-1.0402040984055418
1.5722664856587305,10.82664771879206,-0.01648647056407758,0.075304194571804,-0.9188573421007001
1.5694277303982231,10.814216521698203,-0.01505525455266944,0.06282021758217639,-0.7889889478691899
1.566866198197455,10.804008365846194,-0.013406214344754874,0.05060373632901989,-0.6516494692324513
1.5646265332410567,10.79597679966993,-0.011478951837448985,0.038635887851694514,-0.5083771892690718
1.5627669985882018,10.790078910519014,-0.009182544305382822,0.026896213825141124,-0.36114863460600377
1.561367568288589,10.786273742359242,-0.006366681245869681,0.015383432394539218,-0.21217208147758343
1.5605499266498735,10.784512644662144,-0.0027182258509700404,0.004184319795451242,-0.06349548385336753
