x,y,v_x,v_y,omega
2.375,32.48,0.0,3.4871794871794872,-4.326530612244898
2.3737248640608306,31.757526850508246,-0.012144151801611712,3.39351717464673,-4.002096153942204
2.3701185241104654,31.05424768549399,-0.02220194296377464,3.304379635012835,-3.714452966390162
2.3645828248446286,30.36924832999047,-0.030519002425144146,3.2194237507349714,-3.458248898704491
2.357453529352649,29.70168291907941,-0.03737904987942664,3.138342067465613,-3.229046546779029
2.34901204456607,29.05076692051638,-0.04301604332608441,3.0608579188489236,-3.0231462298456018
2.3394948694311655,28.415771091853973,-0.047623719863484675,2.986721401745461,-2.8374470102090883
2.329101249208607,27.796016212633855,-0.051363139398974654,2.9157060193985047,-2.66933678419115
2.3179994075437746,27.19086846569919,-0.0543686859803823,2.8476058561697597,-2.5166047759807846
2.3063316442497213,26.599735366858173,-0.056752869201077374,2.7822331804113274,-2.3773714295130626
2.294218523468929,26.02206216134236,-0.05861018585408874,2.7194163959297404,-2.2500319083550044
2.281762328642064,25.45732862036175,-0.06002024106843565,2.658998280076081,-2.1332103100117608
2.2690499236574713,24.905046182694683,-0.06105028259434998,2.60083445961026,-2.025722368768717
2.256155130892961,24.36475539546864,-0.061757267543843315,2.544792085399648,-1.9265449228087639
2.2431407145486877,23.83602361566899,-0.06218955478257117,2.490748674597056,-1.8347908011928127
2.230060040196895,23.318442939880768,-0.06238829618688086,2.4385910948145777,-1.7496880760451576
2.2169584677155276,22.811628334637753,-0.062388584588047656,2.388214669404627,-1.670562847827539
2.203874523882514,22.315215943758126,-0.06222040429779531,2.339522386591794,-1.5968249036023647
2.190840892245828,21.828861552365723,-0.06190942081350113,2.2924241980977604,-1.5279557219479374
2.177885250963436,21.352239190065788,-0.06147763901880071,2.246836395234939,-1.4634984027939955
2.1650309837530273,20.885039858070606,-0.0609439534612847,2.20268105233826,-1.4030491826888398
2.1522977846155236,20.42697036703502,-0.060324609753037974,2.1598855289530228,-1.3462502609995588
2.139702173375221,19.977752274030422,-0.059633592535555155,2.118382023471727,-1.2927837141523337
2.127257936138663,19.53712090850911,-0.05888295257452233,2.0781071719693522,-1.242366316186329
2.114976502377543,19.10482447833126,-0.058083083245667945,2.0390016868673095,-1.1947451168788052
2.1028672683806966,18.680623247976765,-0.05724295481953818,2.001010030794527,-1.1496936552389023
2.090937875211674,18.26428878197155,-0.05637031345686485,1.9640801216360693,-1.1070087076086592
2.0791944479842295,17.85560324734472,-0.055471850614037276,1.9281630652861395,-1.066507486999281
2.0676418021746135,17.454358769617343,-0.054553347572782594,1.8932129130698603,-1.02802522444692
2.0562836217840044,17.060356837421075,-0.05361979900444762,1.8591864411803072,-0.9914130747380737
2.045122613412261,16.673407751367655,-0.052675518821676384,1.8260429498046438,-0.9565362983370305
2.034160639677774,16.293330113249215,-0.051724231030581956,1.7937440798947566,-0.9232726791481032
2.0233988348950747,15.919950352053291,-0.05076914785227031,1.7622536457807096,-0.8915111441829071
2.012837705483921,15.55310228363258,-0.04981303701586159,1.731537482035605,-0.8611505565324571
2.002477217215987,15.19262670118463,-0.048858279821603845,1.7015633031829709,-0.8320986574695318
1.992316871096041,14.838370993975765,-0.047906921320736394,1.672300574996696,-0.8042711371927054
1.9823557694137064,14.490188791991478,-0.04696071374911774,1.6437203962822329,-0.7775908168021114
1.9725926732814905,14.147939634416183,-0.046021154176749395,1.6157953901491504,-0.7519869266755711
1.9630260527880778,13.811488660041906,-0.045089517189083994,1.5884996038915675,-0.7273944685792532
1.9536541307374142,13.4807063178812,-0.04416688329342658,1.561808416686578,-0.7037536506704636
1.944474920809325,13.155468096416772,-0.043254163640757015,1.5356984544032224,-0.6810093860894376
1.935486260862553,12.835654270061262,-0.042352121566595395,1.510147510887341,-0.659110847139638
1.9266858420030166,12.52114966152713,-0.04146139138137071,1.4851344751520272,-0.638011068161081
1.918082936634782,12.211844637171659,-0.04047104069705361,1.4606276615667462,-0.6144885131349744
1.9096856190714817,11.907633597854932,-0.039503412286759,1.4366203319258701,-0.5920737774087874
1.9014891349492824,11.608413570348574,-0.03855834125799573,1.4130942157537396,-0.5707013111688208
1.8934887709764068,11.314085328042967,-0.037635601340819766,1.3900319014425073,-0.5503101794025258
1.885679866753976,11.024553215896372,-0.03673491506328385,1.3674167856679154,-0.530843685616917
1.87805782460261,10.739724985634869,-0.03585596256877214,1.3452330263463916,-0.5122490303156837
1.8706181176613514,10.45951164048967,-0.034998389252738855,1.3234654988459778,-0.4944770006557357
1.8633562964906996,10.18382728881588,-0.03416181237251853,1.3020997551901072,-0.47748168810958846
1.856267994381431,9.912589005989133,-0.03334582676337049,1.2811219860170244,-0.4612202313155719
1.8493489315447689,9.645716704024053,-0.03255000977626933,1.2605189850789764,-0.44565258161001126
1.842594918336798,9.383133008401888,-0.03177392553773928,1.2402781160845164,-0.4307412890100172
1.8360018576503507,9.124763141634038,-0.031017128618900793,1.2203872817045365,-0.416451306657237
1.8295657465904631,8.870534813124348,-0.030279167189553712,1.2008348945782394,-0.40274981194610043
1.8232826775346127,8.620378114925852,-0.029559585723307892,1.1816098501693346,-0.3896060427483712
1.8171488386659815,8.374225423017851,-0.02885792731127421,1.1627015013354551,-0.37699114731234573
1.811160514056679,8.13201130375667,-0.028173735634461395,1.1440996344853138,-0.36487804656252726
1.8053140833680046,7.8936724251788135,-0.027506556638630456,1.12579444720854,-0.35324130765641104
1.7996060212262188,7.659147472858294,-0.02685593994980418,1.1077765272726008,-0.3420570277711791
1.7940328963247905,7.428377070041243,-0.026221440063799513,1.0900368328898025,-0.3313027271963931
1.7885913702975023,7.2013037018004695,-0.025602617338947073,1.072566674165174,-0.3209572509007394
1.783278196401075,6.9778716429705945,-0.024999038817500187,1.0553576956431432,-0.3110006778228579
1.7780902180409432,6.758026889640938,-0.024410278898043244,1.0384018598773879,-0.3014142372094528
1.7730243671694141,6.541717093998628,-0.023835919878423296,1.0216914319541472,-0.2921802313892648
1.7680776625816186,6.328891502328453,-0.02327555238629608,1.005218964904665,-0.2832819644299698
1.7632472081312711,6.119500895988992,-0.02272877571225159,0.9889772859473573,-0.2747036761774571
1.7585347318683953,5.913637050497886,-0.02215195060085142,0.9716307663488948,-0.29297266793601706
1.7539398206675512,5.711404034147364,-0.021609108454805296,0.9543979607989224,-0.31311722488574895
1.749455375028984,5.512778298322395,-0.021099897626786445,0.9372757137245777,-0.33502766182783417
1.745074378018884,5.317736944217458,-0.02062388342178555,0.9202609920367382,-0.35859723357412654
1.7407899118990344,5.126257697646448,-0.020180555814878175,0.9033508800681042,-0.38372189870640067
1.7365951732022213,4.938318884873539,-0.019769336535721868,0.886542574911972,-0.41030009060121253
1.7324834863816099,4.753899409382548,-0.019389585565341386,0.8698333821450726,-0.43823249480597426
1.7284483161531234,4.572978729505692,-0.019040607086910764,0.8532207119202285,-0.4674218318747311
1.7244832786414908,4.395536836835294,-0.018721654928637626,0.8367020754169083,-0.49777264478885375
1.7205821514329696,4.2215542353443105,-0.018431937533470423,0.8202750816400651,-0.5291910900984567
1.7167388826308037,4.051011921143306,-0.018170622487156462,0.8039374345599607,-0.561584731924771
1.7129475990031713,3.8838913628027676,-0.017936840633152533,0.7876869305880155,-0.594862337961846
1.7092026133076894,3.7201744821704814,-0.017729689800006002,0.7715214563861296,-0.6289336766076405
1.7054984308714627,3.5598436356139516,-0.017548238164058774,0.7554389870094068,-0.6637093143395605
1.7018297555011328,3.4028815956175578,-0.01739152726765585,0.7394375843848302,-0.6991004124274769
1.6981914947934325,3.249271532663375,-0.017258574710440885,0.7235153961312013,-0.735018522047836
1.6945787649133155,3.0989969973230913,-0.017148376528769396,0.7076706547286294,-0.7713753768251641
1.6909868949038418,2.9520419024864317,-0.017059909275741646,0.6919016770490674,-0.8080826817815205
1.687411430589647,2.808390505648674,-0.016992131811826742,0.676206864262897,-0.8450518976196171
1.683848138133989,2.6680273911763237,-0.016943986813490186,0.6605847021404319,-0.8821940192006472
1.6802930073080873,2.5309374524655723,-0.016914402004621517,0.6450337617714854,-0.9194193470025285
1.676742254530752,2.3971058739028166,-0.01690229111285612,0.629552700730934,-0.9566372502573174
1.6731923257361454,2.2665181125300933,-0.0169065545500636,0.6141402647235678,-0.9937559203669875
1.6696398991279924,2.139159879310622,-0.016926079813298515,0.5987952897475772,-1.0306821130834602
1.6660818878796655,2.0150171198807243,-0.016959741599338968,0.583516704822876,-1.0673208778105887
1.662515442841369,1.8940759946638046,-0.017006401622531146,0.5683035353382572,-1.1035752722414993
1.6589379553181969,1.7763228582098591,-0.01706490812196545,0.5531549070802649,-1.1393460603831438
1.6553470599861928,1.661744237609664,-0.017134095039978682,0.5380700510168236,-1.1745313918399976
1.6517406380177926,1.5503268098162657,-0.017212780849546336,0.523048308920296,-1.2090264600297111
1.648116820493251,1.4420573776871954,-0.01729976700323118,0.5080891399279819,-1.2427231367846883
1.644473992180966,1.3369228445386518,-0.017393835970911844,0.4931921281533699,-1.275509580555192
1.6408107957771392,1.2349101869772525,-0.01749374882743938,0.47835699147901745,-1.3072698151728293
1.6371261367040792,1.1360064257453395,-0.01759824234455976,0.46358359168207075,-1.3378832758608332
1.6334191885768536,1.0401985942817404,-0.01770602553377848,0.4488719460664931,-1.3672243188944448
1.6296893994600967,0.9474737046605064,-0.017815775578193034,0.4342222408023995,-1.3951616910292732
1.6259364990508272,0.8578187105249562,-0.017926133081517453,0.41963484620283986,-1.4215579545411106
1.6221605069393734,0.7712204665824238,-0.018035696551375536,0.40511033420223136,-1.446268863477822
1.6183617421192524,0.687665684165637,-0.018143016021205764,0.39064949833859985,-1.469142686543571
1.6145408339384733,0.6071408822987827,-0.018246585700499654,0.37625337658383473,-1.490019471963763
1.6106987347096704,0.5296323336292268,-0.018344835526195466,0.3619232774119211,-1.5087302497834267
1.6068367342252432,0.4551260044988936,-0.01843612146834873,0.34766080954361495,-1.5250961674313872
1.6029564764569688,0.38360748833200375,-0.018518714419979224,0.3334679158553353,-1.5389275551819437
1.5990599787581825,0.31506193140859295,-0.018590787473224058,0.3193469119866941,-1.5500229195748674
1.5951496539317334,0.24947394997697359,-0.018650401350102402,0.3053005302191836,-1.5581678652185234
1.5912283355799972,0.18682753753601844,-0.01869548771405093,0.2913319692184816,-1.5631339491431067
1.5872993072164068,0.12710596099505977,-0.018723830034429893,0.2774449502192241,-1.56467747763588
1.5833663356942713,0.07029164430527146,-0.018733041604955744,0.2636437801596928,-1.5625382642157226
1.5794337096026738,0.016366038067275213,-0.018720540219780975,0.2499334221069246,-1.5564383804562723
1.575506283397859,-0.03469052641811032,-0.018683518873694006,0.23631957299198597,-1.5460809507364026
1.5715895281925722,-0.08289900013395624,-0.018618911652847046,0.2228087481113044,-1.5311490705848045
1.5676895903323975,-0.12828179763091896,-0.01852335368215089,0.20940837090739667,-1.5113049703120633
1.563813359174774,-0.17086299740298472,-0.0183931335333097,0.19612686501702653,-1.486189607201375
1.5599685458978114,-0.21066856126196853,-0.018224135771096314,0.18297374316377787,-1.4554229594379369
1.5561637757756097,-0.24772657108624685,-0.018011770154636182,0.16995968373412934,-1.4186054256185632
1.552408697285574,-0.28206747879817584,-0.017750882131416082,0.1570965801890249,-1.3753209222019278
1.5487141128616209,-0.31372436141749205,-0.017435636191948947,0.14439753999494323,-1.3251425400538839
1.5450921384075202,-0.34273316685541033,-0.01705935860900863,0.1318767975090425,-1.267641996926507
1.5415564023867536,-0.3691329268649781,-0.016614317779243694,0.11954948829633702,-1.202404629936271
1.5381223013132292,-0.3929659002488961,-0.016091406730513187,0.10743121059814022,-1.1290523148185316
1.534807338251737,-0.4142775913180401,-0.015479670045603081,0.09553727577465915,-1.047277412843058
1.5316315868550605,-0.43311656627200534,-0.014765581351315324,0.08388153331069065,-0.9568913933471319
1.528618349243676,-0.44953396795919787,-0.01393191970949087,0.07247467323402856,-0.8578915351348473
1.5257951176320441,-0.4635826204336553,-0.012956000401289195,0.0613220169988886,-0.7505467121818847
1.523195017489031,-0.47531564949880334,-0.011806858103596541,0.050421116954910375,-0.6354962618516966
1.5208590277951122,-0.48478468472794845,-0.010440662790869257,0.039760170941708084,-0.5138411122333623
1.5188395155022207,-0.4920380576118859,-0.008792787617618068,0.0293195708100533,-0.3871826420015251
1.5172062811172036,-0.49712016515672985,-0.006761825573024049,0.019081453426577896,-0.2575402320713255
1.5160588619167108,-0.5000750544276968,-0.004165976336429625,0.009060349154089826,-0.12707542704674618
