x,y,v_x,v_y,omega
2.375,32.48,0.0,2.6153846153846154,-6.163265306122449
2.3738355448533413,31.96247674340215,-0.011644551466586377,2.559847950593873,-5.821009855350386
2.3704931249815964,31.455861372333665,-0.021779647250862254,2.5063057600909504,-5.5067989040670176
2.3652560192306096,30.959767246477206,-0.030591410259008363,2.454635498473649,-5.217602215224169
2.358372799520497,30.473831131361425,-0.03824078684211434,2.4047256526841623,-4.950782625456275
2.3500619837909733,29.99771113000979,-0.04486737045312371,2.356474360832164,-4.704037026648009
2.3405159897866414,29.531084868491135,-0.05059256959019425,2.3097882543544155,-4.4753474349291915
2.329904508110041,29.073647895040494,-0.055522247175811265,2.264581480151961,-4.262940204033396
2.318377390319878,28.625112260133264,-0.05974893072581714,2.220774868920378,-4.065251858250873
2.3060671300813262,28.185205250927535,-0.06335367165970347,2.178295223136895,-3.880900338759573
2.2930910013092345,27.753668258243792,-0.06640761606121189,2.1370747037005455,-3.7086607020077658
2.279552906020915,27.33025575802603,-0.06897333682198542,2.0970502984770505,-3.547444498729414
2.2655449755922747,26.91473439224853,-0.07110596746441543,2.058163359297946,-3.396282210636293
2.251148961808609,26.506882136665,-0.07285417037224166,2.0203591965373864,-3.2543082387649425
2.236437448154609,26.106487544769973,-0.07426096616775786,1.9835867224128656,-3.120748030198966
2.2214749069179165,25.71334905895305,-0.07536444619916725,1.9477981357563796,-2.994907003918879
2.2063186236711023,25.32727438114974,-0.07619838626897499,1.9129486422767066,-2.8761609959833088
2.1910195073802856,24.948079896386634,-0.07679277663919347,1.8789962053543432,-2.7639479922563783
2.175622801632829,24.57559014352785,-0.07717428083537187,1.8459013232334809,-2.6577609558713178
2.160168710177384,24.20963732829025,-0.07736663371907611,1.8136268291425728,-2.557141588415495
2.1446929480440193,23.850060874234085,-0.07739098761457194,1.7821377114190489,-2.4616748898791365
2.129227227893795,23.496707007976198,-0.07726621388767149,1.751400951159805,-2.3709844038568084
2.1137996898824167,23.14942837533154,-0.0770091662261131,1.7213853752867954,-2.284728052214756
2.0984352821681562,22.808083685480682,-0.07663491091649166,1.6920615232217666,-2.2025944781408704
2.0831560982148183,22.472537380596712,-0.07615692861688497,1.6634015256179389,-2.1242998287363335
2.067981676207297,22.142659328654034,-0.07558729145833198,1.635378993808829,-2.0495849185359707
2.052929265186542,21.818324537391852,-0.07493681874921515,1.6079689188129969,-1.9782127239173535
2.0380140619030405,21.499412887622118,-0.07421521408580015,1.581147578884358,-1.9099661655668287
2.023249421867,21.185808884261114,-0.07343118627460658,1.5548924547257028,-1.8446461422491913
2.008647047625977,20.87740142362933,-0.07259255613562363,1.5291821515921162,-1.7820697842681381
1.994217156915457,20.574083575709686,-0.07170635096957421,1.5039963276043051,-1.7220688993635327
1.9799686329955801,20.275752380182062,-0.07077888822919555,1.4793156276719703,-1.6644885874972535
1.9659235480282613,19.982313790831235,-0.06967196144399197,1.45507026583631,-1.6048611650322833
1.9521009792001196,19.693677066839058,-0.06855372683742625,1.4312969740854644,-1.54795152867818
1.9385028414632455,19.409749487150446,-0.06742765053131307,1.4079788228006416,-1.49360359209193
1.9251303963648463,19.13044163834835,-0.06629680045268037,1.3850996652203134,-1.4416719361413912
1.9119843274921153,18.855667262680782,-0.0651638882746279,1.36264409145537,-1.3920209635030192
1.8990648079813979,18.585343114959024,-0.06403130683254796,1.3405973857622249,-1.3445241292758354
1.8863715609451315,18.31938882770269,-0.06290116353011614,1.3189454868011354,-1.2990632399749702
1.8739039135733933,18.057726783959225,-0.061775310187264176,1.297674950633483,-1.2555278141151662
1.86166084558185,17.800281997272347,-0.060655369728168734,1.2767729162353059,-1.2138144983388852
1.8496410326030301,17.546981998316284,-0.059542760060029024,1.2562270733253402,-1.1738265336986782
1.8378428850518156,17.297756727751292,-0.0584387154521189,1.2360256323245422,-1.1354732672808692
1.8262645829377555,17.05253843489076,-0.05734430568848203,1.2161572962807934,-1.098669704867366
1.814904107045307,16.811261581801933,-0.05626045323600264,1.1966112346074786,-1.06333610078314
1.803759266857523,16.57386275249138,-0.05518794864183724,1.1773770584980738,-1.0293975814760281
1.7928277255583565,16.340280566852474,-0.05412746434982709,1.158444797890962,-0.9967837997294275
1.7821070224129651,16.11045559907642,-0.053079567104088496,1.1398048798695763,-0.9654286167227207
1.771594592793644,15.884330300250184,-0.05204472908912101,1.1214481083927779,-0.9352698094337143
1.7612877860908163,15.661848924884982,-0.051023337939156685,1.1033656452592286,-0.9062488011261699
1.7511838817234193,15.442957461137308,-0.05001570573481363,1.0855489922175283,-0.8783104128873144
1.7412801034407208,15.227603564501443,-0.04902207709217039,1.0679899741411345,-0.8514026343781965
1.7315736320877106,15.015736494767964,-0.04804263643793209,1.0506807231936595,-0.8254764121366969
1.7220616169884944,14.807307056056988,-0.04707751455423012,1.0336136639161038,-0.8004854539313139
1.7127411860863089,14.602267539748077,-0.04612679446762438,1.016781499173014,-0.7763860478056716
1.7036094549646543,14.400571670140828,-0.045190516748921356,1.0001771968994877,-0.7531368945808826
1.694663534861426,14.202174552691332,-0.044268684283359824,0.9837939775954495,-0.7306989526970971
1.6859084207400263,14.007223293322792,-0.043282456930639916,0.9657186160899685,-0.7470165285572714
1.6773461856480025,13.815875553874132,-0.0423398939895971,0.947758778396635,-0.7652011708809523
1.6689681894724457,13.628108546038476,-0.04144006776597009,0.9299112999599437,-0.7851331386112006
1.6607659836388886,13.443900101448271,-0.04058199056960356,0.9121731459421091,-0.8066955751374703
1.6527313224813998,13.263228646217723,-0.03976462100528438,0.8945414063633654,-0.8297742417557863
1.6448561734098628,13.086073176412128,-0.038986869710085185,0.8770132916925639,-0.8542572580721163
1.6371327259812496,12.912413234355462,-0.03824760457604666,0.8595861288741009,-0.8800348482537667
1.6295533999742937,12.742228885690036,-0.03754565549351219,0.8422573577801605,-0.9069990920524946
1.622110852560232,12.575500697103998,-0.03687981864710537,0.8250245280802102,-0.9350436795340566
1.6147979846562026,12.412209714643708,-0.03624886039318659,0.8078852965226809,-0.9640636684521133
1.6076079465424227,12.252337442528756,-0.03565152074461369,0.790837424626832,-0.9939552431996682
1.6005341428193873,12.095865822387474,-0.035086516485739225,0.7738787767859818,-1.0246154742583704
1.5935702367770355,11.942777212830212,-0.03455254393777823,0.7570073187866228,-1.055942077044803
1.5867101542440625,11.793054369276401,-0.03404828139195151,0.740221116751477,-1.0878331690229848
1.579948086982355,11.64668042394942,-0.033572391225125786,0.7235183365183379,-1.1201870239133274
1.5732784956888417,11.50363886595052,-0.0331235217100075,0.7068972434706422,-1.1529018217797413
1.5666961126649133,11.36391352131944,-0.03270030852927691,0.6903562028401851,-1.1858753937179296
1.560195944211951,11.22748853298469,-0.032301376000344544,0.6738936805073021,-1.2190049597985446
1.553773272810452,11.094348340501032,-0.031925338014645484,0.6575082443292807,-1.2521868588381588
1.5474236591397348,10.964477659464723,-0.03157079869252645,0.6411985660338065,-1.2853162684782546
1.5411429439953026,10.83786146048924,-0.031236352751793844,0.6249634237210246,-1.318286913946986
1.5349272501616391,10.714484947614597,-0.030920585584840968,0.608801705025388,-1.3509907637597118
1.5287729842995632,10.594333536012353,-0.030622073035920367,0.5927124109970405,-1.383317710481738
1.5226768389093182,10.477392828835434,-0.030339380866528716,0.5766946607721585,-1.4151552345300642
1.5166357944333675,10.363648593046953,-0.030071063892978152,0.5607476971126404,-1.4463880488303074
1.5106471215664712,10.253086734044892,-0.029815664775984928,0.5448708929079621,-1.476897721970987
1.5047083838451276,10.145693268879484,-0.029571712437451887,0.5290637587461098,-1.5065622773115201
1.4988174405939338,10.041454297837223,-0.02933772007448504,0.5133259516764814,-1.5352557653052812
1.4929724503129869,9.940355974139003,-0.029112182734985077,0.49765728530573355,-1.5628478060994664
1.4871718745982085,9.842384471469632,-0.028893574412796875,0.4820577413879704,-1.5892030992763597
1.4814144826956017,9.747525949021473,-0.028680344613270826,0.4665274830936338,-1.6141808974167107
1.4756993568010695,9.655766513695397,-0.028470914332052462,0.4510668701671159,-1.6376344400113292
1.470025898229784,9.567092179057529,-0.02826367138080218,0.43567647621155814,-1.6594103441451435
1.4643938345933898,9.481488820599328,-0.028056964983140344,0.42035710837043483,-1.6793479483628233
1.4588032281398622,9.398942126791383,-0.027849099552135558,0.40510982970900683,-1.6972786062454939
1.4532544854299756,9.3194375453571,-0.02763832754673142,0.38993598463381257,-1.7130249265539943
1.4477483685464898,9.242960224121358,-0.027422841288125124,0.3748372277236287,-1.726399957425291
1.442286008057923,9.169494945711158,-0.027200763597542796,0.35981555637836193,-1.7372063131871673
1.4368689179888638,9.099026055301405,-0.026970137093049833,0.3448733477191749,-1.7452352440843482
1.4314990130842151,9.031537380510734,-0.02672891195343665,0.33001340018751274,-1.7502656518746331
1.4261786286969218,8.967012142463702,-0.02647493191949633,0.31523898028279884,-1.752063058266222
1.4209105436796123,8.905432856952086,-0.026205918253599032,0.3005538748333608,-1.7503785391112852
1.4156980067230658,8.846781224559773,-0.02591945131186703,0.2859624490897631,-1.7449476459789712
1.410544766662791,8.791038008577832,-0.025612949290880826,0.2714697107296541,-1.7354893493920451
1.4054551073757835,8.738182899553184,-0.025283643579195093,0.25708137951682153,-1.721705056321064
1.4004338880227025,8.688194365422746,-0.02492854995161352,0.24280396178755895,-1.703277780904654
1.395486589571835,8.641049486440853,-0.024544434557063226,0.22864482803138678,-1.679871585235723
1.390619368794685,8.596723774595183,-0.02412777321443532,0.2146122904253194,-1.651131461264774
1.3858391212875154,8.555190978049293,-0.023674701857260668,0.20071567503359825,-1.6166839021836379
1.3811535556101322,8.51642287252951,-0.023180954916571943,0.18696538016423234,-1.5761385213253092
1.3765712814409703,8.480389043750336,-0.022641786775045702,0.1733729076275179,-1.5290912309186633
1.3721019158833605,8.447056668308068,-0.02205186880105309,0.15995084679516652,-1.4751297072857525
1.3677562139732855,8.416390305451642,-0.021405150299697664,0.14671278176909625,-1.413842160166979
1.3635462324345329,8.388351719361502,-0.02069466508782778,0.1336730791323148,-1.3448308050577933
1.3594855404356079,8.362899761661971,-0.019912254901423218,0.12084649786300322,-1.2677319044484165
1.3555894985106283,8.339990357251509,-0.019048164348373926,0.10824754624163102,-1.1822447426599518
1.3518756384256347,8.319576652633597,-0.018090436501562425,0.09588949993748902,-1.0881722582825117
1.3483641948821101,8.301609401841677,-0.01702399893368397,0.08378300798170324,-0.9854758624775464
1.345078868006237,8.28603767254112,-0.015829269825045556,0.07193428502386608,-0.8743453606864878
1.3420479392593119,8.27280993548695,-0.014480017644207562,0.0603430855178348,-0.7552803631314524
1.3393059344983596,8.261875518693433,-0.012940029965316346,0.04900108241733145,-0.6291701106219703
1.3368961598789801,8.253186203687157,-0.011157716228478094,0.03789206764541992,-0.49734315438813426
1.3348747484600973,8.24669731760072,-0.00905639796035062,0.026996793218958787,-0.36154030466167486
1.3333178468941007,8.242366784784398,-0.006512617699615057,0.016308534944270647,-0.22375575697705988
1.332338003912172,8.24014779959472,-0.0032858121196725,0.005881316952504944,-0.08591097697348896
