x,y,v_x,v_y,omega
2.375,32.48,0.0,3.4871794871794872,-4.326530612244898
2.373463761197823,31.689616315202027,-0.013358598279799443,3.385722119759393,-3.972597038320869
2.3691416810937835,30.92195114291375,-0.024224706972717967,3.2896272044864916,-3.66253542418369
2.362555413750083,30.175822005870778,-0.033047182972502226,3.198452248061066,-3.389397899462927
2.354133410971138,29.450142453786196,-0.04018762380093527,3.1118047265874758,-3.1475258026852213
2.344228859160554,28.74391142182833,-0.04593891368240382,3.029334681741819,-2.932279438322862
2.3331338452962838,28.056204131451427,-0.05053946774603385,2.950728712839942,-2.7398306021407337
2.3210906166720022,27.386164249643777,-0.05418425942163193,2.8757050420091677,-2.567001911736535
2.308300583607867,26.73299708681802,-0.057033419396935035,2.804009417345249,-2.411141388820763
2.2949315570396216,26.09596366065258,-0.05921898554432967,2.7354116797455363,-2.2700238341120276
2.2811235967908887,25.474375488345306,-0.0608502340098678,2.669702862056854,-2.1417727363110726
2.266993759792732,24.86758999640471,-0.062017913800188645,2.6066927200352783,-2.0247980405082378
2.252639972440435,24.275006457628287,-0.06279762839369768,2.54620761715102,-1.9177462538432686
2.2381442019530415,23.696062380927863,-0.06325254975755298,2.488088701983075,-1.8194602131212883
2.2235750639401934,23.13023029230509,-0.06343560687590791,2.432190329519319,-1.728946467089206
2.2089899744303674,22.577014855375342,-0.06339125842692861,2.3783786872610877,-1.645348695678925
2.194436932219908,22.035950287981084,-0.06315693470749822,2.3265305944281076,-1.5679259424176584
2.1799559999768356,21.506598038063384,-0.06276421523226251,2.2765324483344984,-1.4960347048407707
2.1655805388995883,20.98854468740017,-0.062239794135104505,2.2282792965629987,-1.4291141330482977
2.1513382410080806,20.481400056318044,-0.06160627448670405,2.181674017194633,-1.366673744457915
2.137251994669483,19.984795486229725,-0.06088282410979711,2.1366265922690117,-1.3082831850004155
2.123340612231437,19.498382279987037,-0.060085718829733265,2.093053462015231,-1.2535636620999744
2.109619443267718,19.021830282683,-0.05922879389825555,2.0508769493242203,-1.202180749192584
2.096100892641847,18.554826587775814,-0.05832382023975545,2.010024745520883,-1.1538383200634361
2.0827948591362175,18.09707435531302,-0.0573808189396291,1.9704294498077821,-1.108273417546098
2.069709107602452,17.648291730662926,-0.05640832483224619,1.9320281558451622,-1.0652518978666623
2.0568495853261624,17.20821085355838,-0.05541360800505648,1.8947620798465574,-1.0245647212267834
2.0442206914592305,16.776576948462136,-0.05440286040304645,1.8585762253381655,-0.9860247827048856
2.031825506871039,16.35314748830459,-0.05338135340731496,1.8234190803796366,-0.9494641964513554
2.019665990540549,15.93769142454752,-0.052353571205638064,1.7892423435948814,-0.9147319614190705
2.0077431476012046,15.529988477313577,-0.05132332391909671,1.7560006758307174,-0.8816919492507146
1.9960571733185548,15.129828480006882,-0.05029384375611971,1.7236514746622837,-0.8502211650219754
1.9846075765929378,14.737010773450276,-0.049267866901419724,1.6921546693082161,-0.8202082397727649
1.9733932860097858,14.351343645091141,-0.04824770338685751,1.6614725338146823,-0.7915521205081708
1.9624127409866712,13.972643809290808,-0.047235296814140106,1.6315695166229944,-0.7641609289029424
1.9516639701717575,13.600735925120631,-0.04623227548945749,1.6024120848568166,-0.7379509645253086
1.941144658918851,13.23545214844853,-0.04523999627494512,1.5739685818571116,-0.7128458321893159
1.9308522073883638,12.876631715419041,-0.044259582251030855,1.5462090966601987,-0.6887756761950182
1.920783780591949,12.524120554713193,-0.043291955109099806,1.519105344260214,-0.6656765068396294
1.910936351503779,12.177770926226405,-0.042337863048900165,1.4926305556248938,-0.6434896067744219
1.9013235378411457,11.837442520912106,-0.0412518209739969,1.4667468818907596,-0.6179389164831345
1.8919573720262235,11.503000602171205,-0.04019309915576192,1.4414437158561835,-0.5936924918604086
1.8828315980521195,11.174314284004005,-0.039161457140794255,1.4166981812499138,-0.5706669228446289
1.8739400246496685,10.851257808042888,-0.03815657244573622,1.392488566238072,-0.548785144543271
1.8652765424414157,10.53371028424738,-0.03717805545211384,1.3687942493750362,-0.5279758787333766
1.8568351379173693,10.22155544798687,-0.0362254621482893,1.3455956311511383,-0.5081731310103021
1.8486099046927449,9.91468143228007,-0.035298305022357576,1.3228740706471163,-0.4893157374088059
1.840595052443105,9.612980554067445,-0.03439606236581471,1.3006118268539664,-0.471346955074326
1.8327849138568326,9.316349113489323,-0.03351818621046825,1.2787920042601217,-0.454214092215939
1.8251739498973594,9.024687205229572,-0.03266410908929865,1.2573985023464225,-0.43786817314033283
1.8177567536268224,8.737898541063405,-0.03183324978493486,1.2364159686637135,-0.42226363466034694
1.8105280528078251,8.45589028281924,-0.031025018206345494,1.2158297551985984,-0.40735805060252617
1.8034827114699103,8.178572885028963,-0.03023881951465375,1.1956258777603361,-0.3931118815144719
1.796615730601478,7.90585994659968,-0.029474057602146726,1.17579097814646,-0.37948824700201217
1.7899222481056059,7.6376680708931595,-0.028730138014133825,1.1563122888667647,-0.36645271841471805
1.7833975381390208,7.373916733647594,-0.028006470390952335,1.1371776002251246,-0.35397312985151447
1.7770370099369277,7.114528158220416,-0.027302470496813693,1.1183752295764327,-0.3420194056807275
1.7708362062120908,6.859427197671046,-0.026617561893072853,1.0998939925920095,-0.33056340296488407
1.7647908012042357,6.608541223239115,-0.025951177305666765,1.0817231763813082,-0.3195787673533712
1.758896598445166,6.3618000188072195,-0.02530275972972099,1.063852514330816,-0.3090408011586348
1.7531495282957699,6.119135680967894,-0.024671763308508513,1.0462721625328728,-0.2989263424665128
1.7475456453031146,5.880482524342515,-0.02405765401892882,1.0289726776878239,-0.2892136542507571
1.7420811254189332,5.645776991825564,-0.023459910191344163,1.0119449963726144,-0.27988232256772594
1.7367522631148238,5.414957569451275,-0.022878022887867486,0.9951804155777295,-0.2709131630012697
1.7315602496777815,5.1880618328784855,-0.022269920042934693,0.9778259894030507,-0.2792766591991055
1.7265046660901184,4.965142844103223,-0.021691676371527913,0.9605999999470559,-0.2900085036453188
1.7215786102916093,4.746171505329325,-0.021143591441592658,0.9434985980868233,-0.30297968303241657
1.7167751276051657,4.531119585884291,-0.020625823223134665,0.9265180927395497,-0.3180654102486679
1.7120872418620237,4.319959686740582,-0.020138400630274486,0.9096549432927081,-0.33514482176462307
1.7075079837590248,4.112665206713544,-0.019681235047977703,0.8929057525945723,-0.35410068756830626
1.7030304166726182,3.9092103102106677,-0.019254130920775197,0.8762672604739263,-0.3748191324066452
1.6986476601371754,3.709569896413633,-0.0188567954743787,0.8597363377611557,-0.3971893671470982
1.6943529111795768,3.5137195697806973,-0.018488847635175734,0.8433099807861104,-0.4211034291213634
1.6901394636877145,3.3216356117622077,-0.01814982620710471,0.8269853063312039,-0.44645593035283626
1.6860007259774608,3.1332949536266845,-0.017839197360318852,0.8107595470211667,-0.4731438126013607
1.681930236710674,2.948675150298868,-0.017556361481304666,0.7946300471337624,-0.5010661081829523
1.6779216793059102,2.767754355114345,-0.01730065942968679,0.7785942588186177,-0.5301237055386326
1.6739688949735751,2.590511295398077,-0.01707137824278971,0.7626497387141492,-0.5602191185352818
1.6700658944982676,2.4169252487760744,-0.01686775632510279,0.7467941449554297,-0.5912562584824012
1.6662068688829321,2.246976020130795,-0.016688988156074797,0.7310252345687486,-0.6231402078416842
1.6623861989621802,2.080643919111452,-0.016534228546115547,0.7153408612516354,-0.6557769945910501
1.6585984640856406,1.9179097381103851,-0.016402596467273673,0.6997389735402653,-0.6890733661809165
1.6548384499665016,1.7587547306157632,-0.016293178481759527,0.6842176133694975,-0.7229365619875189
1.6511011557854496,1.6031605898493169,-0.016205031788259508,0.6687749150343706,-0.7572740831254283
1.6473818006359764,1.4511094275953056,-0.01613718690281071,0.6534091045657352,-0.791993458428402
1.6436758293935516,1.3025837531234998,-0.01608864998783967,0.6381184995369262,-0.8270020053435077
1.6399789180883753,1.1575664521046072,-0.016058404839781885,0.6229015093230241,-0.8622065844071782
1.636286978859418,1.0160407654109278,-0.016045414542453118,0.6077566358394196,-0.8975133458824194
1.632596164566186,0.8779902676882934,-0.01604862279000077,0.5926824747921741,-0.9328274670326508
1.628902873134161,0.7433988455770901,-0.016066954879781256,0.5776777174791706,-0.968052878388318
1.6252037517102242,0.6122506754503192,-0.01609931837184213,0.5627411531884109,-1.0030919772260802
1.6214957007055673,0.48453020052511064,-0.016144603407784914,0.5478716722481731,-1.0378453263256049
1.617775877805749,0.36022210719033865,-0.016201682677590486,0.5330682697932941,-1.0722113358942733
1.6140417020307054,0.23931130037698978,-0.016269411018441517,0.5183300503227565,-1.1060859263540006
1.610290857931755,0.1217828777791965,-0.016346624624605628,0.5036562331362955,-1.139362169465585
1.6065213000180987,0.007622102712026901,-0.016432139841970533,0.4890461587521469,-1.171929905023583
1.6027312575120747,-0.10318562463330494,-0.016524751514758945,0.4744992964246361,-1.2036753300882765
1.5989192395406802,-0.21065479780556728,-0.016623230845194972,0.46001525289940465,-1.2344805574314637
1.5950840408807598,-0.31479983688409874,-0.016726322719328716,0.44559378256605703,-1.2642231395616443
1.5912247483870097,-0.41563512378642287,-0.016832742443716832,0.4312347991932994,-1.2927755543661719
1.5873407482457567,-0.5131750404816273,-0.01694117182804726,0.4169383894606701,-1.3200046480709648
1.5834317342136726,-0.6074340105510316,-0.017050254537900267,0.4027048285341677,-1.3457710308855846
1.5794977170194293,-0.6984265445991085,-0.017158590629433253,0.3885345979708693,-1.3699284203935984
1.5755390351282315,-0.7861672900879952,-0.017264730163591507,0.3744284062803115,-1.3923229274971347
1.5715563670945873,-0.8706710862498142,-0.01736716578114041,0.3603872125180866,-1.4127922795786871
1.567550745758147,-0.9519530248234389,-0.017464324100947837,0.34641225333953063,-1.4311649755747433
1.5635235745716156,-1.0300285174672155,-0.017554555781934173,0.33250507399766205,-1.4472593679716936
1.5594766463894314,-1.1049133708171368,-0.01763612406314765,0.3186675638277411,-1.4608826674925754
1.555412165092152,-1.1766238702913228,-0.01770719156536931,0.30490199681734115,-1.4718298676756847
1.5513327704756548,-1.245176873884894,-0.01776580509982172,0.29121107790933803,-1.4798825889939442
1.5472415668981991,-1.310589917351713,-0.01780987818240245,0.2775979957151718,-1.4848078461278873
1.543142156254707,-1.3728813323245959,-0.017837170891442107,0.2640664823099107,-1.4863567482208868
1.5390386759400794,-1.4320703790720586,-0.0178452666270587,0.2506208807115036,-1.4842631514947908
1.534935842577585,-1.488177395708,-0.017831545220717344,0.23726622047062,-1.4782422980803485
1.5308390024330512,-1.54122396572847,-0.017793151688273123,0.2240083014465083,-1.467989496666839
1.5267541896243564,-1.591233105694272,-0.017726959691681123,0.21085378521260806,-1.4531789330575726
1.5226881934904741,-1.6382294746266695,-0.01762952842903392,0.19781029246044315,-1.4334627470206514
1.5186486368406193,-1.6822396061050284,-0.017497051134920782,0.1848865030035475,-1.4084705834032218
1.5146440673205739,-1.7232921629478994,-0.017325292517648437,0.17209225215187515,-1.377809931166323
1.5106840649074744,-1.7614182124152862,-0.017109511074519558,0.15943861278192428,-1.3410677192970673
1.5067793697393705,-1.7966515166275414,-0.016844359952471178,0.14693794558550183,-1.2978138650287365
1.502942036375739,-1.8290288276838638,-0.01652375625301963,0.1346038896868666,-1.2476077959152723
1.4991856236307846,-1.858590168840962,-0.016140702398758644,0.12245125080966324,-1.1900094268236614
1.4955254340959534,-1.885379070867124,-0.01568703268673,0.11049572333085306,-1.1245966959883036
1.4919788256598208,-1.9094427149914424,-0.015153040670945228,0.09875335601101433,-1.050992550061853
1.4885656308625488,-1.9308319098994033,-0.014526914087940882,0.08723964318864136,-0.9689051145675769
1.4853087422221996,-1.9496008013659036,-0.013793856697705548,0.07596810869394541,-0.8781853311239489
1.48223495823752,-1.9658061869376766,-0.012934699690810743,0.06494828758235698,-0.7789056485792956
1.479376244622336,-1.9795063064713858,-0.011923679571660779,0.054183186623784955,-0.6714594109123323
1.476771665447107,-1.9907590524466698,-0.010724834995548018,0.04366677837866132,-0.556669924822809
1.474470422791088,-1.9996197888597749,-0.00928597070896216,0.03338310347444182,-0.4358769695968005
1.472536866528226,-2.0061395533236634,-0.0075275620115789945,0.02331050055936884,-0.31093791511230634
1.4710596970569865,-2.010365730929145,-0.005317389912243254,0.013438869923082495,-0.18405681822707273
1.470174195236674,-2.012351569747132,-0.0023826259165612945,0.0038292937115961163,-0.057372800818901004
