x,y,v_x,v_y,omega
2.375,32.48,0.0,2.1538461538461537,-2.979591836734694
2.3745955153752427,32.074511417166185,-0.004257732892180487,2.1144547180887145,-2.844953361290677
2.3734265561274923,31.676405602357125,-0.008047101294666736,2.0761328062171693,-2.7189634420290787
2.3715776163392968,31.285484049163077,-0.011415422791604932,2.0388309116149195,-2.6008781990286245
2.3691246913279533,30.90155735959034,-0.014404840485694091,2.0025026628349574,-2.4900307652431386
2.3661362013246383,30.52444467347942,-0.017052949022881285,1.967104559385245,-2.385822124276893
2.3626738041651603,30.153973145398123,-0.019393336866363096,1.932595736207361,-2.287713174255818
2.3587931117308063,29.78997746392599,-0.021456057179468364,1.8989377529729845,-2.195217835548819
2.3545443227202303,29.432299408923704,-0.02326803766869905,1.86609440494581,-2.1078970499419643
2.349972782523276,29.080787442950665,-0.024853438088712015,1.8340315526651312,-2.025353543360847
2.3451194794436,28.735296333475617,-0.026233962749989143,1.8027169681248285,-1.947227244420873
2.340021485229351,28.395686802934495,-0.027429134242100455,1.7721201954659476,-1.8731912677869726
2.3347123467798756,28.061825204038993,-0.028456533647114413,1.7422124244867077,-1.8029483851972925
2.3292224349686617,27.733583218039136,-0.029332011734085943,1.7129663755118112,-1.7362279185706184
2.3235792557318837,27.410837573901098,-0.030069874968841153,1.6843561943622345,-1.6727829992917118
2.317807727895839,27.093469786584926,-0.03068304962110442,1.6563573563343312,-1.6123881458878901
2.311930431637231,26.781365912800485,-0.031183226785292003,1.628946578238735,-1.5548371191452104
2.3059678309725817,26.47441632278918,-0.03158099073733581,1.6021017376697533,-1.4999410194836125
2.299938473244542,26.172515486826605,-0.03188593271571624,1.5758017987783792,-1.447526596296719
2.293859168203136,25.87556177527124,-0.03210675193065652,1.5500267439096809,-1.3974347431104155
2.2877451489602305,25.58345727109846,-0.032251345363086166,1.5247575105406033,-1.3495191559453876
2.2816102168184913,25.29610759396029,-0.03232688770785416,1.4999759330191074,-1.303645135281765
2.2754668717356124,25.01342173490061,-0.032339902638239215,1.475664688661718,-1.2596885146010461
2.2693284586757856,24.735313577218744,-0.03227497167572609,1.4517896027263777,-1.2160440205748513
2.2632063723784532,24.461700002953634,-0.03216804198040364,1.4283532842747788,-1.1743133618173907
2.257108186450907,24.192499081218628,-0.032023388835877235,1.4053406287252526,-1.1343905690079494
2.2510406992079144,23.927631687952953,-0.0318448979324613,1.38273719512396,-1.0961766479082249
2.2450100042283943,23.66702138334717,-0.031636101851961924,1.3605291691474943,-1.059579046877994
2.239021554325499,23.41059429606292,-0.031400212915358945,1.3387033285814132,-1.0245111705063505
2.2330802195841972,23.15827901379513,-0.031140152782554213,1.3172470110795464,-0.9908919348961279
2.2271903400507362,22.910006479760035,-0.030858579148611766,1.2961480840267188,-0.9586453606158871
2.2213557735966574,22.66570989472487,-0.03055790984169372,1.2753949163434617,-0.9277001997548917
2.2155799394253175,22.425324624224107,-0.030240344593464176,1.2549763520855945,-0.8979895938888713
2.209865857640304,22.188788110634057,-0.029907884722465708,1.2348816857044105,-0.8694507600942124
2.2042161852519584,21.956039789801885,-0.029562350944330452,1.2151006388447814,-0.8420247024407796
2.1986332489598226,21.72702101194758,-0.029205399499206097,1.1956233385689339,-0.8156559466534388
2.1931190750146223,21.50167496657774,-0.028838536766055346,1.1764402969030787,-0.7902922958634867
2.187675416432905,21.27994661116875,-0.028463132515179106,1.1575423916126013,-0.7658846055770464
2.182303777810222,21.061782603394224,-0.028080431934118563,1.1389208481192497,-0.7423865761710505
2.1770054379544446,20.847131236687225,-0.02769156654774893,1.1205672224807528,-0.7197545613913402
2.1717814705390457,20.63594237894238,-0.027297564140662003,1.1024733853596744,-0.6979473914739265
2.166632762956711,20.42816741417638,-0.026899357778648703,1.0846315069140804,-0.6769262096416011
2.161560033536213,20.22375918697749,-0.026497794016065283,1.0670340425478742,-0.6566543208455927
2.156563847269827,20.022671949586417,-0.026093640366948043,1.0496737194634458,-0.6370970517273823
2.151644630184536,19.82486131146084,-0.02568759210980081,1.0325435239636667,-0.6182216208704621
2.146802682477659,19.630284191186135,-0.025280278488902613,1.0156366894542572,-0.5999970184969403
2.14203819052619,19.438898770603366,-0.024872268368669955,0.9989466851012203,-0.5823938948404969
2.137353350407504,19.250868682201215,-0.024441838143810096,0.9803174033424907,-0.6077932784006941
2.132747431749957,19.0663675314589,-0.024041516146160867,0.9617999728923621,-0.6347814604011689
2.128214762016784,18.885374346407573,-0.023670796834604057,0.9433914487005899,-0.6632470858581783
2.123749771547031,18.707868703543063,-0.023329102847007795,0.925089002504807,-0.6930809463955153
2.1193470065915223,18.533830705992795,-0.023015791421501508,0.9068899190769507,-0.7241757422922338
2.1150011411805067,18.363240962358418,-0.022730160273403497,0.888791592863857,-0.7564258480562737
2.1107069879230567,18.196080566159853,-0.02247145296291235,0.8707915250157691,-0.7897270805536849
2.1064595078319797,18.032331075807427,-0.022238863785264306,0.8528873207992445,-0.8239764687162141
2.1022538192622586,17.871974495029093,-0.02203154221180047,0.8350766873937673,-0.8590720238357336
2.0980852060459485,17.714993253679623,-0.02184859690725361,0.8173574320743264,-0.8949125094320477
2.0939491249019344,17.561370188857953,-0.021689099345527117,0.7997274607853444,-0.9313972096506177
2.0898412121949983,17.41108852625745,-0.021552087043271922,0.782184777114676,-0.9684256951082245
2.0857572901152617,17.264131861671956,-0.02143656642764317,0.7647274816799969,-1.005897585056993
2.0816933723462228,17.120484142577695,-0.021341515351709535,0.7473537719438195,-1.0437123046798675
2.077645669287344,16.980129649707653,-0.02126588526806497,0.7300619424776751,-1.0817688362628395
2.0736105928953967,16.8430529785307,-0.021208603068224783,0.7128503857007557,-1.1199654629101379
2.069584761207643,16.709239020542388,-0.02116857259234272,0.695717593123602,-1.158199503377318
2.0655650026093606,16.57867294426798,-0.02114467581062833,0.6786621571333479,-1.1963670364927106
2.06154835990827,16.451340175870758,-0.021135773674536257,0.6616827733636921,-1.2343626135190007
2.0575320942791206,16.32722637924968,-0.021140706632300135,0.6447782437002971,-1.2720789566727078
2.0535136891430854,16.206317435499972,-0.021158294799647745,0.6279474799808411,-1.309406641868975
2.0494908540487304,16.08859942159822,-0.021187337772510837,0.611189508458648,-1.3462337635913653
2.0454615286242452,15.974058588159213,-0.021226614064176315,0.5945034751098682,-1.3824455796005108
2.041423886674416,15.86268133609548,-0.021274880144552425,0.5778886518767927,-1.4179241329909777
2.037376340500556,15.754454191991528,-0.021330869053973498,0.5613444439542854,-1.4525478488826775
2.0333175455274035,15.649363781982807,-0.0213932885581591,0.5448703982427897,-1.4861911027924775
2.029246405327952,15.547396803904274,-0.021460818804486737,0.5284662131101745,-1.518723757475538
2.0251620771454357,15.448539997444321,-0.021532109432526047,0.5121317496261593,-1.5500106647584546
2.021063978021395,15.352780112006371,-0.02160577608369396,0.4958670444575124,-1.5799111286144283
2.016951791650095,15.26010387194211,-0.021680396245781094,0.47967232463997056,-1.608278325465429
2.012825476092755,15.170497938776268,-0.021754504357797144,0.4635480244741703,-1.634958677454587
2.008685272500321,15.083948869992561,-0.021826586088878306,0.4474948048280175,-1.6597911742391975
2.004531715011172,15.000443073893045,-0.021895071691632025,0.4315135751669022,-1.6826066387483258
2.0003656420105487,14.919966759977992,-0.021958328314930595,0.4156055186757741,-1.7032269323840414
1.9961882089620104,14.842505884219943,-0.02201465114336705,0.39977212088265135,-1.7214640954017015
1.9920009030484636,14.76804608852327,-0.02206225320975936,0.38401520224023217,-1.7371194187982189
1.9878055598918083,14.696572633569456,-0.022099253702400182,0.3683369551683423,-1.7499824451349584
1.9836043826569751,14.628070324148908,-0.022123664559001204,0.35273998610058765,-1.7598298975647584
1.9793999638891133,14.562523425974224,-0.02213337510270303,0.3372273631065995,-1.7664245392678566
1.9751953104835598,14.499915572860907,-0.02212613442943902,0.32180266966516824,-1.7695139700299665
1.9709938722491207,14.44022966305581,-0.02209953119623584,0.3064700651253247,-1.7688293735400196
1.9667995745993532,14.383447743401916,-0.02205097038026413,0.2912343522840819,-1.764084239188866
1.9626168559987283,14.329550879967556,-0.021977646468419095,0.27610105228814735,-1.7549730972221895
1.9584507109080727,14.278519013766815,-0.021876512380587198,0.26107648666702055,-1.7411703282222835
1.9543067391278988,14.23033080029883,-0.021744243200191977,0.24616786562754167,-1.7223291402150303
1.9501912026470538,14.184963431903721,-0.02157719344028072,0.23138338063674424,-1.698080853759871
1.946111091396207,14.14239244247403,-0.021371346042317274,0.2167322975705424,-1.6680347036847516
1.9420741997272417,14.102591495025937,-0.021122250473105047,0.2022250439883473,-1.6317784648942315
1.9380892160657308,14.065532154251994,-0.020824945963853363,0.18787327994789318,-1.5888803517385672
1.9341658291369193,14.031183648778157,-0.020473863813109682,0.17368993556618179,-1.5388928430725575
1.930314855646801,13.999512631902334,-0.02006269924076749,0.15968918944246663,-1.4813593702907657
1.9265483966376078,13.970482955735083,-0.01958423769810818,0.14588634916019824,-1.4158251978676957
1.9228800334678153,13.944055482687688,-0.019030111457601,0.13229757765450328,-1.3418543445747024
1.9193250803596489,13.920187970985385,-0.018390447575731723,0.11893938763290833,-1.2590550308779043
1.9159009201034127,13.898835087776511,-0.017653344595174394,0.1058278040394609,-1.1671168073225509
1.9126274650015112,13.879948623494752,-0.01680407753010344,0.09297708313697559,-1.0658629427337298
1.9095278098965212,13.863477999689017,-0.015823870943475957,0.08039790429180672,-0.9553211503823972
1.906629183596701,13.849371166491768,-0.014687984844102971,0.06809507673189324,-0.8358128975504575
1.903964368884254,13.837575946093882,-0.013362696339552877,0.056065137982707014,-0.7080539729198122
1.901573872088137,13.828041739423682,-0.011800427830098667,0.04429493222991141,-0.5732437978004015
1.8995093523001714,13.8207211806737,-0.009931359411644849,0.03276358092777661,-0.4330978255268223
1.8978394489867578,13.81557062183579,-0.007646570203233475,0.02145282789233567,-0.2897549902226586
1.896661551849507,13.812546580490359,-0.004752347030988008,0.010379186270092381,-0.14549193102453178
1.8961382682680654,13.81158625878151,-0.000755901194712142,-0.00027053670326876965,-0.00227402418979028
