x,y,v_x,v_y,omega
2.375,32.48,0.0,2.6153846153846154,-5.673469387755102
2.3741432522416943,32.01387815979253,-0.009519419536731537,2.5637469424760613,-5.386209418301754
2.3716755489120414,31.556902105165733,-0.017899506348301314,2.5137647755995314,-5.120160499512668
2.3677904191991455,31.108782043919028,-0.025268601572762027,2.465347016030504,-4.87324466249485
2.3626597140207415,30.669243929407486,-0.03173923374283621,2.418409811875516,-4.6436288044432175
2.3564362559826724,30.23802822799587,-0.03741030001348878,2.3728757593646836,-4.429691309948215
2.349256127178846,29.81488881998371,-0.04236890891791339,2.3286732185481958,-4.229993843956114
2.3412406504322067,29.399592015198323,-0.04669194382252432,2.2857357235116678,-4.0432574148540565
2.3324981099727395,28.991915667674917,-0.050447394616001236,2.2440014711928353,-3.868341981607821
2.3231252498091632,28.591648376429962,-0.053695496090400065,2.2034128759733456,-3.7042290165080956
2.3132085817712142,28.198588761424396,-0.05648970433125985,2.163916179644021,-3.550006543836053
2.302825530071975,27.812544805513397,-0.05887753677139269,2.125461108255998,-3.404856261291256
2.292045435028896,27.433333254570215,-0.06090129704059852,2.088000568890465,-3.2680424203178933
2.2809304351056134,27.06077906911656,-0.06259870210698723,2.051490380594588,-3.138902197286278
2.2695362435523134,26.69471492173936,-0.06400342626301266,2.015889034707617,-3.0168373327066615
2.2579128335183447,26.334980735362546,-0.06514557411441628,1.9811574805903505,-2.901306852476849
2.2461050434986958,25.98142325810229,-0.06605209277057245,1.9472589334124846,-2.7918207152998105
2.2341531132852666,25.633895670989297,-0.06674713182308528,1.914158701176338,-2.6879342551814114
2.2220931591680775,25.292257225310706,-0.06725235836790411,1.8818240285857524,-2.589243308373296
2.2099575959250535,24.95637290672282,-0.06758723322125113,1.850223955724106,-2.495379931083693
2.19777551211483,24.626113123625657,-0.06776925355901144,1.819329189799922,-2.40600862839144
2.185573004314985,24.301353417581907,-0.06781416643926783,1.7891119884640119,-2.320823026585853
2.173373475203522,23.981974193813464,-0.067736157021428,1.7595460534075793,-2.2395429310342005
2.1611978997439856,23.667860470025666,-0.06754801475120305,1.730606433123501,-2.1619117199853797
2.1490650631874866,23.358901641997246,-0.06726128032100594,1.702269433858949,-2.0876940317247996
2.1369917741342666,23.054991264537925,-0.0668863758258841,1.6745125379112953,-2.0166737084225264
2.124993055491556,22.75602684655869,-0.06643272020423005,1.6473143285246463,-1.948651965044748
2.1130823158138146,22.461909659125368,-0.06590883177067704,1.6206544207344857,-1.8834457559754783
2.1012715032077414,22.17254455547659,-0.06532241940791536,1.5945133975852412,-1.8208863156426571
2.089571243720995,21.88783980208482,-0.06468046377815882,1.5688727512122236,-1.7608178525608018
2.077990965904517,21.60770691992539,-0.06398928973825796,1.5437148283369788,-1.703096378874215
2.066539013038928,21.33206053519531,-0.06325463099050901,1.5190227797750553,-1.6475886597794984
2.0552227443414552,21.060818238791676,-0.062481687870300194,1.4947805135986634,-1.5941712691813006
2.0440528718987525,20.793904222613506,-0.06162800593750835,1.4709307772698752,-1.5404871119742278
2.0330380930305036,20.53124519520393,-0.060758425931921024,1.447502860614317,-1.48907713887291
2.022180995318714,20.272766505531315,-0.05987599308796396,1.4244825801924759,-1.4398193981094296
2.0114836463268957,20.01839600086614,-0.05898344015446098,1.4018563605317063,-1.3925997136653876
2.0009476471249865,19.768063920336893,-0.05808321764453237,1.3796112009043757,-1.3473111097869503
1.9905741806417288,19.52170279426933,-0.057177521058331814,1.3577346442907456,-1.3038532838433943
1.980364055360547,19.27924734893105,-0.0562683153992425,1.3362147483568463,-1.2621321229893623
1.9703177448205,19.040634416332573,-0.05535735726794737,1.3150400582928998,-1.2220592605619776
1.9604354233355592,18.805802848762774,-0.05444621478694899,1.2941995813715517,-1.1835516685614211
1.9507169983025268,18.57469343776056,-0.05353628558008029,1.2736827630974943,-1.1465312829341612
1.9411621394297045,18.34724883724698,-0.05262881300683162,1.2534794648311578,-1.1109246587074562
1.9317703051844344,18.123413490562054,-0.051724900829504226,1.2335799427791323,-1.0766626523169902
1.922540766727306,17.903133561169163,-0.05082552647192176,1.2139748282530125,-1.0436801287308672
1.9134726295738091,17.686356866806804,-0.04993155301137597,1.194655109106514,-1.011915691206448
1.9045648532000514,17.47303281688309,-0.04904374003037702,1.1756121122680947,-0.9813114317249411
1.8958162687875928,17.26311235292259,-0.04816275344138602,1.1568374872930125,-0.9518127003351318
1.887225595283144,17.056547891888385,-0.047289174385820344,1.1383231908648317,-0.9233678918046537
1.8787914539315946,16.853293272214174,-0.046423507298061654,1.120061472181917,-0.8959282481269837
1.8705123814253468,16.65330370239255,-0.04556618721580441,1.1020448591694834,-0.8694476755668027
1.8623868417990495,16.456535711975683,-0.04471758640972231,1.0842661454623548,-0.843882575047214
1.8544132371863562,16.262947104854373,-0.043878020397980666,1.0667183781077711,-0.8191916847910367
1.8465899175441347,16.072496914689946,-0.043047753404479305,1.0493948459413986,-0.7953359342263208
1.8389151894394913,15.885145362381834,-0.04222700331378037,1.0322890685931934,-0.7722783082545227
1.831387323985917,15.700853815460981,-0.04141594617037749,1.015394786082969,-0.7499837210594621
1.8240045640067128,15.519584749306354,-0.040614720265225515,0.9987059489684462,-0.728418898707169
1.8167711802059825,15.341527864475875,-0.03975621085400239,0.9797038824813072,-0.7573353751648847
1.8096882689933076,15.166881619776145,-0.03894280262016176,0.9608099475156816,-0.7876563460068026
1.802747835048501,14.995626797361435,-0.03817313009991392,0.9420214126477541,-0.8192704391918504
1.7959421313260144,14.827744660972343,-0.03744580014993566,0.9233356583421801,-0.8520680640922237
1.7892636637037747,14.663216936065233,-0.036759395652728476,0.9047501739590518,-0.8859411687768592
1.7827051949993442,14.502025790444687,-0.03611247884094416,0.8862625551581106,-0.9207829995215315
1.7762597484199305,14.344153815327548,-0.03550359426364994,0.8678705016990003,-0.9564878615077206
1.769920610508869,14.189584006767095,-0.03493127141481246,0.8495718156393822,-0.9929508796567524
1.7636813336477861,14.038299747365318,-0.03439402704166366,0.8313643999359288,-1.0300677585219267
1.757535738170712,13.890284788199992,-0.03389036714804856,0.8132462574565968,-1.0677345401290657
1.7514779141439087,13.745523230891436,-0.03341878870532139,0.7952154904162243,-1.1058473586146875
1.7455022228631552,13.603999509731345,-0.032977781080829036,0.7772703002514347,-1.144302190460303
1.7396032981186478,13.465698373792755,-0.03256582719147366,0.7594089879551417,-1.1829945990605677
1.7337760472765624,13.330604868936181,-0.032181404387253754,0.7416299548956823,-1.2218194722915046
1.7280156522256782,13.198704319621992,-0.03182298506701588,0.723931704150865,-1.2606707516620232
1.7223175702373177,13.069982310433037,-0.03148903702587897,0.7063128423930624,-1.2994411515367135
1.716677534787209,12.944424667204537,-0.031178023530885376,0.6887720823680344,-1.338021866809565
1.7110915563887774,12.822017437649833,-0.03088840311835327,0.6713082460175372,-1.3763022672860739
1.7055559234888453,12.702746871360887,-0.03061862910311402,0.6539202683040797,-1.4141695768943747
1.7000672034788007,12.586599399051014,-0.030367148786272443,0.6366072018056055,-1.451508535693986
1.6946222438770508,12.47356161089424,-0.03013240234427965,0.6193682221585417,-1.4882010424831078
1.6892181737420544,12.363620233800393,-0.029912821377903367,0.6022026344397735,-1.524125775622184
1.6838524053794877,12.256762107447546,-0.029706827095058796,0.5851098805918771,-1.5591577894933044
1.6785226364122605,12.152974158873235,-0.02951282809635504,0.5680895480115989,-1.5931680838035511
1.6732268522882001,12.05224337540265,-0.02932921772653958,0.5511413794393584,-1.6260231427185932
1.667963329307429,11.954556775665413,-0.029154370948694486,0.5342652843077181,-1.6575844405856701
1.6627306382598612,11.859901378422055,-0.028986640690947123,0.5174613517295908,-1.6877079107805233
1.6575276487730028,11.768264168886454,-0.028824353607477815,0.5007298653326425,-1.7162433740028682
1.6523535344815374,11.679632062190755,-0.028665805186584452,0.484071320175127,-1.7430339221676792
1.647207779143197,11.593991863594066,-0.02850925412830998,0.4674864420103144,-1.767915253921283
1.6420901838404318,11.511330224984988,-0.02835291590241326,0.4509762092016797,-1.7907149577904102
1.6370008754246586,11.431633597170254,-0.02819495538395493,0.4345418776287146,-1.8112517391042375
1.6319403163797772,11.35488817737702,-0.028033478448059684,0.4181850089627625,-1.8293345871934075
1.6269093163046282,11.281079851324488,-0.027866522386929524,0.4019075027320533,-1.8447618800794772
1.6219090452406952,11.21019412914169,-0.02769204499010459,0.385711632632384,-1.8573204250851412
1.616941049102395,11.142216074323464,-0.027507912102118712,0.36960008757013363,-1.866784435750849
1.612007267503755,11.077130224827524,-0.027311883438327536,0.35357601794032434,-1.8729144484665279
1.607110054318561,11.014920505325925,-0.027101596397160112,0.33764308763300527,-1.8754561867881259
1.6022522013631977,10.955570129540142,-0.02687454755132135,0.32180553220902564,-1.8741393881790602
1.597436965655303,10.899061491520492,-0.02662807142528818,0.30606822356488766,-1.8686766178561465
1.5926681007814487,10.845376044693818,-0.02635931606198083,0.29043674117591584,-1.858762108900729
1.587949893009969,10.794494167523307,-0.026065214732238353,0.2749174496075386,-1.8440706887811702
1.5832872029210883,10.746395014739221,-0.025742452921992554,0.25951758132676894,-1.8242568827250087
1.5786855135117228,10.701056353367989,-0.025387429404288574,0.24424532279804356,-1.798954327966289
1.5741509859920688,10.658454383296675,-0.024996209702979177,0.22910990021655314,-1.7677756954150778
1.5696905248656476,10.618563542990543,-0.024564469479477682,0.21412165874044967,-1.7303134046342965
1.5653118544383027,10.581356302423249,-0.024087424157689077,0.1992921253406125,-1.6861415449645294
1.5610236097381363,10.546802947554738,-0.023559739177493755,0.18463403986506294,-1.6348195945071278
1.5568354461138987,10.51487136418164,-0.02297541220292416,0.17016133094711583,-1.5758987772182136
1.5527581737810103,10.48552683419507,-0.022327613718059316,0.15588900223699786,-1.5089322358935406
1.548803926729523,10.458731864832767,-0.02160846463179825,0.1418328795663605,-1.433490639558095
1.5449863803745902,10.434446082043792,-0.020808717089678453,0.12800915142227354,-1.3491853793800817
1.541321040178218,10.41262623293926,-0.01991728509223199,0.11443361640584412,-1.2557020665391805
1.5378256358337177,10.393226358766608,-0.018920540957773017,0.10112054106807493,-1.152847410391655
1.534520674957196,10.376198215470318,-0.017801246559134586,0.08808105111291131,-1.0406122042587838
1.5314302403720523,10.3614920242782,-0.01653691549801665,0.07532107324394952,-0.9192510144130959
1.5285831624286987,10.349057609104051,-0.01509728387258004,0.06283909535770028,-0.7893734311576459
1.526014776315435,10.338845881514267,-0.013440339608128094,0.05062454452877525,-0.652030102093434
1.5237696253193158,10.330810402051785,-0.01150578257097386,0.038658560609899695,-0.5087583912800862
1.5219058463786164,10.324908268498412,-0.009202872325688054,0.026920701094236367,-0.3615326361462401
1.52050323559621,10.321098536185339,-0.006381691923270249,0.015409657939894133,-0.21255782597395806
1.5196831577941272,10.319332601689968,-0.0027302836554275564,0.004211836453117061,-0.063878290910312
