x,y,v_x,v_y,omega
2.375,32.48,0.0,2.564102564102564,-2.2448979591836737
2.3746605070454025,32.02292557877331,-0.0037721439399694173,2.5145021161939076,-2.1333342989978443
2.3736825085373296,31.57464399295054,-0.0070945061497341075,2.4664043929480175,-2.0298166064265155
2.372142451899748,31.13489146455423,-0.010017234267835864,2.419734811455427,-1.9335772076175277
2.370108302437538,30.70341719467362,-0.012584426423390149,2.3744237427735873,-1.843935835288269
2.3676405599950936,30.279982509796287,-0.014834934048211242,2.3304060891967597,-1.760288268692295
2.3647931416239176,29.864360080173284,-0.016803047853744,2.2876209066144138,-1.6820966215577753
2.3616141496204297,29.45633320263282,-0.018519085518343338,2.2460110660573878,-1.6088810148479826
2.3581465412446243,29.055695141236537,-0.02000989643505,2.2055229494568636,-1.5402124170168348
2.354428713901159,28.662248519999615,-0.02129929627012127,2.166106175397866,-1.4757064716113049
2.350495017460588,28.275804762599375,-0.022408441958442996,2.1277133512714443,-1.415018162365128
2.3463762036425497,27.896183574597906,-0.023356156019763614,2.09029984874488,-1.3578371907086206
2.3420998209126727,27.52321246422003,-0.024159207645536106,2.053823599898198,-1.3038839609674042
2.3376905621106414,27.156726298173098,-0.024832556821477853,2.018244911734371,-1.2529060852913865
2.333170570987485,26.796566889380447,-0.02538956676915015,1.9835262970728647,-1.2046753342216254
2.328559712952634,26.442582613835622,-0.02584218917363821,1.9496323200918677,-1.1589849703066042
2.3238758145884617,26.094628054077184,-0.02620112598383282,1.9165294550018708,-1.1156474117534427
2.3191348758596715,25.75256366704032,-0.026475971002721473,1.8841859565188324,-1.0744921810914074
2.314351258408713,25.41625547426684,-0.026675334007931917,1.8525717409642717,-1.0353641005155085
2.3095378528712516,25.08557477265396,-0.026806949741639368,1.8216582769566239,-0.9981217011945217
2.304706227755124,24.760397864097975,-0.02687777377088836,1.791418484776575,-0.9626358185554194
2.2998667620917033,24.440605802544823,-0.026894066933785123,1.761826643591781,-0.9287883495459471
2.2950287637815965,24.126084157098145,-0.026861469845181736,1.7328583058157394,-0.8964711512524973
2.290200575309809,23.816722789958902,-0.02678506873023278,1.704490217953605,-0.8655850631130134
2.2853896682929205,23.51241564808103,-0.02666945367964194,1.6767002473560775,-0.836039037398004
2.2806027281373056,23.213060567526362,-0.026518770271632023,1.6494673143624985,-0.8077493647058956
2.275845729928785,22.918559089590694,-0.026336765378600725,1.6227713293671524,-0.7806389829891154
2.271124006536619,22.6288162878526,-0.026126827867682854,1.5965931343894295,-0.7546368601419718
2.2664423097955195,22.343740605368268,-0.025892024811204346,1.5709144487698177,-0.7296774414801559
2.2618048655256477,22.06324370130045,-0.025635133742923956,1.5457178186503326,-0.7057001545575361
2.257215423060351,21.787240306328172,-0.02535867142703628,1.5209865699305773,-0.6826489647265169
2.252677299872644,21.515648086236652,-0.02506491954749293,1.4967047644196518,-0.6604719756767387
2.2481949442284144,21.248388140105806,-0.024739032055056485,1.4728501925897233,-0.6382308192525512
2.2437719703824595,20.985384220248775,-0.02440512178888591,1.449415583599514,-0.6169316425236816
2.239409699116431,20.72656199188427,-0.024064558944763507,1.4263869537838731,-0.5965239789413226
2.2351092171355234,20.47184958429142,-0.023718574176433766,1.4037509083589268,-0.576960574334603
2.2308714009629687,20.22117748762939,-0.023368272185285803,1.3814946101080892,-0.5581971497905037
2.2266969385120685,19.97447845521551,-0.023014643935823392,1.3596057500461085,-0.5401921843738348
2.2225863485698643,19.731687410918937,-0.0226585776442243,1.3380725199158185,-0.5229067158350218
2.2185399984015426,19.492741361351918,-0.02230086867046381,1.3168835863844233,-0.5063041576439776
2.2145581196625277,19.257579312563774,-0.02194222842969869,1.2960280668171615,-0.4903501308574848
2.2106408227855496,19.026142190963775,-0.02158329242561246,1.2754955065161893,-0.4750123094778828
2.2067881099925164,18.79837276821837,-0.021224627496981757,1.255275857321591,-0.46026027809469644
2.2029998870655105,18.574215589886258,-0.020866738358639413,1.235359457479686,-0.44606540072011935
2.199275973997413,18.353616907570867,-0.02051007350911126,1.2157370126913,-0.4324006998357053
2.195616114630352,18.136524614385294,-0.02015503056934305,1.1963995782595178,-0.4192407447627009
2.1920199853792126,17.922888183538298,-0.01980196110998207,1.1773385422626719,-0.4065615485535028
2.188487203127647,17.712658609863098,-0.019451175018523826,1.1585456096840216,-0.3943404726778717
2.185017332375284,17.505788354122405,-0.019102944452180318,1.1400127874347812,-0.3825561388458068
2.1816098917070135,17.302231289934202,-0.0187575074174882,1.121732370211922,-0.3711883473702465
2.1782643596482356,17.10194265317284,-0.018415071013379,1.1036969271365367,-0.3602180015278029
2.174980179963676,16.904878993709524,-0.018075814370614875,1.0858992891225463,-0.34962703742523915
2.1717567664517823,16.710998129364867,-0.017739891317095965,1.0683325369292038,-0.339398358923961
2.168593507281647,16.52025910195436,-0.017407432795520098,1.0509899898542119,-0.32951577721495673
2.1654897689149037,16.332622135315017,-0.01707854905717876,1.0338651950273667,-0.31996395467284766
2.1624448996509638,16.14804859520848,-0.01675333165326773,1.0169519172674846,-0.31072835265042403
2.1594582328303047,15.966500951002285,-0.016431855242942627,1.000244129467991,-0.3017951829046108
2.1565290897272513,15.78794273903706,-0.016114179235429973,0.9837360034789564,-0.29315136237155426
2.153658824383879,15.612563246299981,-0.015777657913148037,0.9649250269330449,-0.33405880498349344
2.1508457057755375,15.440560704926249,-0.015479215512869042,0.9462143216639752,-0.3760372695235209
2.1480829900304714,15.271917287560434,-0.015217626098979193,0.9276014268450615,-0.41898893153701633
2.1453641558680583,15.106615601229695,-0.014991642372275061,0.9090839768298039,-0.46281710820148675
2.142682908176504,14.944638670403158,-0.014799998644994353,0.8906596990206211,-0.5074260457534777
2.1400331810846454,14.785969920404522,-0.01464141348677058,0.8723264120753347,-0.5527207066204968
2.1374091405855484,14.630593161116785,-0.014514592058751804,0.8540820244550738,-0.5986065553014664
2.134805186766708,14.478492570917016,-0.014418228150584607,0.8359245333201228,-0.6449893420035142
2.132215955699235,14.32965268077771,-0.014351005932448946,0.8178520237832997,-0.6917748829986046
2.1296363210364513,14.18405835846917,-0.01431160143181252,0.7998626685337912,-0.7388688366099315
2.1270613953708057,14.041694792794804,-0.014298683742027918,0.7819547278480304,-0.7861764736743401
2.124486531396967,13.902547477787738,-0.014310915967293763,0.7641265500082431,-0.8336024412524103
2.1219073229283874,13.766602196793155,-0.014346955905812073,0.7463765721537906,-0.8810505182712005
2.1193196058145496,13.63384500635572,-0.014405456470164961,0.7287033215954759,-0.9284233616848346
2.116719458806547,13.504262219825549,-0.014485065840968746,0.7111054176286562,-0.9756222416238478
2.114103204419657,13.3778403905891,-0.014584427346702615,0.6935815738874272,-1.0225467638740418
2.111467409843125,13.254566294823181,-0.014702179059208459,0.6761306012894412,-1.0690945778779994
2.108808887949636,13.134426913660498,-0.014836953090669023,0.6587514116292469,-1.1151610682857094
2.1061246984598303,13.017409414643986,-0.014987374573838473,0.6414430218875575,-1.160639027893215
2.1034121493209272,12.903501132333975,-0.015152060302860848,0.6242045593347783,-1.2054183095980802
2.100668798363031,12.792689547917075,-0.015329617007098048,0.6070352675196715,-1.2493854547660628
2.097892455302149,12.68496226764794,-0.01551863922492101,0.5899345132484938,-1.292423295143223
2.095081184165459,12.580306999934681,-0.01571770673830571,0.5729017946765899,-1.334410525160688
2.092233306222012,12.478711530854959,-0.015925381522217372,0.5559367506536445,-1.3752212411650784
2.0893474035110584,12.380163697862397,-0.016140204155044448,0.5390391714859462,-1.4147244437669773
2.086422323070618,12.28465136141125,-0.01636068962762386,0.522209011304565,-1.452783499135378
2.083457181981065,12.19216237419064,-0.016585322478524574,0.5054464022577505,-1.4892555546831885
2.0804513733525134,12.102684547617276,-0.016812551172045657,0.48875167077962883,-1.5239909041970783
2.0774045734009934,12.016205615186777,-0.017040781622622594,0.4721253562259172,-1.5568322970799389
2.0743167497770285,11.932713192227425,-0.017268369754764458,0.4555682322113506,-1.5876141860206465
2.0711881713317144,11.85219473153542,-0.017493612970950367,0.43908133103316577,-1.6161619071216367
2.0680194195300654,11.774637474296597,-0.017714740380704027,0.42266597162042824,-1.6422907863572096
2.0648114017498367,11.700028395614869,-0.01792990162183558,0.40632379150988585,-1.6658051662898699
2.061565366736769,11.62835414387169,-0.018137154078920557,0.39005678341431427,-1.6864973473646696
2.058282922525046,11.5596009730329,-0.018334448273556285,0.373867337016681,-1.7041464390186065
2.054966057175622,11.493754666899427,-0.018519611164487488,0.35775828668859083,-1.7185171175570089
2.051617162736192,11.430800454167631,-0.018690327051401296,0.3417329658869114,-1.7293582906626457
2.0482390628866627,11.370722913026391,-0.01884411572114671,0.3257952690157412,-1.7364016731044456
2.0448350448053256,11.313505863877122,-0.018978307404819542,0.3099497215316923,-1.7393602855648438
2.041408895876964,11.259132248630493,-0.01909001402142145,0.2942015589864023,-1.7379268997767843
2.037964945969893,11.207583994927607,-0.01917609605714074,0.2785568154901228,-1.7317724702196644
2.034508116142257,11.158841863583717,-0.019233124249931833,0.26302242166418816,-1.7205446182152488
2.0310439748110216,11.11288527760756,-0.01925733498601293,0.2476063114042084,-1.7038662724336744
2.027578802649785,11.069692131385334,-0.019244577916619127,0.2323175355093966,-1.6813346265090474
2.024119667805775,11.0292385791554,-0.019190253683490796,0.21716637815654563,-1.6525206583713383
2.020674513495339,10.99149880292261,-0.019089238654682563,0.20216446887443826,-1.616969579647246
2.0172522607389034,10.956444761752003,-0.018935791972383015,0.18732487746563845,-1.5742027650952506
2.0138629300787487,10.924045927361576,-0.018723437584889906,0.1726621713168765,-1.5237219765455852
2.0105177878347655,10.894269015716745,-0.018444809570479614,0.15819240251457664,-1.4650170761563075
2.0072295252138357,10.867077731769275,-0.018091441773186636,0.1439329746795237,-1.397578958840745
2.0040124831025157,10.842432555682134,-0.017653470574815387,0.12990231517761153,-1.3209201577405594
2.0008829428174164,10.820290615035752,-0.01711919925962096,0.11611924755995472,-1.2346064871340574
1.9978595154071106,10.800605709345806,-0.016474438632665435,0.102601926772788,-1.138304063133609
1.9949636824560282,10.783328579434855,-0.015701483046026702,0.08936618334889374,-1.0318466597467797
1.9922205748284982,10.768407537829368,-0.014777490593196545,0.07642316782316567,-0.9153275245617349
1.9896601308312765,10.755789577400456,-0.013671887153710425,0.06377639249808705,-0.7892151635929832
1.987318867817471,10.745422008281604,-0.012342146333018875,0.05141881993360729,-0.6544802096578332
1.9852426720224676,10.737254449505727,-0.010726695833683113,0.03933183313171434,-0.5126959074449753
1.9834914042372005,10.731240468064318,-0.008731835113730796,0.027490182883943535,-0.3660394113747599
1.982147376783709,10.727336961222555,-0.006201803258395916,0.01588211535786573,-0.21709371157410642
1.9813358281048306,10.72549548122634,-0.0028154042846994403,0.004578773488980519,-0.06837129899852673
