x,y,v_x,v_y,omega
2.375,32.48,0.0,2.051282051282051,-2.7346938775510203
2.3746510607602955,32.093740012676925,-0.0036730446284690857,2.014612552118696,-2.6157439397421207
2.3736415480264488,31.714357270624546,-0.006953405201494427,1.978889995801088,-2.5040822036069486
2.372042440329968,31.341675850210624,-0.00987930739304061,1.9440723243454734,-2.3991081672950907
2.369917835409077,30.975527577446208,-0.012484954932127187,1.9101200205430897,-2.300281027064989
2.367325669911227,30.615751564569564,-0.014800997676822397,1.8769959044742313,-2.207112853374795
2.3643183558810756,30.26219378330359,-0.01685493948266428,1.8446649509570765,-2.119162644417985
2.3609433446622226,29.914706671063758,-0.01867149440000043,1.813094125251683,-2.0360311318277167
2.357243627345809,29.57314876686369,-0.020272898404353375,1.7822522347490628,-1.9573562329706231
2.3532581796350778,29.237384374064792,-0.02167918276123993,1.7521097947129944,-1.882809060556871
2.3490223579228875,28.90728324745695,-0.022908414209182153,1.7226389064221863,-1.8120904138448217
2.3445682524671065,28.582720302448955,-0.023976906377984306,1.6938131462935653,-1.744927687022156
2.339925002770625,28.263575344398618,-0.024899406216558846,1.6656074647625783,-1.681072139806463
2.335119079606988,27.949732816329437,-0.025689258663832155,1.6379980938603935,-1.6202964832533944
2.330174537561633,27.641081563468894,-0.02635855233990496,1.610962462566361,-1.5623927404533278
2.325113241467748,27.3375146132076,-0.02691824864835725,1.5844791191314938,-1.5071703474522165
2.3199550696926488,27.03892896922158,-0.027378296352688,1.5585276596686939,-1.4544544645234918
2.3147180968651178,26.74522541862592,-0.02774773341079417,1.5330886623908946,-1.404084471988402
2.309418758317834,26.456308351138382,-0.02803477761324951,1.5081436269516115,-1.3559126282493812
2.304071998244668,26.172085589329452,-0.02824690736744229,1.4836749184055513,-1.3098028706616935
2.2986927636658736,25.892469745427285,-0.028376614514604454,1.4596497542488307,-1.2642651951084958
2.293293913631813,25.61737649940679,-0.028453385843926066,1.4360686249142844,-1.2207339095547114
2.287885031253731,25.346722942318756,-0.028482218135885442,1.4129161865387168,-1.1790974268668863
2.2824747924456505,25.08042901617096,-0.028467664054434846,1.3901777729117524,-1.139251538063066
2.277071046398511,24.818417388784756,-0.02841387328387544,1.3678393574693513,-1.1010988464590772
2.2716808886258666,24.560613335629363,-0.028324629586069426,1.3458875178505896,-1.0645482510579445
2.266310727314889,24.306944628166256,-0.028203384213689914,1.324309402813676,-1.0295144743924924
2.2609663436384047,24.057341428272988,-0.02805328606509436,1.303092701326,-0.9959176305459089
2.255652946614584,23.811736188349332,-0.027877208922490564,1.2822256136598498,-0.9636828295292037
2.250375223039678,23.5700635567393,-0.027677776076522612,1.2616968243405167,-0.9327398145958515
2.2451373829647876,23.33226028813028,-0.027457382606532237,1.2414954768070563,-0.9030226294291192
2.2399432011393525,23.098265158616087,-0.027218215555942175,1.2216111496581417,-0.8744693124524238
2.234796054801024,22.86801888513375,-0.02696227221594041,1.2020338343664139,-0.8470216157925161
2.2296989581533,22.641464049005254,-0.02669137670746687,1.1827539143546242,-0.8206247466736697
2.2246545938381432,22.418545023334666,-0.026407195031028344,1.1637621453357947,-0.795227129242121
2.2196653416802987,22.19920790402913,-0.02611124873575611,1.1450496368277077,-0.7707801850170181
2.214733304952809,21.98340044422836,-0.025804927343081964,1.1266078347593524,-0.7472381303399299
2.209860334388828,21.77107199194233,-0.025489499646188806,1.1084285050936051,-0.7245577893520309
2.205048050143032,21.562173430710775,-0.025166123993770738,1.0905037183964437,-0.7026984211685697
2.2002978618863587,21.356657123110708,-0.02483585765542335,1.0728258352884927,-0.6816215600460551
2.1956109872002725,21.154476856949927,-0.024499665356009642,1.0553874927196856,-0.6612908674504018
2.190988468420992,20.95558779399538,-0.024158427057465105,1.0381815910123888,-0.6416719950355488
2.1864311880699674,20.759946421095066,-0.02381294505858865,1.02120128162249,-0.6227324576330564
2.1819398829941528,20.567510503561614,-0.023463950476302845,1.00443995557175,-0.6044415154350475
2.177515157328176,20.37823904069402,-0.023112109165558815,0.9878912325081982,-0.5867700646265804
2.1731589028982343,20.192302917210995,-0.02274320062329949,0.9693311199446761,-0.6133479176471538
2.168870033803982,20.009882768193485,-0.022402789842515303,0.950880974976505,-0.6414414885319278
2.1646431821202423,19.83095797251179,-0.022090385775792774,0.9325379269360994,-0.6709411667074628
2.160473079906521,19.655508443627994,-0.02180542700022223,0.9142992192090905,-0.7017393253395392
2.1563545719882655,19.483514608257902,-0.021547287928783458,0.8961622057392594,-0.7337300871603849
2.152282627608247,19.314957385660183,-0.0213152844924615,0.8781243479209482,-0.7668090931410112
2.14825235104545,19.149818167479616,-0.02110867932645804,0.8601832118744734,-0.8008732730430971
2.1442589912928365,18.988078798071776,-0.02092668649052406,0.8423364661028273,-0.8358206168728063
2.1402979508799644,18.829721555236574,-0.020768475750235306,0.8245818795308328,-0.8715499462393841
2.1363647939216133,18.674729131287705,-0.020633176442936798,0.8069173199309523,-0.9079606845939936
2.132455253469373,18.523084614383663,-0.020519880949068585,0.7893407527431756,-0.9449526252885703
2.1285652382394815,18.37477147004457,-0.020427647786625508,0.7718502402998902,-0.9824256963499571
2.124690838787113,18.229773522776398,-0.020355504343570408,0.754443941470401,-1.0202797208106207
2.120828333194766,18.08807493772104,-0.02030244926008451,0.7371201117438949,-1.05841417137311
2.116974192340449,17.949660202246818,-0.020267454469570245,0.7198771037742006,-1.09672791811033
2.113125084809932,17.814514107388867,-0.020249466904288648,0.7027133684147414,-1.1351189678167344
2.1092778815165283,17.682621729043085,-0.0202474098683812,0.685627456277738,-1.1734841935257578
2.1054296600916453,17.553968408810185,-0.020260184077757995,0.6686180198580509,-1.2117190525951387
2.1015777091097836,17.42853973437809,-0.020286668362889674,0.6516838162692191,-1.24971729163315
2.0977195322127558,17.306321519321017,-0.02032572002687596,0.6348237106473505,-1.2873706363940534
2.0938528521997157,17.187299782182187,-0.020376174847229568,0.6180366802877288,-1.3245684646092604
2.089975615152201,17.07146072469385,-0.02043684670555687,0.6013218195894882,-1.3611974595407894
2.086085994666829,16.958790708972764,-0.020506526824674944,0.5846783458956715,-1.3971412418449762
2.082182396272662,16.849276233511354,-0.020583982587610645,0.5681056063296601,-1.4322799771167676
2.078263462115645,16.7429039077643,-0.020667955907303567,0.5516030857445943,-1.466489956248762
2.07432807599904,16.639660425106136,-0.020757161109593674,0.5351704159202795,-1.4996431454859618
2.0703753688765425,16.53953253390827,-0.020850282285115422,0.5188073861624976,-1.5316067027901006
2.0664047249039537,16.442507006451958,-0.02094597005792676,0.5025139554829382,-1.5622424568519202
2.0624157881660063,16.348570605357455,-0.02104283770993794,0.48629026656447005,-1.5914063448148532
2.0584084702074827,16.257710047167915,-0.0211394565903103,0.4701366617464908,-1.6189478045132664
2.0543829585122646,16.169911962678604,-0.021234350727775148,0.4540537012988924,-1.6447091168039982
2.0503397260907774,16.085162853547576,-0.021325990551038922,0.4380421842908937,-1.6685246934131086
2.0462795423556885,16.003449044661696,-0.0214127856077916,0.4221031724025591,-1.6902203056772465
2.042203485488135,15.924756631661634,-0.02149307615593042,0.406238017071796,-1.7096122496989912
2.0381129565226335,15.8490714229502,-0.0215651234809282,0.3904483904169814,-1.7265064438568907
2.0340096954087863,15.776378875420392,-0.0216270987700947,0.37473632042310634,-1.7406974554568477
2.0298957993426834,15.706664023042421,-0.021677070346777665,0.3591042309239566,-1.7519674547886872
2.0257737437015253,15.639911397344534,-0.02171298903383234,0.34355498694852926,-1.7600850972583653
2.0216464059628083,15.576104938712792,-0.021732671373717805,0.328091946017194,-1.764804338032602
2.017517093046306,15.515227897325232,-0.021733780378936036,0.31271901595711016,-1.7658631893798875
2.0133895725857966,15.457262722434596,-0.021713803415900575,0.2974407197338159,-1.7629824395174059
2.0092681087220003,15.402190938634963,-0.02167002672932435,0.2822622676307468,-1.7558643645756176
2.005157503114664,15.349993007714453,-0.02159950597948146,0.267189636795675,-1.7441914841496344
2.0010631420094915,15.300648174744104,-0.021499031969697182,0.2522296576290552,-1.7276254385368028
1.9969910503795048,15.254134297238487,-0.02136509045121811,0.23739010558798154,-1.7058061060879575
1.9929479544138735,15.210427656632024,-0.021193814450162694,0.22267979553268155,-1.678351137770474
1.9889413539881788,15.169502752076514,-0.020980926872941043,0.20810867347269357,-1.6448561711085774
1.9849796072797168,15.13133207787444,-0.020721670058237603,0.19368789707547626,-1.6048961084582734
1.9810720304900697,15.095885888005675,-0.0204107172012053,0.17942989101678614,-1.5580280206271746
1.977229016868748,15.063131954593697,-0.02004205776007411,0.16534835542508897,-1.5037964865272402
1.973462181165508,15.033035332361923,-0.019608844379295148,0.1514581943830498,-1.441742527283855
1.9697845387158428,15.00555814889439,-0.019103181406655793,0.13777531580148508,-1.371417762783113
1.966210733302475,14.980659451692858,-0.018515822944584755,0.12431623368832428,-1.2924060185075683
1.9627573358942283,14.958295158323875,-0.017835728721168613,0.11109738072202671,-1.204355296962446
1.9594432491858769,14.938418175211932,-0.017049394524635123,0.09813402045629663,-1.1070236219604581
1.9562902734391971,14.920978771109613,-0.016139823861467114,0.08543865430495204,-1.0003422835042475
1.9533239219960907,14.90592530405321,-0.015084928171232385,0.0730188936571814,-0.8844983828492209
1.9505746275988232,14.89320538413277,-0.013855012852637025,0.060875000242186394,-0.7600332883169207
1.9480795688668655,14.882767464754767,-0.012408763273233911,0.048997835315753545,-0.6279417457203307
1.9458855135840294,14.874562614646386,-0.010686555493460865,0.03736900793035823,-0.4897358746586083
1.9440534808482064,14.86854569928208,-0.008597999620466215,0.025966943272861247,-0.34741321738491293
1.9426673720916903,14.864674039857135,-0.005992618869176477,0.014787366463400791,-0.20325513134521944
1.9418553710607487,14.86289751321998,-0.0025547604038939848,0.003912913927699492,-0.05941238728874956
