x,y,v_x,v_y,omega
2.375,32.48,0.0,3.4871794871794872,-3.591836734693878
2.374040030935885,31.79157053934991,-0.009599690641150032,3.397115119321395,-3.3343755385161002
2.3713187173233328,31.120741447817093,-0.017613445484371344,3.3111757960067645,-3.104739850627705
2.367128037930388,30.466717284146206,-0.024293348445079473,3.229065840702085,-2.8990618973286955
2.361713885375994,29.828758873772667,-0.029848177098860444,3.1505182630333266,-2.7141059717384373
2.3552839131797754,29.206177932111494,-0.03445154486332364,3.075291153578402,-2.5471515297079708
2.348013921468236,28.598332351726004,-0.038248372252072296,3.0031646502764966,-2.395900266064508
2.3400530782668603,28.00462205018736,-0.041360059761681375,2.9339383651099324,-2.2584017839144077
2.3315282077851327,27.424485295129596,-0.04388864505559629,2.867429185467719,-2.1329937839827844
2.3225473272177095,26.85739543822924,-0.04592016061863309,2.8034693835358135,-2.018253669181156
2.3132025753148087,26.302858001757897,-0.047527358410376794,2.741904981177647,-1.912959179637635
2.3035726464077895,25.760408070796625,-0.048771930659818,2.6825943284350546,-1.8160562135538176
2.2937248205847904,25.2296079517592,-0.04970632757016986,2.6254068619392026,-1.7266323976614657
2.283716662726219,24.710045063981674,-0.05037525101554768,2.570222015836033,-1.6438952821493868
2.2735974489621302,24.20133003612089,-0.05081688662533568,2.516928262771821,-1.5671542735363542
2.2634093679260197,23.7030949832047,-0.05106392373577298,2.465422266390102,-1.4958056031512554
2.2531885352891456,23.2149919435749,-0.05114440263296604,2.4156081299078456,-1.429319771919477
2.242965852961687,22.73669145779936,-0.05108242064162236,2.3673967278476042,-1.3672310238711873
2.2327677386551934,22.267881274010747,-0.05089872242331108,2.3207051100385234,-1.3091284885120391
2.2226167469173204,21.808265166140494,-0.05061119495541993,2.2754559686639944,-1.2546487014349548
2.212532099044015,21.357561853223636,-0.05023528377763016,2.2315771605046026,-1.203469267465066
2.20253013626669,20.915504009407073,-0.04978434399562427,2.1890012776610175,-1.155303474384474
2.1926247081619077,20.48183735554213,-0.049269937052198516,2.147665260988419,-1.1098957003015735
2.182827506228383,20.05631982431651,-0.048702082283046955,2.1075100512677762,-1.0670174858747716
2.1731483509334093,19.63872079180894,-0.04808947066668949,2.068480273807937,-1.02646416531369
2.1635954391791166,19.228820369154302,-0.04743964687623707,2.03052395273843,-0.9880519684824622
2.1541755580231907,18.82640874870706,-0.04675916468302475,1.9935922517340043,-0.9516155213941947
2.144894269564893,18.4312855997014,-0.046053719899952925,1.9576392383225847,-0.9170056845991834
2.1357560711401704,18.04325950894112,-0.04532826434727293,1.9226216692802032,-0.8840876789726905
2.1267645343309303,17.662147462521197,-0.044587103745126436,1.88849879491902,-0.8527394566286415
2.1179224257602955,17.28777436499574,-0.04383398196121988,1.855232180335574,-0.8228502814632751
2.109231812199245,16.91997259277095,-0.043072153649288694,1.8227855419123156,-0.7943194894384639
2.100694152135413,16.558581578823564,-0.04230444698902926,1.7911245975615466,-0.7670554033649586
2.0923103756396566,16.20344742613025,-0.041533317968533885,1.7602169293715744,-0.7409743808153808
2.0840809541002088,15.85442254744671,-0.04076089742594638,1.7300318574638245,-0.7159999770257879
2.076005961169617,15.511365329300329,-0.03998903187997036,1.7005403239999723,-0.6920622073466145
2.0680851260793753,15.17413981826109,-0.03921931902244546,1.6717147863924284,-0.6690968960708955
2.060317880315619,14.84261542773465,-0.0384531386151173,1.643529118871954,-0.6470451003748882
2.0527033985118464,14.516666663681988,-0.03769167942261089,1.6159585216546648,-0.6258525997147653
2.0452406342974943,14.196172867813644,-0.03693596272090907,1.5889794370287633,-0.6054694423830914
2.037928351741162,13.881017976935727,-0.03618686284241658,1.5625694717504186,-0.5858495420814924
2.0307651529416653,13.571090297240744,-0.03544512515255095,1.5367073251993986,-0.5669503183451936
2.0237495022467336,13.266282292440863,-0.034711381796763766,1.511372722799393,-0.5487323754889418
2.0168797475161253,12.966490384735298,-0.033986165509320716,1.4865463542562696,-0.5311592154554184
2.010161497637946,12.671615552985934,-0.03319633327247103,1.4622019632373742,-0.5121262243574581
2.0035994922438207,12.38156232150989,-0.032423720668781325,1.4383303515230816,-0.493958807862257
1.9971902971374764,12.09623781262151,-0.03166823039466186,1.414914737360714,-0.47660739761169046
1.990930502275086,11.815552428882459,-0.030929718229243012,1.391939100029799,-0.46002580147448474
1.9848167304101307,11.539419705227157,-0.030208000420308818,1.3693881365231995,-0.44417093709003397
1.9788456443561335,11.267756169459261,-0.029502860119663462,1.3472472211557764,-0.429002589241378
1.9730139530453483,11.000481210556558,-0.02881405298818978,1.325502367871252,-0.41448318868110734
1.96731841653901,10.737516954265597,-0.028141312075191802,1.3041401950383344,-0.4005776102948328
1.9617558501251828,10.478788145507213,-0.027484352063080246,1.2831478925455102,-0.38725298871652175
1.9563231276231994,10.224222037150614,-0.026842872956755325,1.2625131910204763,-0.3744785497124897
1.9510171839988333,9.973748284747053,-0.026216563286905786,1.242224333015121,-0.3622254558296263
1.945835017381377,9.727298846844494,-0.025605102887656064,1.222270046010483,-0.35046666496152357
1.9407736905624748,9.484807890532611,-0.0250081653013667,1.2026395171083397,-0.3391768006261489
1.9358303320466614,9.24621170189306,-0.024425419856766245,1.183322369287165,-0.3283320328728194
1.931002136714902,9.01144860105332,-0.0238565334608284,1.1643086391102397,-0.31790996884641975
1.9262863661548404,8.780458861564014,-0.023301172139788863,1.1455887557828326,-0.3078895521347596
1.9216803487048293,8.553184633839365,-0.02275900236032137,1.127153521463666,-0.2982509701121576
1.9171814792529895,8.329569872418656,-0.022229692158075513,1.1089940927434303,-0.28897556857004003
1.9127872188274375,8.109560266823312,-0.02171291209744569,1.0911019632099908,-0.28004577299467814
1.9084950940093401,7.893103175799691,-0.021208336083527162,1.0734689470262069,-0.2714450159141279
1.9043026961965208,7.68014756475187,-0.020715642044666464,1.0560871634520035,-0.26315766979183386
1.900207680741876,7.470643946181912,-0.020234512501782057,1.0389490222475688,-0.25516898499396595
1.8962077659878303,7.264544322967222,-0.019764635038675784,1.022047209899336,-0.24746503240202253
1.8923007322153784,7.061802134315808,-0.019305702685841152,1.005374676614781,-0.24003265028214
1.8884844205239173,6.862372204250722,-0.018857414228769874,0.9889246240360855,-0.23285939505839764
1.8847604968375637,6.666385174043292,-0.01838182263476559,0.9709456780382116,-0.26061342007081933
1.881128040173948,6.473982967289761,-0.01794274400139252,0.953076389497094,-0.2899552469258867
1.8775798213173454,6.285143945798854,-0.017539444564634445,0.9353138254119842,-0.3207794857251797
1.8741087635850242,6.099847046741665,-0.017171132758574854,0.9176551651599082,-0.3529830538770003
1.8707079537977558,5.9180717605795365,-0.016836965114110092,0.9000976964613853,-0.3864649491284634
1.8673706521222324,5.739798109761608,-0.016536051641124754,0.8826388117179113,-0.4211260272140258
1.8640903008851517,5.56500662811867,-0.016267460729681188,0.8652760047114582,-0.45686878320752433
1.8608605324519403,5.393678340881657,-0.016030223602432586,0.8480068676586726,-0.49359713566756525
1.8576751762569672,5.225794745254298,-0.01582333834729703,0.8308290886149294,-0.5312162126620974
1.8545282650665973,5.061337791470212,-0.015645773556401912,0.8137404492259357,-0.5696321387469931
1.8514140405515174,4.900289864264895,-0.015496471594398587,0.7967388228272214,-0.6087518219551553
1.8483269582404345,4.742633764692709,-0.01537435151643071,0.7798221728946284,-0.648482739826687
1.8452616919234623,4.588352692218059,-0.015278311653290673,0.7629885518518645,-0.6887327234765334
1.8422131375702742,4.437430227008438,-0.01520723187859103,0.7462361002443614,-0.7294097386531626
1.8391764168254066,4.28985031235479,-0.01515997557008497,0.7295630462921194,-0.7704216626896443
1.8361468801409417,4.145597237141779,-0.015135391274563646,0.7129677058379968,-0.8116760561861198
1.8331201096051846,4.0046556182867725,-0.015132314083009253,0.6964484827120598,-0.8530799281892767
1.8300919215248976,3.8670103830618423,-0.015149566719859377,0.6800038695372466,-0.8945394935490191
1.827058368818181,3.73264675120744,-0.015185960347306618,0.6636324490067773,-0.9359599210339579
1.8240157432752024,3.601550216739806,-0.015240295082480738,0.64733289566958,-0.9772450706743799
1.8209605777447444,3.473706529346188,-0.015311360222098148,0.6311039782665997,-1.018297218672642
1.8178896483059677,3.349101675252694,-0.015397934165670724,0.6149445626683606,-1.0590167680750089
1.8147999764869411,3.2277218574385884,-0.015498784024592992,0.5988536154726964,-1.0993019432342939
1.81168883159445,3.109553475058185,-0.015612664900318159,0.5828302083313472,-1.1390484659077036
1.8085537332233854,2.9945831019165183,-0.015738318810326845,0.566873523085329,-1.1781492106275249
1.8053924540187911,2.8827974638277993,-0.01587447323561755,0.5509828578018654,-1.2164938367523859
1.802203022769437,2.774183414665565,-0.01601983925792511,0.5351576338204892,-1.2539683943527518
1.798983727918773,2.6687279108902153,-0.016173109248712316,0.519397403932989,-1.290454900805676
1.7957331215873942,2.566417984312764,-0.016332954065077128,0.5037018618415366,-1.3258308846711704
1.792450024210891,2.467240712822413,-0.01649801969995487,0.48807085306196807,-1.3599688930979754
1.789133529908372,2.3711831887696917,-0.016666923325234572,0.4725043874652374,-1.3927359586644197
1.7857830127101995,2.278232484655174,-0.01683824865649138,0.4570026536799468,-1.4239930212083818
1.7823981337888728,2.1883756157258745,-0.01701054055677483,0.4415660356130503,-1.4535942998521965
1.7789788498547892,2.101599499026097,-0.017182298784060926,0.42619513138473863,-1.4813866101044226
1.775525422899153,2.0178909083858763,-0.017351970772300745,0.41089077501747684,-1.5072086206525523
1.772038431490009,1.9372364247572982,-0.01751794331913911,0.395654061268315,-1.5308900442971154
1.7685187838547054,1.8596223812256945,-0.01767853303389708,0.3804863740477103,-1.5522507574899513
1.7649677330136422,1.785034801928287,-0.01783197537673526,0.3653894189263489,-1.5710998432338306
1.7613868942666433,1.7134593340064512,-0.017976412093252767,0.3503652602919929,-1.58723455283333
1.7577782653756167,1.6448811715994793,-0.018109876817015425,0.3354163637777099,-1.6004391833871467
1.7541442498365132,1.5792849707582235,-0.018230278574018533,0.32054564463485946,-1.6104838703157323
1.7504876836915686,1.5166547540188695,-0.018335382875427818,0.30575652275868775,-1.6171232981172206
1.7468118664015924,1.4569738032355346,-0.01842279002433432,0.29105298507466554,-1.6200953386599832
1.7431205963808822,1.4002245391347508,-0.018489910182766616,0.27643965593315717,-1.6191196357091344
1.7394182118988737,1.3463883859417756,-0.01853393463731833,0.2619218759965962,-1.6138961685994502
1.735709638180138,1.2954456193649797,-0.018551802550037303,0.2475057897713668,-1.6041038492900281
1.7320004416990988,1.2473751962544206,-0.018540162260355104,0.23319844133423545,-1.5893992388200324
1.7282968928858766,1.2021545644436031,-0.01849532587186684,0.21900787677394037,-1.569415516352956
1.7246060387642161,1.1597594517487941,-0.018413215344738124,0.20494325017413845,-1.5437619037502752
1.7209357874794364,1.1201636340067722,-0.01828929750305862,0.1910149272460808,-1.5120238514103632
1.717295007323239,1.0833386836372156,-0.01811850405891639,0.1772345764495002,-1.4737644419183316
1.7136936438555774,1.0492537029061602,-0.017895130617696896,0.16361523086104635,-1.4285276877883912
1.710142860283895,1.0178750504069924,-0.017612705099128573,0.1501712941306248,-1.3758447161320622
1.7066552087600497,0.98916607606035,-0.017263810139324456,0.1369184493357871,-1.3152442803911153
1.703244844320932,0.9630868902100964,-0.016839834251850976,0.12387340916674505,-1.2462696503414912
1.699927799873293,0.9395942073571746,-0.016330610224540663,0.11105341936247669,-1.1685047158465445
1.696722351627768,0.9186413256460888,-0.01572387223070733,0.0984753977483729,-1.081613023974996
1.6936495225192387,0.900178328804607,-0.015004418854587231,0.08615457066644111,-0.9853941602703283
1.690733800898677,0.8841526227578704,-0.014152797351029636,0.07410248980091574,-0.8798615919414077
1.6880042004306248,0.8705099288073015,-0.013143207329490241,0.062324449704770676,-0.7653430546947978
1.6854958677533287,0.8591958114549669,-0.011940119443473169,0.05081672381859023,-0.6425955790022115
1.6832525875776094,0.8501576463394507,-0.010492682313718043,0.03956492733657318,-0.5129081840519312
1.681330840399422,0.8433465000495524,-0.00872478946815699,0.028546535562410526,-0.3781351855055557
1.679806955345629,0.8387174368624102,-0.0065140610697723925,0.017744096309025844,-0.2405738118116608
1.6787926540281697,0.8362241443581766,-0.003628952104820492,0.007188828733313493,-0.10260184810673198
