x,y,v_x,v_y,omega
2.375,32.48,0.0,2.717948717948718,-4.816326530612245
2.3739324349641326,31.915611645398545,-0.010167286055881245,2.657178468731784,-4.528141583344565
2.3708781390165776,31.363740558644526,-0.018921246777972682,2.598736643211246,-4.265597146868024
2.3661142206630794,30.823913182779247,-0.026449404207726644,2.5424764602675873,-4.025714544961384
2.3598812527028854,30.29568540721756,-0.0329121954131703,2.4882642593675364,-3.805926748523189
2.3523885047832525,29.778639980313084,-0.03844730858333154,2.435977901627467,-3.6040131931092345
2.3438183463293485,29.272384231129696,-0.04317324812051486,2.385505423928634,-3.418046209553238
2.334329965772434,28.776548052425788,-0.04719228099296058,2.3367438970609706,-3.2463467640624124
2.324062523528154,28.29078210599761,-0.05059288323827611,2.289598449874041,-3.087447709293192
2.3131378338637534,27.814756218645687,-0.05345178023220412,2.243981429668081,-2.940063131356468
2.3016626531648066,27.34815794262307,-0.055835654995863335,2.1998116753092014,-2.8030626714605775
2.2897306380833133,26.890691258860997,-0.05780258387549682,2.1570138843296016,-2.6754499278493444
2.277424025810759,26.442075404816052,-0.05940324729168818,2.1155180589556077,-2.5563442203865496
2.2648150796625472,26.002043811644548,-0.06068195411985296,2.0752590188682523,-2.444965138689481
2.251967335820552,25.570343137735293,-0.06167751104200848,2.0361759707436913,-2.3406194040749315
2.238936681102448,25.146732387536062,-0.062423962463744036,1.9982121263918151,-2.2426896624303576
2.225772286734666,24.730982106179248,-0.06295122199132294,1.9613143627207064,-2.1506248944880193
2.2125174190854726,24.32287364171573,-0.06328561276289627,1.9254329178842382,-2.0639321856753114
2.1992101449972408,23.92219846785528,-0.06345033093455132,1.890521118881962,-1.9821696426566129
2.18588394660919,23.528757561027415,-0.06346584418974142,1.8565351366215066,-1.904940280116351
2.172568258277908,23.142360826350867,-0.06335023515580152,1.823433765059915,-1.8318867309999833
2.1592889362981333,22.762826567757948,-0.06311949798491082,1.7911782215393206,-1.7626866576864526
2.1460686705327006,22.389980998082535,-0.06278779501920953,1.7597319658455655,-1.6970487614768426
2.132927345723341,22.02365778540319,-0.06236767935564097,1.7290605358624753,-1.6347093041888678
2.119882359128777,21.663697632349454,-0.061870288211637856,1.6991313979826586,-1.5754290692108124
2.10694890018709,21.309947885440057,-0.061305511233002395,1.669913810678253,-1.518990700621426
2.094140197096147,20.96226217183562,-0.06068213725216943,1.641378699840224,-1.4651963683479934
2.0814677345247024,20.620500061162126,-0.06000798247587267,1.6134985446692018,-1.4138657151538734
2.068941446087771,20.28452675030164,-0.059290002637761664,1.5862472730497268,-1.3648340477939982
2.056569884726523,19.954212769257342,-0.058534391278886586,1.5596001654674065,-1.3179507401746124
2.0443603737117066,19.629433706386237,-0.057746666005074665,1.5335337666383597,-1.2730778209827571
2.032319140629131,19.31006995145711,-0.0569317443051676,1.5080258041152583,-1.2300887221591599
2.0204514363966646,18.996006455137262,-0.05609401028975466,1.4830551132166072,-1.1888671678959963
2.0087778575353092,18.687135576770164,-0.055082931246961106,1.4585722998033697,-1.1449805687360393
1.9973165129674537,18.383353608174613,-0.05407273130404405,1.4345893058685384,-1.103167308205202
1.9860669862772902,18.08455751572231,-0.053065618126085165,1.4110877651057936,-1.0633043202989059
1.9750284280892825,17.79064803129065,-0.0520635074739879,1.388050181862379,-1.0252772302793898
1.9641996138842823,17.501529474882467,-0.051068056383155355,1.3654598791679404,-0.9889796436915219
1.9535789952467133,17.2171095877698,-0.050080692546074335,1.343300950476476,-0.9543125012898838
1.9431647452923189,16.937299375414614,-0.04910264035291972,1.3215582148110143,-0.9211834930614354
1.9329547989366453,16.66201295948126,-0.04813494398682783,1.3002171750304392,-0.8895065253045917
1.922946888586351,16.3911674383118,-0.04717848792073766,1.2792639789644238,-0.8592012354055268
1.9131385757671193,16.124682755285992,-0.04623401511956562,1.2586853831861478,-0.83019254954897
1.9035272791420916,15.862481574534012,-0.04530214321402981,1.2384687192136685,-0.8024102791247749
1.8941102993222312,15.604489163511847,-0.044383378879879476,1.218601861949813,-0.7757887520526523
1.8848848408239105,15.350633281987431,-0.043478130627938344,1.1990732001874962,-0.750266475653839
1.8758480314884827,15.100844077020362,-0.042586720185659614,1.1798716090226926,-0.7257858280571533
1.8669969396429096,14.855053983549716,-0.041709392629321315,1.1609864240310674,-0.7022927754439291
1.8583285892490808,14.613197630233401,-0.040846325407141504,1.1424074170767027,-0.6797366127169552
1.8498399732617354,14.375211750208926,-0.03999763637710024,1.12412477363257,-0.6580697254273019
1.8415280653904151,14.14103509646974,-0.03916339096880804,1.1061290715025345,-0.637247371013707
1.8333898304392506,13.91060836157337,-0.03834360856609068,1.0884112608438543,-0.6172274776054303
1.8254222333792485,13.683874101418034,-0.0375382681958368,1.0709626453974497,-0.5979704588141181
1.8176222472908032,13.46077666284302,-0.036747313598878145,1.05377486484076,-0.5794390430958214
1.8099868602991636,13.241262114825329,-0.035970657750071314,1.0368398781848613,-0.5615981164031364
1.8025130816122528,13.025278183060824,-0.035208186887174066,1.0201499481437435,-0.5444145769714326
1.7951979467584493,12.81277418773275,-0.0344597641014313,1.0036976264093267,-0.5278572011940194
1.7880385221114252,12.603700984283819,-0.033725232536892344,0.9874757397709597,-0.5118965196403834
1.7810380089808218,12.3981583426857,-0.03294632108790258,0.9700732278301737,-0.5246133027657487
1.7741972773598143,12.196257966630945,-0.03220350387407474,0.952787496500828,-0.5393511348518785
1.7675087863745156,11.997975677235086,-0.031496410271626606,0.9356152596502086,-0.5559932872704823
1.760965082184966,11.803287971910471,-0.030824582009796958,0.9185533624889897,-0.5744262735923347
1.7545588155398693,11.612171997364928,-0.030187481276838613,0.9015987760400017,-0.5945395936744269
1.7482827576987054,11.424605523715776,-0.02958449816281617,0.8847485920471508,-0.616225486223006
1.7421298148554718,11.240566919628758,-0.02901495748702778,0.8680000183053888,-0.6393786888241957
1.7360930411886772,11.060035128395189,-0.028478125053871914,0.8513503743952667,-0.6638962044648101
1.7301656506534102,10.882989644863827,-0.027973213377243542,0.8347970878081764,-0.6896770735901087
1.7243410276232454,10.709410493146624,-0.027499386910039995,0.8183376904509063,-0.7166221507626995
1.718612736482425,10.53927820501961,-0.027055766812058377,0.8019698155206653,-0.7446338849976316
1.712974530262082,10.372573798941794,-0.026641435286447454,0.7856911947442552,-0.7736161028528816
1.7074203584082541,10.20927875961599,-0.02625543951191299,0.7694996559776617,-0.8034737933518676
1.7019443737640239,10.049375018016011,-0.025896795195042534,0.7533931211649869,-0.8341128938051228
1.6965409388432833,9.892844931804554,-0.025564489764390165,0.7373696046584239,-0.8654400755816246
1.6912046314693636,9.73967126606551,-0.025257485225320623,0.7214272119038904,-0.8973625288561812
1.6859302498480417,9.589837174273097,-0.024974720692032146,0.70556413850005,-0.9297877453273518
1.6807128171412615,9.443326179418204,-0.024715114610634865,0.6897786696417973,-0.9626232978601783
1.6755475856052586,9.30012215520971,-0.024477566684632326,0.6740691799629119,-0.9957766159589881
1.670430040354653,9.160209307264964,-0.0242609595116127,0.6584341337965638,-1.0291547559171046
1.6653559028125091,9.023572154199268,-0.024064159937376928,0.6428720858767393,-1.0626641644217973
1.6603211339053203,8.890195508518815,-0.02388602013108556,0.6273816825085236,-1.0962104343134795
1.6553219370614187,8.760064457215154,-0.023725378382264208,0.6119616632406116,-1.1296980511072243
1.650354761071429,8.633164341951542,-0.023581059617637,0.5966108630795236,-1.1630301287813196
1.6454163028701414,8.509480738722544,-0.023451875632722625,0.5813282152918713,-1.1961081332209722
1.640503510300567,8.388999436857773,-0.023336625029889733,0.5661127548488023,-1.2288315915746448
1.6356135849230646,8.271706417228216,-0.023234092851084413,0.5509636225755622,-1.2610977856352095
1.630743984935286,8.157587829499473,-0.023143049889664504,0.5358800700791395,-1.2928014271976827
1.625892428272398,8.046629968259634,-0.023062251661649703,0.5208614655383642,-1.3238343131697177
1.6210568959616478,7.938819247830455,-0.0229904370121626,0.5059073004538264,-1.354084958020776
1.616235635810949,7.834142175548475,-0.02292632632782498,0.49101719746979083,-1.3834382009524124
1.6114271665178952,7.732585323277448,-0.022868619320307603,0.4761909193971414,-1.4117747849580926
1.606630282293561,7.6341352968842635,-0.022815992340019166,0.4614283795855583,-1.438970904721134
1.6018440581048035,7.5387787033772184,-0.02276709517195526,0.44672965381486,-1.4648977200811766
1.5970678556496702,7.44650211536716,-0.022720547257884777,0.432094993899974,-1.4894208315946103
1.5923013301931739,7.357292032468354,-0.022674933280177,0.41752484323152445,-1.5123997145399641
1.5875444384053448,7.271134839206056,-0.022628798032480062,0.40301985450464184,-1.5336871076009886
1.5827974473603885,7.1880167589412345,-0.022580640490912515,0.38858090992222977,-1.553128352435519
1.5780609448753007,7.1079238032589025,-0.022528906986115763,0.3742091441952042,-1.57056068046142
1.5733358513888511,7.030841716194875,-0.022471983361022196,0.35990597070031394,-1.5858124435402432
1.5686234336079439,6.95675591259592,-0.022408185980951505,0.34567311119447686,-1.598702285927148
1.5639253201786552,6.885651409820859,-0.02233575144084707,0.33151262952037847,-1.6090382560434862
1.559243519674634,6.817512751895702,-0.022252824787927918,0.3174269697668473,-1.6166168585475653
1.5545804412371758,6.752323925137176,-0.022157446045007387,0.3034189993619766,-1.6212220501611503
1.549938918250806,6.69006826415977,-0.022047534777559136,0.28949205756568863,-1.6226241872299763
1.545322235497982,6.6307283470891285,-0.021920872392195007,0.2756500097737524,-1.6205789397390413
1.5407341603099902,6.574285878731278,-0.021775081779155662,0.2618973079200621,-1.6148261964492352
1.5361789783234867,6.520721560411829,-0.021607603806591682,0.24823905702705695,-1.6050890003821014
1.5316615345713038,6.470014945231938,-0.021415670023720062,0.23468108754333852,-1.5910725750825323
1.5271872807945237,6.422144277634768,-0.021196270707519834,0.22123003242969908,-1.5724635328458274
1.5227623300798023,6.377086316508123,-0.02094611705172893,0.20789340687168326,-1.5489294005677614
1.5183935202324927,6.334816141672004,-0.020661595779791774,0.194679686805646,-1.5201186629721937
1.514088487741855,6.295306944672799,-0.020338713654853464,0.18159837985346564,-1.485661614970379
1.5098557548596725,6.258529806560649,-0.019973028080218364,0.16866007835748473,-1.445172446158323
1.5057048333275331,6.224453468097053,-0.01955955794015663,0.15587647843865599,-1.3982531659179704
1.5016463498612453,6.193044102089669,-0.019092665548296937,0.14326034067930182,-1.3445002355512
1.4976922009739402,6.164265103892504,-0.018565895283181928,0.13082535643654308,-1.2835151233434838
1.4938557486414084,6.138076925272959,-0.017971745979025726,0.11858586851150436,-1.214920450560164
1.490152074561007,6.114436989523465,-0.01730134050098702,0.10655637672176292,-1.1383839323391045
1.4865983207102413,6.093299742069142,-0.01654393426821082,0.09475074189083865,-1.053652838340169
1.4832141597130177,6.0746169094391504,-0.015686170467251168,0.08318099744241293,-0.9606019215627498
1.4800224634568018,6.058338054823341,-0.014710936734806503,0.07185571318433218,-0.8592970383802839
1.4770502776832781,6.044411516433154,-0.013595594441609467,0.06077798576984829,-0.7500737268284167
1.4743302734476744,6.03278576562327,-0.012309207802234722,0.04994345051474925,-0.6336227699379348
1.4719029568048683,6.023411070522858,-0.010808093557824642,0.03933935996535879,-0.511061102980533
1.4698201526784511,6.016241007772315,-0.009028136217576314,0.028946951944569935,-0.3839469722584984
1.4681509434034998,6.0112326534238285,-0.006869094972436719,0.0187516608981539,-0.2541817121495694
1.4669938510539273,6.0083424558814436,-0.004150832166348711,0.008774029981688046,-0.12374497392119649
