x,y,v_x,v_y,omega
2.375,32.48,0.0,3.128205128205128,-2.2448979591836737
2.3744058886284054,31.831158536777735,-0.005658203538996336,3.0512373786735365,-2.092671749019281
2.372717163964554,31.198133437739916,-0.010424888497683207,2.977573088353327,-1.9559581825305445
2.370106886855175,30.580254193956364,-0.014434893496403919,2.9069911381566835,-1.8327175810055718
2.3667221161040723,29.976894661433814,-0.01780101841885854,2.839290123962859,-1.721225868263606
2.362688122957917,29.387469154682105,-0.020617963925477278,2.774286130815315,-1.6200193247907086
2.3581118588483085,28.81142897520946,-0.022965503785078927,2.711810816543231,-1.5278500511914703
2.35308482051299,28.248259315430992,-0.02491105178938538,2.651709752775473,-1.4436498731867837
2.347685426504482,27.69747648831067,-0.026511748291639367,2.5938409817037895,-1.3665009400102044
2.341980995753518,27.158625440963583,-0.027816163622310108,2.53807375493513,-1.2956116597375813
2.3360294006549043,26.63127751686253,-0.02886569445972231,2.484287426979694,-1.2302969124979535
2.3298804528724437,26.115028436545714,-0.029695712992281912,2.43237048079949,-1.1699617098967974
2.323577068809744,25.609496471056712,-0.03033651617628818,2.382219666714817,-1.1140876439445657
2.3171562527811864,25.11432078594942,-0.030814112667116103,2.333739239068911,-1.0622216042255868
2.3106499288227975,24.62915993670356,-0.031150877412777,2.286840277558357,-1.0139663474920195
2.304085646409948,24.153690498931148,-0.03136609794769547,2.24144008217887,-0.9689725864120581
2.297487180793256,23.6876058188992,-0.031476431735083826,2.197461632411103,-0.9269323291497193
2.2908750449906923,23.230614871717332,-0.03149629019409555,2.1548331026543135,-0.8875732528076768
2.284266927500182,22.782441216096824,-0.0314381620964774,2.1134874270648,-0.8506539345606683
2.2776780673806476,22.34282203592383,-0.031312886660996096,2.0733619079160768,-0.8159597968612291
2.271121576378819,21.91150726004023,-0.03112988478499057,2.0343978624039587,-0.7832996491887811
2.2646087161664914,21.488258752620304,-0.030897355332413546,1.9965403035000833,-0.7525027298076994
2.2581491374287284,21.072849567394222,-0.030622442170094744,1.9597376510340332,-0.7234161679618821
2.2517510864527313,20.665063259719773,-0.030311376648923305,1.9239414696750214,-0.6959028006895638
2.24542158396577,20.264693251159034,-0.02996959941737531,1.8891062309034392,-0.6698392896395908
2.2391665802235283,19.871542241789847,-0.029601864794447857,1.8551890964221442,-0.6451144924174664
2.2329910897293206,19.485421665985015,-0.02921233038848589,1.8221497207667443,-0.6216280504872519
2.226899308447056,19.106151187834683,-0.028804634204508423,1.7899500711411607,-0.5992891618216736
2.22089471593829,18.73355823277759,-0.028381961117074084,1.7585542627359327,-0.5780155115802482
2.2149801644911995,18.367477552351637,-0.02794710028378798,1.727928407987413,-0.5577323383056979
2.209157957004832,18.007750819279835,-0.02750249482447134,1.6980404784107113,-0.5383716166240391
2.2034299151355135,17.65422625037858,-0.027050284883326153,1.6688601777916994,-0.519871340343508
2.1977974389958224,17.30675825501649,-0.02659234501849143,1.6403588256567707,-0.5021748922768088
2.1922615595133834,16.965207107066654,-0.02613031671902428,1.6125092500559854,-0.4852304891449469
2.18682298440139,16.62943863848698,-0.025665636728530176,1.5852856887980042,-0.4689906916280882
2.181482138560795,16.299323952834794,-0.02519956175332787,1.5586636983657027,-0.4534119710656302
2.1762391996216737,15.974739157175168,-0.024733190047829517,1.5326200698212127,-0.43845432551986946
2.17109412923536,15.655565110980572,-0.02426748029801632,1.5071327510797257,-0.42408093894290955
2.1660467006469264,15.341687190742839,-0.023803268163252313,1.4821807749939242,-0.4102578780556712
2.1611032331043427,15.032995519858538,-0.02327737509944923,1.4577399000946474,-0.39514425135485154
2.156269244533659,14.729384280980184,-0.022760611288016906,1.4337957082706239,-0.38074207115767866
2.1515427937134146,14.430751072643641,-0.022253206047643085,1.41033008541074,-0.36700926960651603
2.1469218979589733,14.13699720831804,-0.021755324947035325,1.387325765309267,-0.3539067376641907
2.142404545609556,13.848027543561319,-0.02126707838074671,1.3647662799928288,-0.34139808413865297
2.137988706826308,13.563750313244427,-0.02078852907875667,1.3426359135013728,-0.3294494169370997
2.133672342911175,13.284076978148047,-0.020319698684421572,1.3209196588451102,-0.3180291442640241
2.1294534143299546,13.00892208029141,-0.019860573517675693,1.2996031778847568,-0.30710779373625097
2.125329887599964,12.738203106403464,-0.019411109625088,1.2786727639051851,-0.29665784761473923
2.1212997411827836,12.471840358992747,-0.01897123720520436,1.2581153066730904,-0.2866535925520306
2.1173609705051835,12.209756834514362,-0.018540864486224277,1.2379182597877199,-0.2770709824293291
2.113511592216192,11.951878108170863,-0.018119881123218214,1.2180696101503532,-0.26788751301143476
2.1097496477750295,11.698132224918787,-0.01770816117356714,1.1985578493932358,-0.2590821072838141
2.106073206453104,11.44844959628466,-0.01730556570191453,1.1793719471222421,-0.2506350104562831
2.102480367823155,11.202762902623643,-0.01691194505950378,1.1605013258398253,-0.2425276937241095
2.0989692637998014,10.961007000480738,-0.01652714087719633,1.141935837425939,-0.23474276597153174
2.0955380602880016,10.723118834739221,-0.016150987806611748,1.1236657410647024,-0.2272638926862479
2.092184958489149,10.489037355263484,-0.015783315039602785,1.1056816825137459,-0.22007572142764137
2.088908195908569,10.258703437764282,-0.015423947632590288,1.0879746746214964,-0.21316381325751368
2.085706047102945,10.032059808633473,-0.015072707659063567,1.0705360790052394,-0.20651457960086905
2.0825768242016163,9.809050973512907,-0.014729415210737952,1.0533575888096887,-0.2001152240566987
2.0795188772316218,9.589623149378319,-0.01439388926540003,1.0364312124720914,-0.19395368872548913
2.0765305942728363,9.37372419993406,-0.01406594843731579,1.0197492584256251,-0.18801860466198395
2.0736104014663788,9.16130357412817,-0.013745411624188037,1.0033043206780927,-0.18229924609913456
2.0707567628967247,8.952312247610159,-0.0134320985629925,0.9870892652077067,-0.17678548812267847
2.0679706632832535,8.74684069143565,-0.013102183470064019,0.9697826983590548,-0.19754963013355306
2.065251003992121,8.544991748035585,-0.012799333588344293,0.9525881911653775,-0.22010813649752353
2.0625921094094744,8.346742208706686,-0.012523471960668772,0.9355026595860213,-0.24435540896490948
2.0599883298763237,8.152069500045517,-0.012274428355050134,0.918523137187017,-0.2701885792994582
2.0574340604196975,7.960951659751263,-0.012051947422345355,0.9016467703773166,-0.2975072865969564
2.054923757839187,7.773367313389432,-0.011855696201562842,0.8848708140210608,-0.326213460912212
2.0524519562810193,7.5892956520390555,-0.011685271019080564,0.8681926274111065,-0.35621111235097996
2.0500132814224807,7.408716410748809,-0.01154020382414428,0.8516096705912451,-0.38740612479958536
2.047602463381013,7.231609847729974,-0.011419967999360408,0.8351195010167193,-0.4197060534755189
2.045214348454526,7.057956724216012,-0.011323983681462204,0.818719770544808,-0.4530199254871004
2.0428439097924125,6.887738284920115,-0.011251622624383409,0.8024082227494412,-0.48725804258931227
2.040486257090325,6.72093623902304,-0.011202212633594636,0.7861826905560292,-0.5223317853159324
2.038136645396037,6.557532741624183,-0.011175041597719048,0.770041094194995,-0.5581534176549079
2.0357904831085114,6.397510375588844,-0.011169361140621028,0.753981439474895,-0.5946358914141974
2.033443339247731,6.240852133724232,-0.011184389914430083,0.7380018163785469,-0.6316926493986987
2.0310909500688297,6.0875414012157165,-0.011219316551297667,0.7221003979882824,-0.6692374264849044
2.0287292250905917,5.937561938253264,-0.011273302289062346,0.7062754397493579,-0.7071840476380475
2.026354252605484,5.79089786277579,-0.011345483283393088,0.690525279083716,-0.7454462218660871
2.0239623047360094,5.647533633258174,-0.011434972616364995,0.6748483353697706,-0.7839373310451884
2.02154984210037,5.507454031462036,-0.011540862008768376,0.6592431103077269,-0.8225702124815693
2.019113518149173,5.37064414506683,-0.011662223240731007,0.6437081886942261,-0.8612569339937404
2.0166501832342427,5.237089350092273,-0.011798109282412423,0.6282422396349,-0.8999085602062386
2.0141568884705645,5.106775293016582,-0.011947555133573281,0.6128440182288174,-0.9384349086397615
2.011630889452931,4.97968787248724,-0.012109578367694034,0.5975123677649207,-0.9767442940619029
2.0090696498901615,4.855813220511788,-0.012283179372972821,0.5822462224774951,-1.0147432594260966
2.006470845221712,4.735137683005508,-0.012467341278926007,0.5670446109156382,-1.0523362915724974
2.0038323662843185,4.617647799560338,-0.012661029553393552,0.5519066599907594,-1.0894255196918947
2.001152323099914,4.503330282284772,-0.012863191250456547,0.5368315997765323,-1.125910394360992
1.998429048860687,4.392171993547731,-0.013072753885039593,0.5218187691476612,-1.16168734474324
1.995661104192762,4.284159922439681,-0.013288623904721096,0.5068676223575583,-1.1966494113129431
1.9928472817868068,4.179281159741699,-0.013509684723424757,0.49197773667084194,-1.2306858512012133
1.9899866114919598,4.07752287116686,-0.013734794275118173,0.47714882118478275,-1.2636817129810136
1.9870783659790523,3.9788722686080042,-0.013962782038287913,0.4623807269947947,-1.295517377406972
1.984122067090297,3.883316579090817,-0.014192445473665759,0.44767345888318427,-1.326068060307932
1.981117493005691,3.790843011090587,-0.014422545808297906,0.4330271887380445,-1.3552032735036512
1.9780646863715374,3.7014387178243062,-0.014651803088401333,0.41844227094082914,-1.3827862392937418
1.974963963554066,3.6150907570758193,-0.014878890411328791,0.40391925999715184,-1.408673253765964
1.9718159252013998,3.5317860470498843,-0.015102427233110094,0.3894589307260353,-1.4327129939216587
1.968621468320549,3.4515113176799765,-0.015320971632135345,0.3750623013683093,-1.4547457634626528
1.9653818001030998,3.3742530567336857,-0.015533011391190033,0.36073066002492854,-1.4746026720923342
1.9620984537644603,3.2999974499676306,-0.01573695373870969,0.3464655948898981,-1.4921047434511274
1.9587733066975637,3.228730314480341,-0.015931113565067264,0.3322690287985659,-1.5070619474765847
1.9554086012837404,3.1604370242964457,-0.01611369989991829,0.3181432586670942,-1.519272154260671
1.9520069687521837,3.095102427089426,-0.016282800400620922,0.30409100044738585,-1.5285200086788997
1.9485714565366026,3.032710750815749,-0.016436363557293585,0.29011544025431046,-1.5345757286374209
1.9451055596453932,2.973245498895068,-0.016572178263749085,0.2762202923235903,-1.5371938353832182
1.9416132566430522,2.916689332438569,-0.0166878503299751,0.262409864404957,-1.5361118329135925
1.9380990509401,2.8630239379160116,-0.016780775412427333,0.2486891310479829,-1.5310488665186412
1.9345680182133744,2.812229878587516,-0.016848107699242436,0.23506381493769554,-1.5217044099709456
1.9310258609389508,2.7642864280504647,-0.01688672348574579,0.22154047589136397,-1.5077570598890309
1.9274789712332216,2.7191713844314087,-0.01689317847357871,0.2081266061948757,-1.488863558816786
1.923934503491539,2.676860864191731,-0.016863657161495984,0.19483072942111843,-1.4646582321153243
1.9204004587335781,2.63732907537452,-0.01679391196193856,0.18166249740945475,-1.4347531173404637
1.9168857831853532,2.600548071643825,-0.01667918849734816,0.16863277621621708,-1.3987392019567668
1.913400484574681,2.566487491023178,-0.016514131604290726,0.1557537058851791,-1.3561893849943654
1.909955771099626,2.535114287365925,-0.01629266339623304,0.14303870989818404,-1.306664065956672
1.9065642204000661,2.506392469042968,-0.016007819456717694,0.1305024169871066,-1.249720671005765
1.9032399897116168,2.4802828691155483,-0.015651520433275754,0.11816043946449471,-1.1849289830367589
1.8999990846942307,2.4567429855314344,-0.015214241637068728,0.10602892800325595,-1.1118948598097504
1.8968597148339978,2.4357269495739757,-0.014684518936576832,0.09412379540109604,-1.0302957428072226
1.8938427804721882,2.417185705484126,-0.01404818927113494,0.08245948164510626,-0.9399320285247957
1.8909725646974955,2.4010675093739486,-0.013287199059271532,0.0710471479756198,-0.8407982076757038
1.8882777495013787,2.387318866945595,-0.01237770757041323,0.059892303722995234,-0.7331751359230031
1.885792952123879,2.375885992575853,-0.011287029358155473,0.04899221408408444,-0.6177370299122779
1.883561112579128,2.3667167170633974,-0.009968585353756537,0.038334219367859426,-0.4956499665089914
1.8816373463398153,2.359762373875295,-0.00835299787779516,0.02789762051884443,-0.3686114330806447
1.8800956736383716,2.3549783150713814,-0.006329599278810059,0.017664844280345218,-0.23875241227891628
1.87904328130256,2.3523193867156422,-0.003693184871778236,0.007658282917186718,-0.10832141239465609
