x,y,v_x,v_y,omega
2.375,32.48,0.0,2.41025641025641,-3.4693877551020407
2.374458943948448,32.02649413206536,-0.005695326858443118,2.3634895680029477,-3.297661873647971
2.3728997898120165,31.58173875723407,-0.010716821946096865,2.3181459565369216,-3.1382418315826635
2.370443495850082,31.145470344951413,-0.015138903969004643,2.2741531201226146,-2.9899580880188195
2.367197727705653,30.71743864762691,-0.01902707649866694,2.2314436938195237,-2.851774196503671
2.363258440072097,30.29740577881267,-0.022439109117714615,2.189954925277732,-2.722769432015328
2.358711250382019,29.88514537672375,-0.025426045514685428,2.149628254605686,-2.602123966329243
2.3536326347395744,29.48044184289829,-0.02803306651104743,2.1104089435570264,-2.489106176686613
2.348090971474438,29.083089647310103,-0.030300231016707185,2.0722457468449162,-2.383061747189213
2.342147453707212,28.69289269249424,-0.03226311390145806,2.035090619637879,-2.2834042821892253
2.335856889016364,28.309663730281002,-0.03395335652852159,1.9988984562909284,-2.1896071992785537
2.329268401555316,27.9332238255969,-0.03539914306145643,1.963626856173312,-2.10119670872017
2.3224260496816824,27.563401862514947,-0.03662561350310886,1.9292359131104015,-2.017745718167404
2.3153693702463256,27.20003408834756,-0.03765522265853944,1.8956880254936652,-1.938868527735632
2.3081338590817957,26.84296369209307,-0.038508052757566344,1.8629477245536123,-1.864216202060008
2.3007513958744292,26.492040413988242,-0.03920208626734359,1.830981518655111,-1.793472523787159
2.293250620458732,26.14712018329715,-0.039753444424204636,1.7997577517773982,-1.7263504477166358
2.285657266601392,25.808064781791856,-0.04017659617937501,1.7692464745941328,-1.6625889870935904
2.2779944585166194,25.47474153066119,-0.040484541555073396,1.7394193267812625,-1.601950473809096
2.270282974650815,25.147022998827808,-0.040688972821814585,1.710249429359648,-1.5442181428517234
2.262541482673331,24.824786730865675,-0.04080041641485454,1.6817112860312142,-1.48919399856651
2.2547867490951994,24.50791499289603,-0.04082835809180048,1.6537806925966319,-1.436696926352974
2.247033826495736,24.196294535002316,-0.040781353481495634,1.626434653652981,-1.3865610185658073
2.2392962209567955,23.88981636884814,-0.04066712587577293,1.5996513058646522,-1.3386340877283793
2.2315860419767226,23.58837555930867,-0.040492652861838264,1.5734098471824074,-1.2927763438598796
2.223914136853061,23.291871029038006,-0.04026424317670266,1.5476904714561575,-1.248859215858435
2.2162902112781473,23.000205374994582,-0.03998760498028549,1.522474307948303,-1.2067642995629413
2.208722937679386,22.713284696035245,-0.0396679065856216,1.4977433653078644,-1.1663824174085309
2.201224925055089,22.431020309232252,-0.03925854209119017,1.473460706302584,-1.1256350767214018
2.193806940671595,22.1533266240553,-0.038825504050850904,1.4496307166127211,-1.0866912453330375
2.186473180550327,21.88011912507755,-0.038371970909867804,1.4262376936793948,-1.0494502105185728
2.179227266821498,21.61131621427826,-0.03790080518306894,1.4032666305236288,-1.0138179459301329
2.1720723048057913,21.34683908258595,-0.03741458445594958,1.3807031767638507,-0.9797065969416303
2.1650109345088477,21.086611588579817,-0.036915629196086874,1.358533602248088,-0.9470340109110604
2.1580453771014074,20.830560143872205,-0.03640602772433782,1.3367447630951883,-0.9157233079835512
2.1511774768954304,20.578613604732155,-0.03588765865436722,1.3153240699580075,-0.885702488528788
2.1444087392713067,20.33070316954401,-0.03536221107324818,1.2942594583382225,-0.8569040737215816
2.13774036496242,20.086762281726124,-0.034831202704510116,1.2735393607974281,-0.8292647761412901
2.1311732810600796,19.846726537762713,-0.03429599626749336,1.2531526809226943,-0.8027251975906202
2.1247081690635112,19.61053360002795,-0.033757814222699856,1.2330887689169294,-0.7772295516222657
2.118345490265555,19.378123114104778,-0.03321775207157333,1.2133373986953908,-0.7527254085174176
2.1120855087345154,19.149436630322654,-0.032676790360425666,1.1938887463796144,-0.729163460687362
2.1059283121257106,18.92441752925813,-0.03213580552172563,1.1747333700890314,-0.7064973066715674
2.0998738305323634,18.703010950960497,-0.03159557967140255,1.155862190938689,-0.684683252085849
2.093921853564125,18.485163727681226,-0.03105680946794947,1.1372664751588888,-0.663680126034967
2.088072045822536,18.2708243199015,-0.030520114127727104,1.1189378172592794,-0.6434491116476417
2.0823239609257267,18.059942755466096,-0.02998604268078997,1.1008681241660545,-0.6239535895204332
2.0766770542195028,17.852470571645004,-0.029455080542620585,1.0830496002664762,-0.6051589929719607
2.071130694298377,17.648360759956184,-0.02892765546922864,1.0654747333000234,-0.5870326741120658
2.065684173447978,17.447567713593873,-0.028404142956028926,1.0481362810401005,-0.5695437798230736
2.0603367171093634,17.25004717731719,-0.027884871134649873,1.0310272587144773,-0.5526631368334599
2.0550874924560274,17.055756199663243,-0.02737012521625122,1.0141409271165083,-0.5363631451390244
2.049935616165612,16.864653087357716,-0.026860151524965074,0.9974707813627256,-0.5206176790940035
2.0448836139984046,16.676900976484664,-0.026318818656165057,0.9788672278273135,-0.5478379665193213
2.03993107293244,16.49267302605763,-0.025813192564518278,0.9603743556151293,-0.5766043176955111
2.0350712837195717,16.311948482427443,-0.025342483360408497,0.9419892615447558,-0.6068065892024774
2.030297692593409,16.13470713264422,-0.024905844283408786,0.9237091572260232,-0.6383367443668723
2.0256039115424347,15.96092928299517,-0.024502377305795485,0.9055313653955377,-0.6710886156929433
2.0209837275656897,15.790595738201532,-0.0241311382388901,0.8874533166427558,-0.7049576707965173
2.0164311110024213,15.623687781201014,-0.0237911413744604,0.869472546520589,-0.7398407808615153
2.01194022302128,15.460187153443016,-0.02348136369018424,0.8515866930372652,-0.7756359906315157
2.0075054223494293,15.300076035624219,-0.023200748645088268,0.8337934945290143,-0.8122422889344783
2.003121271317296,15.143337028791933,-0.022948209587892354,0.8160907879161121,-0.8495593787165061
1.9987825412906084,14.989953135741846,-0.022722632798293747,0.7984765073479587,-0.8874874455300461
1.9944842175578237,14.839907742635397,-0.022522880178386058,0.7809486832462285,-0.9259269233827336
1.99022150373806,14.693184600759924,-0.022347791608601012,0.7635054417587557,-0.9647782568045931
1.9859898257721658,14.54976780835197,-0.02219618697975756,0.7461450046407729,-1.0039416579328488
1.9817848355576413,14.40964179240057,-0.022066867909974974,0.7288656895844621,-1.0433168573444167
1.977602414286723,14.272791290342902,-0.021958619152323323,0.711665911022585,-1.082802847285378
1.9734386755461215,14.13920133155921,-0.021870209696113918,0.6945441814373158,-1.1222976158534377
1.969289968236635,14.008857218567584,-0.021800393561639007,0.6774991132113929,-1.1616978705825143
1.965152879371212,13.881744507811284,-0.021747910284915854,0.6605294210654673,-1.2008987497570813
1.9610242368110193,13.757848989922415,-0.021711485085534134,0.6436339251331543,-1.239793519646574
1.9569011120007287,13.637156669335038,-0.021689828707000987,0.6268115547339628,-1.278273255695922
1.952780822766641,13.51965374310847,-0.021681636914974153,0.6100613529141321,-1.3162265055360314
1.9486609362444491,13.405326578807145,-0.021685589634413607,0.5933824818366527,-1.3535389314868884
1.9445392720074992,13.294161691266776,-0.021700349701901805,0.5767742291145868,-1.3900929300153424
1.940413905471428,13.186145718057222,-0.021724561204110118,0.5602360151965039,-1.4257672253794487
1.936283171657121,13.081265393430236,-0.021756847367542465,0.5437674019296493,-1.460436434442322
1.932145669401178,12.979507520514577,-0.021795807958172913,0.527368102445702,-1.4939705993727879
1.9280002661116327,12.880858941491319,-0.021840016142304863,0.5110379925359521,-1.5262346846717119
1.9238461031766936,12.785306505448162,-0.021888014751790214,0.4947771237077962,-1.5570880346784808
1.91968260214596,12.692837033572342,-0.021938311887510973,0.47858573814293837,-1.5863837874326099
1.9155094718171126,12.60343728129682,-0.021989375784567857,0.4624642858099181,-1.61396824050766
1.9113267163767595,12.517093896962997,-0.022039628850727567,0.44641344401978983,-1.6396801642239849
1.9071346447622122,12.433793376504482,-0.02208744077608767,0.43043413975403966,-1.6633500575210056
1.9029338814318364,12.353522013589743,-0.022131120596287236,0.41452757513795824,-1.6847993417841876
1.8987253787557088,12.276265844586032,-0.022168907573477822,0.39869525648004744,-1.7038394881575134
1.8945104312661116,12.20201058762244,-0.02219896073806993,0.38293902734724433,-1.720271074446434
1.8902906920396267,12.130741574936,-0.022219346909141173,0.36726110619422986,-1.733882768798949
1.8860681915200521,12.062443677582245,-0.022228026981118757,0.3516641291084483,-1.744450239189277
1.881845359135268,11.997101221481916,-0.02222284022713297,0.33615119826341794,-1.751734990674407
1.8776250481130472,11.93469789366231,-0.02220148632256084,0.3207259366797938,-1.7554831369616024
1.8734105639629073,11.875216637441216,-0.022161504731543328,0.3053925498580427,-1.7554241197565232
1.8692056971666922,11.818639535204415,-0.022100251018089923,0.2901558947398715,-1.751269399731073
1.8650147607144962,11.764947677361938,-0.022014869531339937,0.2750215562335748,-1.742711158313543
1.8608426332423056,11.714121016062041,-0.021902261754877007,0.25999593113376507,-1.7294210721165553
1.8566948086849124,11.6661382023396,-0.021759049375576957,0.24508631857616242,-1.7110492549470582
1.852577453570692,11.620976405646136,-0.02158153077411245,0.2303010150392415,-1.6872235107055196
1.8484974733831743,11.578611115257218,-0.0213656290944955,0.21564941010728406,-1.6575491108567773
1.8444625898457048,11.53901592403832,-0.021106829194658415,0.20114207640742832,-1.621609412180943
1.8404814316275742,11.502162296709415,-0.020800099417240835,0.18679084284420466,-1.5789677776468265
1.8365636419501148,11.468019327427111,-0.02043979192443862,0.1726088338116064,-1.5291714736872257
1.8327200080984483,11.436553495693033,-0.020019511777313332,0.15861044759972376,-1.471758514070826
1.828962620262205,11.407728435965197,-0.019531939130512307,0.14481123374590504,-1.4062688300364214
1.8253050709985463,11.381504745729895,-0.018968579434313154,0.131227610836236,-1.3322616890406895
1.821762712846207,11.357839870056765,-0.018319401116625122,0.11787634361776161,-1.249341952401117
1.8183530016849638,11.336688118284712,-0.01757229531751387,0.10477367503543135,-1.1571984629261998
1.8150959696450912,11.318000889427498,-0.016712252470621025,0.09193399714577002,-1.055658290307583
1.8120148973392949,11.301727202070989,-0.01572008759039061,0.07936797502802298,-0.9447600040230288
1.8091372966738422,11.287814627898285,-0.014570445730166482,0.0670801741583147,-0.8248460750210527
1.8064963828362566,11.276210684150424,-0.013228647297047445,0.05506660213497967,-0.6966663444400754
1.8041333316800499,11.266864589550497,-0.011645575399865939,0.04331334102214632,-0.5614682044255986
1.8021008656342676,11.259728929479945,-0.009748804029420707,0.0317988702468177,-0.4210246050608869
1.8004694049457965,11.254760015500032,-0.007424466375538419,0.020505487436450396,-0.2775281135127178
1.7993397613425839,11.251913771371715,-0.0044665189214373666,0.009454977072148638,-0.13328123834885325
1.798884923771034,11.25112295166836,-0.000321244989615682,-0.0011305591420952277,0.009754719633329773
