x,y,v_x,v_y,omega
2.375,32.48,0.0,2.871794871794872,-5.795918367346939
2.37402001734606,31.968477133779295,-0.010888696154887335,2.8117925306573586,-5.478198847690969
2.371205767604973,31.467565608791787,-0.020380745412744122,2.7538910803149443,-5.186162542206801
2.3667933424467944,30.976898403846903,-0.028646200789245364,2.6979667524059985,-4.917077250188934
2.3609902590609746,30.496129832682147,-0.03583250349764043,2.643906260535749,-4.668558543886333
2.3539792285499446,30.0249337673482,-0.04206783551380405,2.5916055765080976,-4.4385187701989235
2.3459213709339384,29.563002065158113,-0.047463915775155324,2.5409688922706763,-4.225124517619356
2.3369589676019222,29.110043168858034,-0.0521183434694655,2.4919077332857427,-4.026760973968481
2.327217825359471,28.665780855193315,-0.05611657033554684,2.4443401963222393,-3.842001926167134
2.3168093129670146,28.22995311140331,-0.059533567358417055,2.3981902902333556,-3.6695844045788797
2.3058321204472256,27.802311122650476,-0.062435238417013324,2.3533873625759165,-3.5083871699686737
2.2943737828826904,27.382618356175183,-0.06487962341115569,2.3098655982606853,-3.3574123944114116
2.2825120034820783,26.970649730219073,-0.06691792548453604,2.267563579029403,-3.215770008531635
2.270315805027531,26.56619085759175,-0.06859539067709924,2.2264238946075454,-3.0826642836783216
2.257846534168263,26.169037355256176,-0.06995206331476521,2.1863927980099405,-2.957382294600261
2.2451587391939425,25.77899421254544,-0.07102343639991156,2.1474198987760067,-2.8392839700974557
2.2323009387486614,25.395875211649617,-0.07184101299210142,2.1094578889553666,-2.727793489193015
2.219316296307992,25.019502394867875,-0.07243279190422154,2.072462297508442,-2.6223918210657944
2.2062432130391882,24.64970557383956,-0.07282368886026454,2.0363912694728064,-2.522610240216586
2.193115849819388,24.286321876574355,-0.07303590247085251,2.0012053668072687,-2.428024675598333
2.1799645876355056,23.929195328615847,-0.07308923290561863,1.966867388287256,-2.3382507748905756
2.166816434281369,23.578176465111383,-0.07300135991811954,1.933342206206782,-2.2529395836605906
2.1536953841611797,23.233121970936402,-0.07278808586176268,1.9005966179596474,-2.171773754558371
2.1406227370698283,22.893894346344645,-0.07246354848658541,1.8685992108376948,-2.094464214521686
2.1276173810223615,22.560361595894655,-0.07204040759637756,1.8373202386066212,-2.020747228687138
2.1146960435242574,22.232396938645365,-0.07153000904922334,1.8067315086077251,-1.9503818086885922
2.1018735150924184,21.90987853782428,-0.07094252908232336,1.7768062782931993,-1.8831474205789362
2.0891628483383986,21.59268924835646,-0.07028710151789525,1.7475191602381341,-1.8188419539809766
2.076575535497473,21.280716380804083,-0.06957193004794286,1.7188460347882726,-1.7572799194590496
2.064121666918969,20.973851480408957,-0.06880438749099022,1.6907639696020211,-1.6982908456686892
2.0518100727158606,20.671990120055995,-0.067991103654663,1.663251145430917,-1.6417178517221442
2.0396484494974128,20.375031706087093,-0.06713804321697735,1.6362867875568659,-1.5874163735136089
2.027643473871356,20.082879295993784,-0.06625057485032344,1.6098511023687867,-1.5352530255713623
2.015800904196291,19.795439427105038,-0.06533353265039507,1.5839252186173085,-1.4851045824205902
2.004125671886337,19.51262195546532,-0.06439127079353762,1.5584911329351023,-1.4368570655136026
1.992621963414518,19.234339904168362,-0.06342771222667593,1.5335316592533035,-1.390404923566123
1.9812932940259076,18.96050932047517,-0.06244639209121592,1.5090303817821715,-1.3456502956732779
1.9701425740532708,18.69104914110161,-0.061450496493637125,1.484971611257347,-1.3025023479037496
1.959177106701684,18.425884111239903,-0.060388029635104305,1.4613064983171808,-1.2588258000359016
1.9484026063921522,18.164941455888176,-0.05932864047080495,1.438056338924245,-1.216987361205591
1.9378183747733364,17.908147729785373,-0.0582739330715932,1.4152072844402395,-1.1768890730717403
1.9274234425967525,17.655431927614472,-0.05722531333489661,1.392746073014197,-1.1384391832203016
1.9172166035454463,17.406725381223275,-0.05618400945739418,1.3706599979991034,-1.1015516889176074
1.907196444568236,17.161961662347128,-0.05515109028938855,1.34893687840255,-1.0661459189145774
1.897361373080221,16.921076490481305,-0.054127481799666526,1.3275650312176948,-1.032146149757565
1.8877096413514352,16.68400764557724,-0.05311398185350752,1.3065332454941812,-0.9994812534258007
1.8782393683711016,16.450694885260898,-0.052111273483533796,1.2858307580207033,-0.9680843734386815
1.8689485594444233,16.221079866293874,-0.051119936812891516,1.2654472305017885,-0.9378926268635402
1.859835123751742,15.995106070017805,-0.05014045977245505,1.245372728121185,-0.9088468299103307
1.8508968900757963,15.772718731541516,-0.049173247738054475,1.225597699393146,-0.8808912450276458
1.8421316208813827,15.553864772447149,-0.04821863219987397,1.2061129572109544,-0.8539733476179293
1.8335370249126406,15.338492736807321,-0.04727687856392803,1.1869096610093552,-0.828043610671502
1.8251107684561645,15.126552730319702,-0.046348193174694456,1.1679792999641998,-0.8030553057816158
1.8168504854029865,14.917996362378645,-0.04543272963839553,1.149313677158662,-0.7789643191483545
1.808753786228918,14.712776690915785,-0.04453059451792101,1.130904894650887,-0.7557289813097515
1.8008182660006489,14.51084816985274,-0.043641852462847554,1.1127453393829583,-0.7333099094556664
1.7930415115041742,14.312166599019463,-0.04276653083131462,1.0948276698756487,-0.7116698612852568
1.7854211075824449,14.116689076401467,-0.04190462385456685,1.077144803657617,-0.6907735994635872
1.7779546427604627,13.924373952587946,-0.04105609638967976,1.0596899053815343,-0.6705877658181992
1.770639714228277,13.735180787301125,-0.04022088730127272,1.0424563755831424,-0.6510807644933359
1.7634739322453692,13.549070307894823,-0.039398912508813784,1.0254378400424566,-0.6322226533488716
1.7564549240236622,13.366004369717167,-0.038590067732375534,1.0086281397092782,-0.6139850429536425
1.749580337140776,13.18594591823912,-0.03779423096635812,0.9920213211578944,-0.5963410025794988
1.7428542717578224,13.009085758891633,-0.03693982884424007,0.9730915604808735,-0.6293634147929666
1.7362776358147873,12.83562348626847,-0.036133903856147634,0.9542670242209086,-0.6636732624093438
1.7298418464116359,12.66554039644657,-0.03537486728998145,0.9355450849113437,-0.6991630719278432
1.7235386078178045,12.49881824886091,-0.034661117085921456,0.9169232215959836,-0.7357269569094768
1.7173599136196855,12.335439247374683,-0.0339910406709551,0.8983990171398815,-0.7732603817956645
1.7112980483875708,12.175386021799063,-0.033363017463652785,0.8799701559225517,-0.8116599272759436
1.7053455889196807,12.018641609793772,-0.03277542106845974,0.8616344219140378,-0.850823056172799
1.6994954051176565,11.865189439079153,-0.03222662117625326,0.8433896971372985,-0.8906478787907561
1.6937406605451035,11.715013309889674,-0.03171498518544804,0.8252339605235793,-0.9310329166475966
1.6880748127184184,11.568097377597173,-0.031238879555496125,0.807165287170874,-0.9718768634674183
1.6824916131772256,11.42442613543006,-0.030796670902199844,0.7891818480192808,-1.0130783422677474
1.6769851073802649,11.283984397211825,-0.030386726841809788,0.771281909961104,-1.0545356573153828
1.6715496344715468,11.146757280038607,-0.030007416588390852,0.7534638364079848,-1.0961465396574186
1.6661798269610175,11.012730186811083,-0.02965711130637916,0.7357260883422568,-1.1378078848541446
1.66087061036386,10.881888788530613,-0.029334184217592325,0.7180672258851857,-1.1794154814484024
1.655617202842952,10.754219006263067,-0.029037010459162484,0.7004859104208707,-1.2208637286005362
1.6504151148998965,10.629706992666257,-0.02876396668590143,0.6829809073214665,-1.2620453411983388
1.6452601491614955,10.508339112967882,-0.02851343040744096,0.6655510893271519,-1.3028510406163554
1.640148400310589,10.39010192527056,-0.028283779047077295,0.6481954406430723,-1.343169229147623
1.6350762552128535,10.274982160048392,-0.028073388705538747,0.6309130618254835,-1.3828856459625276
1.6300403932945597,10.162966698685437,-0.027880632608837618,0.6137031755406969,-1.4218830022633584
1.625037787230423,10.054042550890369,-0.02770387921490195,0.5965651332934068,-1.460040593099069
1.620065704005695,9.948196830802743,-0.02754148994874247,0.5794984232357715,-1.4972338830831335
1.6151217064225705,9.845416731584827,-0.027391816530419177,0.5625026791855124,-1.5333340630195285
1.610203655127978,9.745689498268082,-0.027253197853943048,0.5455776910005514,-1.568207574190564
1.6053097112479688,9.649002398594863,-0.027123956368380168,0.5287234164796357,-1.6017155968004015
1.6004383397233917,9.555342691563197,-0.027002393904700814,0.511939994983312,-1.6337134988075754
1.595588313452481,9.464697593344898,-0.026886786883194454,0.49522776299778803,-1.66405024113104
1.590758718358619,9.377054240204462,-0.026775380826385226,0.4785872718959311,-1.6925677349959307
1.585948959516043,9.292399647997176,-0.026666384091123815,0.46201930818502657,-1.7191001470251628
1.5811587684829842,9.210720667769227,-0.026557960720639436,0.4455249165699482,-1.743473147622025
1.5763882120109045,9.132003936919688,-0.026448222302470802,0.4291054262027248,-1.7655030982864073
1.5716377023206005,9.056235825313358,-0.0263352187009052,0.41276248053428966,-1.7849961738491018
1.5669080091614194,8.983402375654588,-0.02621692751221732,0.3964980712298187,-1.8017474163184144
1.562200273899314,8.913489237345171,-0.026091242066733498,0.38031457665258883,-1.8155397182889481
1.5575160259138037,8.846481592955232,-0.025955957772271,0.36421480545784607,-1.8261427359193234
1.5528572016241773,8.782364076336634,-0.025808756556911155,0.348202045859905,-1.8333117347106045
1.548226166513033,8.721120681307529,-0.025647189122467787,0.3322801211301588,-1.836786376237463
1.5436257405727054,8.662734659740977,-0.025468654658949576,0.31645345183151913,-1.836289461357673
1.5390592276704966,8.60718840781118,-0.02527037758781501,0.3007271251662247,-1.8315256563435227
1.534530449416776,8.554463339105503,-0.025049380786860368,0.28510697156350795,-1.8221802444126611
1.5300437842333459,8.504539743327467,-0.024802454584583897,0.2695996481924501,-1.8079179685490647
1.5256042124695615,8.457396629438644,-0.024526120568575595,0.25421272835002634,-1.7883820655527936
1.5212173686187218,8.413011552382983,-0.02421658888520006,0.23895479449066503,-1.7631936406077022
1.5168896019762441,8.371360423106427,-0.02386970714232857,0.22383553080438173,-1.731951602958328
1.5126280475006455,8.332417302579284,-0.02348089814209923,0.20886580838611635,-1.6942334859021353
1.5084407092636505,8.296154182171286,-0.023045082268958354,0.19405775170275086,-1.649597621144675
1.5043365598289316,8.26254075534207,-0.02255657811680736,0.17942476862187884,-1.5975873458168393
1.50032566037848,8.23154418964382,-0.022008971332652276,0.1649815169142413,-1.5377382114975726
1.4964193087335005,8.203128914091181,-0.021394935833788358,0.15074376700397252,-1.4695895614703673
1.4926302261135218,8.177256445771022,-0.020705982165976133,0.1367281032200196,-1.3927023610435048
1.4889727993766637,8.15388529187413,-0.01993209268800148,0.12295138452322117,-1.3066857913775989
1.4854634049022295,8.132970979443304,-0.019061179250156997,0.10942986470815463,-1.211235750233544
1.4821208552574094,8.114466283895723,-0.01807826124784343,0.09617786359830077,-1.106188744888017
1.478967033464674,8.098321743913719,-0.016964203115882107,0.08320591397951906,-0.9915940055838075
1.4760278169639274,8.08448655165882,-0.015693758003528305,0.07051844440825851,-0.867803566215429
1.4733344529891064,8.07290986534554,-0.014232508383370479,0.058111403517061774,-0.7355721908898792
1.470925649763937,8.063542453711793,-0.012531971896290062,0.045970947968995306,-0.5961437096014942
1.4688508604677595,8.056338262447923,-0.010521242505680366,0.034075621629558614,-0.4512777064164272
1.4671758227774938,8.051254830375338,-0.008090287386160284,0.02240695695472249,-0.3031497455293837
1.4659936515273935,8.048249853908672,-0.00504494872606751,0.010981670452669307,-0.15406016152938729
1.4654586591489824,8.04726292981793,-0.0008994110340537834,-1.5847222203537945e-05,-0.005978880688246396
