x,y,v_x,v_y,omega
2.375,32.48,0.0,3.4871794871794872,-3.224489795918368
2.3741363861153504,31.791565535209816,-0.00863613884649485,3.397165160722308,-2.9933849900640315
2.3716883928673393,31.12072254046089,-0.015843793633616432,3.311264786766965,-2.7872550679286556
2.3679189857373855,30.46667755308515,-0.021850277665922773,3.229185086990426,-2.6026292759726375
2.363049575593611,29.828692953021346,-0.026843823771821113,3.150660913647614,-2.4366036859047857
2.3572670999992495,29.20608168338765,-0.030980932171792114,3.0754517826893206,-2.2867364990185517
2.3507297855628644,28.59820261094487,-0.0343922121920636,3.00333894173852,-2.150964775170886
2.3435718590776693,28.004456429577267,-0.03718705265988482,2.9341228719374834,-2.0275377914460098
2.3359074162665965,27.42428202784808,-0.03945737545084157,2.867621145354395,-1.9149633988949253
2.3278336120168786,26.857153255666958,-0.04128066704633883,2.8036665764568443,-1.8119646050565614
2.3194333014773605,26.30257603614051,-0.0427224383488409,2.742105618807615,-1.717444250421679
2.3107772347075533,25.76008577748233,-0.043838229349233065,2.6827969677741845,-1.6304561282942016
2.301925886806035,25.229245046957466,-0.044675249665949546,2.625610337474462,-1.55018126196525
2.2929309891986693,24.709641474612283,-0.04527372640770897,2.5704253859773503,-1.4759083310738577
2.2838368149833665,24.20088585928002,-0.04566801574531922,2.5171307673453147,-1.4070174524302956
2.2746812611179217,23.702610453271234,-0.0458875229091284,2.465623292742517,-1.3429666854430045
2.2654967622028916,23.214467405421722,-0.04595746624117275,2.415807185752602,-1.283280760409656
2.2563110641970763,22.736127344904922,-0.04589951381698061,2.3675934194154307,-1.2275416280525762
2.2471478812598447,22.26727809052116,-0.045732315555333185,2.3208991244222004,-1.1753805073321046
2.2380274547732317,21.807623472129468,-0.04547194931079586,2.2756470594946956,-1.1264711706721267
2.228967030248949,21.35688225255134,-0.04513229593203226,2.231765136286583,-1.0805242549988763
2.2199812651088404,20.91478713969902,-0.04472535546905565,2.1891859922366215,-1.037282426258698
2.2110825781148087,20.481083879903622,-0.04426151447125914,2.147846605717368,-0.9965162565108158
2.202281449415994,20.055530424472735,-0.04374977251689118,2.107687948591477,-0.9580206979563419
2.1935866786981277,19.637896162419878,-0.043197934661767017,2.0686546719370966,-0.9216120586561788
2.185005607700064,19.227961213100656,-0.0426127753188715,2.0306948212551097,-0.8871254012123142
2.1765443123556656,18.825515773181074,-0.04200017812511201,1.993759577940721,-0.8544122991237035
2.1682077689858734,18.43035951296662,-0.04136525557280972,1.9578030242038151,-0.8233388964950222
2.159999998273908,18.042301017649486,-0.04071245154684592,1.922781928967561,-0.7937842257591674
2.1519241901806034,17.66115726949553,-0.040045629386199044,1.8886555525719875,-0.7656387454563256
2.1439828124760787,17.286753167401717,-0.039368147659046525,1.855385468366131,-0.738803066198711
2.136177705161553,16.918921080615604,-0.03868292548621278,1.8229353994949842,-0.7131868379839054
2.1285101627174767,16.55750043372801,-0.03799249895454775,1.7912710693809764,-0.6887077761958211
2.1209810058301626,16.202337320333076,-0.03729906991859468,1.7603600645683442,-0.6652908071070426
2.113590644009643,15.853284143001634,-0.036604548286604116,1.7301717087460657,-0.6428673165957766
2.1063391303091565,15.510199277437621,-0.03591058871826008,1.7006769468940441,-0.6213744882168262
2.099226209185283,15.172946758887171,-0.035218622520471705,1.6718482386104618,-0.600754718801642
2.0922513583922933,14.84139598904834,-0.034529885409427225,1.643659459777834,-0.5809551014749531
2.0854138256805634,14.515421461889247,-0.03384544170787073,1.6160858118130892,-0.5619269674197301
2.0787126609634736,14.194902506925484,-0.03316620546302964,1.5891037378245527,-0.5436254789433161
2.0721467445271555,13.879723048636297,-0.03249295890015206,1.5626908450673302,-0.5260092674324538
2.065714811780436,13.569771380814622,-0.03182636856703933,1.5368258331494287,-0.5090401106641002
2.059415474976283,13.26493995475018,-0.03116699947449145,1.5114884274949787,-0.4926826446874956
2.0532472422793595,12.965125180238783,-0.030515327494743654,1.4866593176189933,-0.4769041061317666
2.0472151442924997,12.670227871603636,-0.02980565237385285,1.4623137687324819,-0.45981511460979513
2.0413234312033106,12.380152398356824,-0.029111478518038376,1.4384409637356503,-0.4435032792204141
2.035569011745716,12.094805889257415,-0.02843271605790626,1.4150241272584514,-0.42792409715964713
2.029948816827556,11.814098752105142,-0.027769233123698837,1.3920472442642895,-0.4130360965881903
2.024459807267603,11.537944525998142,-0.02712086247582776,1.3694950168057056,-0.3988005974485156
2.0190989802919463,11.26625974194765,-0.026487407280738184,1.3473528236992198,-0.3851814936693477
2.013863374949835,10.998963791288627,-0.02586864614037636,1.325606682891018,-0.372145054625101
2.0087500765888566,10.735978801368983,-0.02526433746940882,1.3042432163054134,-0.35965974395192707
2.0037562205117014,10.477229518039817,-0.024674223302143458,1.2832496169862617,-0.3476960540280871
1.9988789949214314,10.222643194505395,-0.024098032600555406,1.2626136183579655,-0.3362263546080536
1.994115643248807,9.972149486124842,-0.023535484125689003,1.2423234654475632,-0.3252247542601733
1.9894634659435588,9.725680350787801,-0.022986288926792064,1.2223678879228426,-0.31466697339957955
1.9849198218013127,9.48316995451416,-0.02245015249566994,1.202736074813578,-0.3045302278336516
1.9804821288889678,9.244554581953402,-0.021926776627779917,1.1834176507940248,-0.29479312184869016
1.97614786512355,9.00977255148252,-0.021415861026396872,1.1644026539148014,-0.28543554996536075
1.971914568552744,8.7787641346229,-0.020917104681663398,1.145681514681382,-0.27643860657835956
1.9677798373793376,8.551471479516294,-0.02043020705240039,1.127245036384681,-0.26778450277400356
1.9637413297665856,8.327838538218153,-0.01995486907511971,1.1090843765967338,-0.25945648968917945
1.9597967634569056,8.107810997583346,-0.019490794021682065,1.0911910297513239,-0.25143878783731116
1.955943915232295,7.891336213534647,-0.019037688224422564,1.0735568107356657,-0.24371652188259538
1.9521806202413252,7.678363148518585,-0.018595261685274558,1.0561738394249454,-0.23627566039347353
1.9485047712144563,7.468842311966416,-0.01816322858341582,1.0390345260967413,-0.22910296015082973
1.9449143175866943,7.262725703590032,-0.017741307694203408,1.0221315576671097,-0.22218591462631426
1.9414072645442118,7.059966759353873,-0.01732922273062233,1.0054578846944873,-0.21551270628200714
1.9379816720094374,6.860520299974269,-0.01692670261712096,0.9890067091015571,-0.2090721623748132
1.9346390142464351,6.664516284205295,-0.01649987501290235,0.971033448588179,-0.23735732303112853
1.9313781959803995,6.472095983049307,-0.016108307647453565,0.9531695629717024,-0.26721598070372016
1.9281922334197494,6.28323781369836,-0.015751317959048182,0.9354121305377646,-0.29854352901324616
1.9250742852504523,6.0979207665378325,-0.015428163733922199,0.9177583410674987,-0.33123763416769836
1.9220176639683595,5.916124383246228,-0.015138049087005927,0.9002054918485587,-0.3651980104343263
1.919015846067412,5.737828735656024,-0.014880129922467933,0.882750984053478,-0.40032620007412495
1.916062481184189,5.56301440530309,-0.014653518909761744,0.865392319475873,-0.4365253568380214
1.9131514002924617,5.391662463593761,-0.014457290007512764,0.8481270976174075,-0.4737000321255804
1.9102766230352703,5.223754452519934,-0.014290482564399671,0.8309530131208752,-0.511755962902027
1.9074323642765159,5.0592723658531185,-0.014152105023145414,0.8138678535472726,-0.5505998604574245
1.9046130399491201,4.898198630748656,-0.014041138250811781,0.7968694974973464,-0.5901391990726385
1.9018132722724628,4.740516089690836,-0.013956538515763003,0.7799559130808551,-0.6302820036298692
1.8990278944079961,4.586207982708778,-0.013897240128902071,0.7631251567397169,-0.670936635170559
1.8962519546186998,4.435257929791369,-0.01386215776406225,0.7463753724343632,-0.7120115733598071
1.8934807199953207,4.287649913427327,-0.01385018846972861,0.729704791206048,-0.7534151947633658
1.8907096798101937,4.143368261193562,-0.013860213381542094,0.7131117311316119,-0.7950555457800645
1.8879345485578123,4.0023976283112646,-0.013891099142271752,0.6965945976913498,-0.8368401089982097
1.8851512687402754,3.864722980084604,-0.013941699033097613,0.6801518845752449,-0.8786755616581117
1.8823560134552562,3.7303295741312787,-0.014010853817092788,0.6637821749580003,-0.9204675248032502
1.8795451888442778,3.599202942307567,-0.014097392292691325,0.6474841432791255,-0.962120301588433
1.876715436459845,3.4713288722225606,-0.014200131551637178,0.6312565575709239,-1.003536603083229
1.8738636356114429,3.3466933882269956,-0.014317876932383825,0.615098282384722,-1.0446172597614758
1.870986905752594,3.2252827317511006,-0.01444942165610321,0.5990082823742285,-1.085260916701175
1.8680826089741527,3.107083340853208,-0.014593546128310306,0.5829856266046991,-1.1253637103319785
1.8651483526728665,2.9920818288259596,-0.014749016884552232,0.5670294936678016,-1.164818924358148
1.8621819924690537,2.8802649616896794,-0.014914585153577015,0.5511391776949892,-1.2035166222518823
1.8591816354531154,2.771619634382475,-0.015088985005805682,0.5353140953770396,-1.2413432534541118
1.8561456438476658,2.6661328454333173,-0.015270931048690262,0.5195537941145489,-1.2781812301366973
1.8530726391804424,2.563791669877471,-0.015459115623544177,0.5038579614439094,-1.3139084710717819
1.849961507073032,2.4645832301424733,-0.015652205450559682,0.48822643590605447,-1.3483979088226736
1.846811402761992,2.368494664596721,-0.01584883765983992,0.4726592195514625,-1.3815169561201883
1.843621757482387,2.2755130934110745,-0.01604761513620856,0.4571564923050142,-1.4131269269263647
1.8403922858593535,2.1856255813356924,-0.016247101094126738,0.44171862844879134,-1.4430824073264816
1.837122994471339,2.09881909693879,-0.016445812786017824,0.4263462155202161,-1.4712305710504396
1.8338141917694974,2.0150804677900247,-0.01664221423239864,0.41104007596743364,-1.4974104341368455
1.8304664995617475,1.9343963309979095,-0.016834707845098724,0.39580129195371017,-1.5214520430646599
1.8270808662977296,1.8567530784267703,-0.017021624795079442,0.3806312337577001,-1.5431755906584348
1.823658582422885,1.782136795823405,-0.01720121395336731,0.36553159227596743,-1.5623904543284728
1.8202012981068876,1.7105331949761684,-0.017371629206608032,0.35050441619639183,-1.578894151890814
1.816711043694564,1.641927537909261,-0.017530914916627467,0.33555215447268766,-1.5924712115504032
1.8131902532774464,1.576304551983462,-0.01767698925454775,0.32067770478528973,-1.6028919549567482
1.8096417918427874,1.5136483346337002,-0.017807625092043786,0.30588446871231917,-1.609911196042887
1.80606898652643,1.4539422463284808,-0.017920428071528008,0.29117641433987695,-1.613266864351817
1.8024756625795189,1.3971687901957672,-0.01801281139758452,0.2765581469872663,-1.6126785707919988
1.7988661847613117,1.3433094766402078,-0.018081966784487976,0.2620349885683257,-1.6078461477926704
1.795245504998468,1.2923446712044075,-0.01812483084394802,0.2476130657896804,-1.5984482169285918
1.7916192173162382,1.2442534239455334,-0.018138045978348765,0.233299406799073,-1.5841408686067382
1.787993621266775,1.1990132787770413,-0.018117914516283074,0.21910204488585192,-1.564556585288271
1.7843757953831592,1.1566000616721865,-0.018060344319877384,0.2050301261627009,-1.539303609191314
1.7807736826220864,1.1169876475096068,-0.017960783290850713,0.19109401546309107,-1.5079660580145016
1.7771961904022138,1.080147706919302,-0.017814138907873443,0.17730539043995958,-1.4701052430676642
1.7736533088305428,1.0460494371472073,-0.01761467680883485,0.16367730728099825,-1.4252628645158485
1.7701562522571765,1.0146592852676974,-0.017355888924830115,0.15022421151410525,-1.3729670767177427
1.766717631781928,0.9859406788410396,-0.017030315827655854,0.13696185275245645,-1.3127428679000694
1.7633516703813572,0.9598537894044163,-0.016629298178052303,0.12390704161379035,-1.244128817605723
1.7600744789806486,0.9363553692399513,-0.016142615829032418,0.1110771600308455,-1.1667030951969544
1.7569044227986987,0.9153987226736113,-0.01555794599046549,0.09848930563255845,-1.080122474841172
1.7538626254835732,0.8969338992455889,-0.014860027160792152,0.08615892864767444,-0.9841788801766204
1.7509736884996672,0.8809082225299072,-0.014029342678266728,0.07409783850915244,-0.8788777470123271
1.7482667523668527,0.8672672794868674,-0.013040018649878152,0.06231159192123664,-0.7645395311100206
1.745777108008804,0.8559564531603137,-0.01185642493060701,0.05079667134430893,-0.6419167142625326
1.7435487115173967,0.8469229097832631,-0.010427539983466858,0.03953876242621171,-0.5122993651633709
1.741638264597908,0.8401175146413138,-0.008676929211421651,0.028515188993279303,-0.3775514832281167
1.7401224183300932,0.8354951821289234,-0.006481533466725734,0.017708136130610147,-0.23998979529153702
1.7391134482950887,0.8330095083928555,-0.003608166883320198,0.007148601230082822,-0.10201768866452196
