x,y,v_x,v_y,omega
2.375,32.48,0.0,3.5897435897435894,-6.775510204081632
2.3733471854658728,31.806655806950914,-0.01739804772765457,3.4980900212993933,-6.299220462583687
2.3686544629872532,31.150325725869955,-0.03199903099465887,3.410647674289658,-5.873410101524671
2.361412076078565,30.510239501004694,-0.04423662067574129,3.3271020611341133,-5.491170316212358
2.3520348227800083,29.885683438287046,-0.05447130878274931,3.247172283262188,-5.146711162919194
2.3408746608915454,29.275994489450092,-0.06300407951686028,3.1706061255478724,-4.83515454405051
2.3282309849910394,28.680555180202564,-0.0700872457516243,3.0971760770576853,-4.552370202799405
2.3143590518274255,28.098789226602506,-0.07593310333905036,3.026676066100819,-4.2948447952911435
2.2994769225410088,27.530157718768194,-0.0807208891495435,2.958918753207693,-4.05957663887992
2.2837712091969737,26.974155777020762,-0.08460240920872102,2.8937332651863517,-3.843990559212609
2.267401851786579,26.43030960505257,-0.08770661616385633,2.8309632818472292,-3.6458685906638
2.2505061049096797,25.89817387954495,-0.09014335096139875,2.7704654077067072,-3.4632932690771976
2.2332018770936592,25.377329427068695,-0.09200641552302728,2.7121077762538612,-3.2946009910179876
2.2155905374652853,24.867381147978097,-0.09337610688090948,2.6557688457524162,-3.138343468354195
2.1977592823360497,24.367956153988978,-0.09432131553209656,2.6013363541330565,-2.9932557290690727
2.179783136761089,23.878702091674814,-0.0949012694674869,2.5487064070686567,-2.8582294390577965
2.161726652223929,23.399285628559593,-0.09516698881840906,2.4977826783547186,-2.732290570009938
2.143645350484507,22.929391082081555,-0.09516250317550788,2.4484757056246256,-2.6145806333494233
2.125586954699364,22.46871917463538,-0.09492587351020808,2.4007022674930276,-2.5043408528649906
2.107592441716146,22.016985900312335,-0.09449005262893358,2.354384830644268,-2.400898768974221
2.08969694360163,21.573921490956078,-0.09388361173438534,2.3094510573163243,-2.3036568629083476
2.0719305217055135,21.139269470818377,-0.09313135559315706,2.2658333651857903,-2.2120828650597093
2.054318832674085,20.71278579049835,-0.09225484473767155,2.2234685329197204,-2.1257014725401104
2.0368837026382556,20.294238032030528,-0.09127283985000728,2.1822973456889434,-2.044087249904033
2.0196436231744976,19.883404677990686,-0.09020168082112993,2.1422642757830865,-1.9668585264979386
2.0026141804682664,19.48007443834542,-0.08905561082340828,2.1033171941671105,-1.8936721359453805
1.9858084273122236,19.084045629506406,-0.08784705397704083,2.0654071094014244,-1.8242188693789483
1.9692372060778198,18.695125600683937,-0.08658685375352565,2.028487930835089,-1.758219535368569
1.9529094295536846,18.31313020318238,-0.08528447807947806,1.9925162533918481,-1.6954215370037948
1.9368323255035294,17.937883298756656,-0.08394819613268284,1.9574511616157546,-1.635595891003016
1.9210116499240226,17.56921630356404,-0.08258523102001805,1.9232540509381106,-1.5785346256310386
1.9054518732501913,17.20696776460889,-0.08120189186241858,1.8898884643792293,-1.5240485040756901
1.8901563431385464,16.850982965896996,-0.07980368826015867,1.8573199431144045,-1.4719650281385819
1.87512742693688,16.501113561796796,-0.07839542965211721,1.82551588951926,-1.4221266839360478
1.860366636508531,16.157217235352803,-0.07698131169892754,1.7944454414701412,-1.3743893970266265
1.8458747377047575,15.81915737951578,-0.07556499149868638,1.764079356814338,-1.3286211691781522
1.8316518464608178,15.486802799449055,-0.0741496531743637,1.7343899070459123,-1.2847008730205303
1.8176975132204432,15.160027434243492,-0.07273806514537055,1.7053507793284486,-1.2425171842300584
1.80401079716219,14.838710096527944,-0.07133263020466285,1.6769369860983838,-1.2019676337643699
1.7905903315034197,14.522734228600058,-0.06993542936133923,1.6491247815635768,-1.1629577651012712
1.777434380988249,14.211987673825632,-0.06854826027203957,1.621891584483021,-1.1254003835019022
1.7645408925203951,13.906362462165486,-0.06717267096852683,1.5952159066764253,-1.089214886078194
1.7519075397768065,13.605754608788274,-0.06580998949029937,1.5690772867678964,-1.0543266629456813
1.7395317625302478,13.310063924817197,-0.06446134994716263,1.543456228717131,-1.0206665610261267
1.727410801316084,13.01919383933923,-0.06312771546508514,1.5183341447351613,-0.9881704031640436
1.7155417279981928,12.733051231878441,-0.06180989840745463,1.4936933022205092,-0.956778556165339
1.7039316411051972,12.451548676705446,-0.060401542571446185,1.4694914890741897,-0.9234675669839127
1.6925862861886487,12.174601746499167,-0.05902324602380045,1.4457393552024351,-0.8916199219290065
1.68149997277634,11.902126479901007,-0.05767478989524119,1.4224213458308363,-0.8611544567314791
1.6706670585902132,11.6340418058106,-0.05635588574819733,1.399522591962921,-0.8319953618522291
1.6600819617347455,11.370269416712183,-0.05506618641461956,1.3770288722309236,-0.8040717728144102
1.6497391709547247,11.110733649009195,-0.0538052954803377,1.3549265772742138,-0.7773173960716573
1.6396332542038694,10.855361369905363,-0.05257277558129745,1.333202676450335,-0.7516701669729221
1.6297588657363016,10.60408187040601,-0.05136815565625869,1.311844686700769,-0.7270719367512534
1.6201107519071192,10.356826764045579,-0.050190937282503345,1.2908406434090098,-0.703468185787946
1.6106837558457672,10.113529890976984,-0.04904060020541213,1.2701790731024907,-0.680807760690295
1.6014728211461375,9.87412722708531,-0.047916607159108004,1.2498489678625089,-0.6590426329753533
1.5924729946999943,9.638556797813191,-0.04681840806345381,1.2298397613177026,-0.6381276773776365
1.5836794287850977,9.406758596407848,-0.04574544367229779,1.2101413061069588,-0.6180204679991237
1.5750873825060454,9.178674506320522,-0.04469714873878118,1.1907438527069987,-0.5986810906982004
1.5666922226740807,8.95424822750816,-0.043672954755582874,1.1716380295283855,-0.5800719702730265
1.5584894242018028,8.733425206404778,-0.04267229232102738,1.1528148241914333,-0.5621577111364724
1.550474570079595,8.516152569346044,-0.04169459317589528,1.1342655659005179,-0.5449049503062775
1.5426433509925932,8.302379059245535,-0.04073929195043804,1.115981908841701,-0.5282822216471796
1.5349915646299421,8.092054975334804,-0.039805827656415604,1.0979558165344152,-0.5122598304030054
1.5275151147318708,7.8851321157920715,-0.03889364495486168,1.080179547073288,-0.49680973714742
1.5202100099146256,7.6815637230960085,-0.03800219522666631,1.062645639201049,-0.48190545036341903
1.5130723623084532,7.481304431951905,-0.03713093746988517,1.0453468991579233,-0.467521926934724
1.50609838603955,7.284310219647487,-0.03627933904488563,1.0282763882569843,-0.45363547989794795
1.4992843955831183,7.090538358704901,-0.03544687628597398,1.0114274111386787,-0.4402236928635252
1.492626804011333,6.899947371703917,-0.03463303499597452,0.9947935046611585,-0.42726534056666804
1.4861293073977895,6.712699840331066,-0.0337616661992236,0.9762331413688449,-0.4574348768902158
1.4797926099842325,6.528968449726673,-0.03294041183821805,0.957781496572136,-0.48908649437681584
1.4736073323516008,6.348732812575051,-0.03216777376843194,0.9394357366028375,-0.5221112166447772
1.4675643817411999,6.171973069311743,-0.03144223265683992,0.9211931398530192,-0.556402156720701
1.4616549557296383,5.998669867169866,-0.030762251675385974,0.90305109321936,-0.5918542758828516
1.455870545238965,5.82880433986492,-0.030126279805386947,0.8850070889379524,-0.6283641462693436
1.4502029369534664,5.662358087844478,-0.02953275477880809,0.8670587218035294,-0.6658297162273696
1.4446442152099257,5.499313159030002,-0.02898010567951499,0.849203686769892,-0.7041500773752672
1.439186763424008,5.339652029978396,-0.028466755224882477,0.8314397769312308,-0.7432252323368039
1.4338232651118217,5.183357587390656,-0.0279911217455017,0.8137648818870739,-0.7829558620863355
1.4285467045625748,5.030413109894187,-0.027551620878147966,0.7961769864968141,-0.8232430918140847
1.423350367215611,4.880802250023834,-0.027146666984629694,0.7786741700332095,-0.8639882541822108
1.4182278397929435,4.734509016324623,-0.026774674306607526,0.761254605747962,-0.9050926487940151
1.4131730102367426,4.591517755496245,-0.02643405786392647,0.7439165608665314,-0.9464572966398842
1.408180067500035,4.4518131344957155,-0.02612323410141481,0.7266583970337861,-0.9879826882136236
1.4032435012381888,4.315380122509989,-0.025840621286442586,0.7094785712370201,-1.0295685239108021
1.3983581014485837,4.18220397270483,-0.025584639656767452,0.6923756372383505,-1.0711134452256394
1.3935189581062382,4.052270203649492,-0.025353711315293043,0.6753482475546679,-1.1125147551537422
1.388721460844083,3.925564580308926,-0.025146259865286773,0.6583951560302379,-1.1536681260834947
1.3839612987281313,3.802073094485838,-0.024960709776309035,0.6415152210548986,-1.1944672933179399
1.3792344601799649,3.6817819445841025,-0.024795485467548766,0.6247074094897025,-1.2348037322103418
1.3745372331018657,3.5646775145522405,-0.02464901009139008,0.6079708013719922,-1.2745663167191652
1.3698662052635833,3.4507463518509702,-0.02451970399579445,0.5913045954834741,-1.3136409569909726
1.365218265014239,3.3399751442716195,-0.024405982839408844,0.5747081158780943,-1.3519102133620338
1.360590602388323,3.2323506954124426,-0.024306255328129602,0.5581808194816716,-1.389252883931153
1.3559807106812227,3.1278598985968884,-0.024218920536082985,0.5417223048926012,-1.4255435625980348
1.3513863885773794,3.0264897089914733,-0.024142364767531545,0.5253323225328187,-1.4606521641854306
1.3468057429231115,2.9282271136503653,-0.024074957908972947,0.5090107863209526,-1.4944434129733082
1.342237192246568,2.833059099178648,-0.024015049212538123,0.49275778706555634,-1.5267762906761893
1.3376794711393325,2.7409726166658643,-0.023960962442570344,0.47657360780585584,-1.5575034396016978
1.3331316356281424,2.6519545434950196,-0.0239109903067983,0.46045874136091725,-1.5864705164564532
1.3285930696812458,2.5659916415790818,-0.023863388081588225,0.4444139103857778,-1.6135154920408374
1.3240634930124202,2.4830705115163063,-0.02381636632710249,0.4284400902750076,-1.6384678919357456
1.3195429703669619,2.403177542086663,-0.0237680825724588,0.41253853530019385,-1.6611479732895333
1.31503192249847,2.3262988544334995,-0.02371663183271891,0.3967108084173232,-1.6813658330458452
1.3105311390735406,2.2524202401868543,-0.023660035798115764,0.3809588152315585,-1.6989204435348972
1.3060417937742241,2.1815270926873644,-0.02359623051047925,0.365284842657813,-1.7135986124591913
1.3015654619061763,2.1136043303630565,-0.023523052311077722,0.3496916028612345,-1.7251738661961828
1.2971041408650372,2.0486363111972494,-0.023438221806174914,0.3341822830946186,-1.7334052583867436
1.2926602738663286,1.9866067371077847,-0.023339325548653242,0.31876060205764184,-1.7380361105177675
1.2882367774073997,1.9274985469425125,-0.02322379507165063,0.3034308733662737,-1.738792698420557
1.2838370730070905,1.8712937966948076,-0.023088882826340862,0.28819807660958374,-1.7353829094265303
1.279465123864919,1.8179735254742226,-0.022931634459674607,0.27306793623869385,-1.727494910993678
1.2751254772046308,1.7675176057613555,-0.022748856701254053,0.2580470081072608,-1.7147958953316509
1.2708233132291653,1.7199045765793741,-0.0225370798825931,0.24314277275569726,-1.696930999380916
1.2665645018350649,1.6751114585004636,-0.022292513739515983,0.22836373333809748,-1.6735225504675078
1.262355668545504,1.6331135499856408,-0.022010994571650802,0.21371951418635823,-1.644169862295651
1.258204271573449,1.593884205600098,-0.021687920923664148,0.19922095302988244,-1.6084499139666115
1.254118692603293,1.557394598406507,-0.02131817349902927,0.18488017532369203,-1.56591940084306
1.2501083449174266,1.5236134716854721,-0.020896012667986054,0.1707106322661514,-1.5161188698212031
1.2461838041186883,1.4925068895919047,-0.020414943108206452,0.15672707398193586,-1.4585799677345803
1.2423569692806962,1.4640380031425302,-0.019867528870658492,0.14294541495883284,-1.3928372678846892
1.2386412665021165,1.4381668579315559,-0.01924513195649642,0.1293824293672241,-1.3184467171806045
1.2350519135329838,1.4148502841025241,-0.018537530876477706,0.11605518988572985,-1.2350134532723915
1.2316062749594443,1.3940419278085656,-0.017732348844991305,0.10298013952436903,-1.1422324695056716
1.2283243548626854,1.375692505372939,-0.01681417848931208,0.09017167558748643,-1.0399460156457423
1.2252295017718555,1.3597503807447602,-0.015763222466792622,0.07764016260387444,-0.928220885422602
1.2223494452613695,1.346162567638011,-0.014553161854114358,0.06538944904610175,-0.8074451554345864
1.2197178559183406,1.3348762046729483,-0.013147778598821228,0.05341437163876589,-0.6784346590267487
1.2173767481887139,1.3258403785815744,-0.011495460660406881,0.04169958721781804,-0.5425213658997892
1.2153803217390227,1.3190077658978403,-0.009519554599501087,0.030222651558317916,-0.4015695284915808
1.2138016476104119,1.3143347040735769,-0.007098067806928295,0.01896747290761127,-0.2578431107042721
1.2127469934829977,1.3117759667886162,-0.004003554586903511,0.007966603776182246,-0.11365545885781975
