x,y,v_x,v_y,omega
2.375,32.48,0.0,3.128205128205128,-5.551020408163265
2.373560743993232,31.831215008177914,-0.013707200064457439,3.0506995558147194,-5.174082593491264
2.3694673406185274,31.198347442966476,-0.025277593980348723,2.9766105890561025,-4.835634090301263
2.3631348638441745,30.580705466147375,-0.03503170863253584,2.905693952078198,-4.530590738133275
2.354916566943514,29.97764593361171,-0.043237785659467606,2.837730167309091,-4.254663292007868
2.3451138721486338,29.388569547606068,-0.05012121238701098,2.7725211279827433,-4.004215495315652
2.333984577678597,28.812916664344172,-0.055872068280007375,2.7098872840352857,-3.776150580161843
2.3217496340928525,28.250163642223228,-0.06065120396517784,2.6496653075927865,-3.5678198736843525
2.3085987650621322,27.699819640444005,-0.06459516775596873,2.5917061379236035,-3.376948738268076
2.2946951493395686,27.161423796312405,-0.06782022007796822,2.535873329996396,-3.20157620703866
2.28017933601856,26.634542723570455,-0.07042562107449571,2.4820416484983716,-3.0400055150319174
2.2651725305861774,26.118768284942103,-0.07249633542438533,2.4300958622478452,-2.890763354163292
2.2497793623097846,25.613715600517505,-0.07410526720792786,2.37992970370071,-2.752566154357024
2.234090222300042,25.11902126023885,-0.07531511383723784,2.3314449656198124,-2.6242920546589064
2.218183244826204,24.63434171402631,-0.07617990972312676,2.2845507125948497,-2.504957505911552
2.202125991113392,24.159351817314047,-0.0767463161131782,2.2391625894267184,-2.3936976616011236
2.1859768841687126,23.693743513190142,-0.07705470240757528,2.1952022117532937,-2.2897498811051746
2.169786434587873,23.237224635128207,-0.07714005550518334,2.1525966269318233,-2.1924398010719095
2.1535982903452826,22.789517816595875,-0.07703274680520128,2.1112778352808745,-2.1011695344396055
2.1374501379280217,22.35035949572905,-0.07675918097823552,2.0711823634507733,-2.0154076389607636
2.1213744775728958,21.919499004848404,-0.07634234621344325,2.03225088303156,-1.93468056279156
2.1053992915991815,21.49669773592776,-0.0758022821076419,1.9944278685936156,-1.8585653273702294
2.0895486217348385,21.08172837424994,-0.07515647850515272,1.9576612902427535,-1.786683250218825
2.0738430687821707,20.674374193441917,-0.07442021628215523,1.9219023365003425,-1.718694544606627
2.058300225857981,20.274428405897584,-0.07360685918632101,1.8871051639218666,-1.6542936608751966
2.0429350546913665,19.881693563297034,-0.07272810430524337,1.8532266703690725,-1.593205256943872
2.0277602130041448,19.495981002534847,-0.0717941974778233,1.8202262892708432,-1.5351807041094911
2.012786339781569,19.117110332892462,-0.07081411892766099,1.7880658025613774,-1.4799950495286491
1.9980223042220429,18.74490896074378,-0.06979574354401542,1.7567091702832334,-1.4274443693610541
1.983475423299267,18.379211648478865,-0.0687459795300383,1.7261223750968735,-1.3773434569646166
1.9691516521505967,18.01986010467739,-0.06767088855253565,1.696273280155271,-1.3295237991710096
1.9550557508983204,17.66670260286734,-0.06657579004057286,1.667131498988099,-1.2838318008587797
1.941191430997274,17.319593626472578,-0.06546535187415586,1.6386682762000764,-1.2401272240406394
1.9275614837671946,16.97839353778931,-0.06434366936469472,1.6108563779263139,-1.1982818127032167
1.9141678933987425,16.64296826904077,-0.06321433414437173,1.5836699911073693,-1.1581780788522438
1.9010119364076283,16.313189033745644,-0.0620804943424315,1.557084630750979,-1.1197082287630316
1.8880942692430427,15.98893205680076,-0.060944907225050624,1.53107705443838,-1.0827732114286424
1.8754150055273358,15.670078321826391,-0.059809985305490226,1.5056251834127377,-1.0472818737293692
1.8629737842075744,15.356513334454068,-0.05867783678747592,1.4807080296570114,-1.013150208993295
1.8507863624320287,15.04812964231888,-0.0573928467891506,1.456279514487627,-0.9758290266027395
1.838866515177712,14.744823705552854,-0.05612950801386552,1.4323484547126084,-0.9402650772150497
1.827209631540315,14.446492972567519,-0.05488843138991566,1.4088966213381848,-0.9063543848470231
1.8158109889384546,14.153038629521493,-0.05367006958018134,1.385906645766809,-0.8740002944202302
1.8046657841541216,13.86436542499601,-0.05247473788965932,1.3633619687615945,-0.8431128746648051
1.793769160251654,13.580381505008624,-0.051302632610033476,1.3412467930230239,-0.8136083762053284
1.783116229879949,13.300998257637808,-0.05015384712048854,1.319546039080007,-0.7854087391421088
1.7727020953999362,13.026130166590736,-0.04902838602249232,1.2982453042254465,-0.7584411450864657
1.7625218662247755,12.755694673100649,-0.047926177550466464,1.2773308242515558,-0.7326376091740872
1.7525706737126985,12.489612045589158,-0.04684708446931318,1.2567894377626323,-0.7079346080768586
1.7428436839109085,12.22780525657345,-0.04579091364297361,1.236608552863141,-0.6842727404698693
1.7333361084127241,11.97019986633893,-0.0447574244349723,1.2167761160370367,-0.6615964167944671
1.724043213558468,11.716723912934736,-0.04374633608175096,1.197280583050529,-0.6398535754969674
1.7149603281828651,11.46730780808329,-0.04275733416208598,1.1781108917251384,-0.618995423221759
1.7060828500874274,11.221884238625837,-0.04179007627065381,1.1592564364411027,-0.5989761967020818
1.6974062513950017,10.980388073153993,-0.04084419699054414,1.1407070442431262,-0.5797529443260123
1.688926082924959,10.742756273503183,-0.03991931224795677,1.122452952431246,-0.5612853255629363
1.68063797771109,10.508927810807318,-0.039015023122224636,1.1044847875293615,-0.5435354266202461
1.6725376537698304,10.27884358583579,-0.03813091917548724,1.0867935455328186,-0.5264675908640152
1.6646209162137484,10.052446353353673,-0.03726658135862593,1.0693705733444814,-0.5100482626834071
1.656883658794044,9.829680650264322,-0.03642158454332049,1.0522075513160134,-0.49424584360872775
1.6493218649459576,9.61049272731028,-0.035595499724169935,1.0352964768177357,-0.47903055960917357
1.6419316084023086,9.39483048412394,-0.0347878959296305,1.0186296487664714,-0.46437433860011074
1.6347090534327207,9.182643407433599,-0.03399834187596842,1.0021996530462935,-0.4502506972825564
1.6276504547593298,8.973882512243716,-0.03322640739442178,0.9859993487621229,-0.43663463652067336
1.620758723230745,8.76864656180621,-0.032409130973053014,0.968628750642675,-0.4514402686527089
1.6140344769105295,8.567046323919012,-0.031631310171855255,0.9513735149496815,-0.46821099751494055
1.6074694892714376,8.36905791157627,-0.03089238162901914,0.9342304121240342,-0.48683218424812114
1.6010556601039223,8.174658102513646,-0.030191705680649647,0.9171963408533422,-0.5071923457068619
1.5947850307580245,7.98382431284038,-0.02952857380409347,0.9002683227015811,-0.5291829025298412
1.5886497978875576,7.796534571754002,-0.028902215438448727,0.8834434971686767,-0.552697935442351
1.5826423258226376,7.6127674972493224,-0.028311804227454027,0.8667191171615969,-0.5776339487939646
1.5767551576875112,7.4325022727369365,-0.027756463726131525,0.8500925448611124,-0.6038896403637599
1.5709810253723242,7.255718624489575,-0.027235272608982317,0.8335612479709138,-0.6313656764884119
1.5653128584598925,7.08239679983711,-0.026747269414174952,0.8171227963382677,-0.6599644715846846
1.5597437922016288,6.912517546033115,-0.02629145685500274,0.8007748589378807,-0.6895899711474238
1.5542671746305303,6.746062089717256,-0.025866805726888254,0.7845152012131504,-0.7201474373070406
1.5488765728934943,6.583012116898864,-0.025472258435359708,0.7683416827715425,-0.7515432360265721
1.5435657788801742,6.423349753387338,-0.02510673216769083,0.7522522554334743,-0.783684625007527
1.5383288142210993,6.267057545594955,-0.02476912172826018,0.7362449616368506,-0.8164795413556101
1.5331599347238438,6.114118441636844,-0.024458302055124937,0.7203179332023047,-0.8498363880317591
1.528053634312612,5.964515772651534,-0.02417313043279501,0.7044693904673155,-0.8836638180802924
1.523004648533729,5.818233234263392,-0.023912448413712394,0.6886976418007185,-0.9178705155838934
1.5180079576871504,5.675254868105476,-0.023675083458463916,0.6730010835127803,-0.952364972244075
1.5130587896422747,5.535565043317735,-0.02345985030225747,0.6573782001800026,-0.98705525842503
1.5081526223950097,5.399148437930968,-0.023265552052646174,0.6418275654082427,-1.0218487874276712
1.5032851864222914,5.265990020041524,-0.023090981020862843,0.6263478430626553,-1.0566520716783971
1.498452466890029,5.1360750286751085,-0.0229349192863984,0.6109377889984553,-1.0913704694228337
1.4936507057708401,5.009388954230339,-0.022796138991589162,0.5955962533326854,-1.1259079204076108
1.4888764039289304,4.885917518383472,-0.022673402359932832,0.5803221833041475,-1.1601666689122114
1.4841263232311355,4.765646653325,-0.02256546142859165,0.5651146267765601,-1.1940469723572182
1.4793974887455212,4.6485624801863175,-0.022471057482019125,0.5499727364489804,-1.2274467935640838
1.4746871910920787,4.534651286500161,-0.022388920169814527,0.5348957748477521,-1.2602614745743024
1.4699929890140384,4.423899502521628,-0.0223177662877114,0.5198831201858881,-1.2923833897523216
1.4653127122432508,4.316293676217253,-0.02225629819598011,0.5049342731891008,-1.3237015756970412
1.460644464739011,4.211820446707097,-0.022203201844398793,0.4900488650028696,-1.3541013352724771
1.455986628386789,4.110466515919008,-0.02215714436724029,0.4752266663122584,-1.3834638128416292
1.451337867251668,4.012218618184498,-0.022116771205341314,0.46046759782592667,-1.4116655375531553
1.446697132491066,3.917063487471463,-0.022080702705153665,0.44577174229820304,-1.4385779312953233
1.4420636680426822,3.824987821909861,-0.022047530136596705,0.43113935828847433,-1.4640667777070937
1.4374370172167898,3.7359782452215704,-0.022015811062378387,0.41657089588571317,-1.4879916484390971
1.432817030337231,3.6500212646144945,-0.02198406398103731,0.402067014657862,-1.5102052827130503
1.4282038735930482,3.5671032246427146,-0.021950762154037805,0.38762860412098166,-1.5305529161740241
1.4235980392829557,3.487210256468579,-0.021914326513510975,0.3732568070612508,-1.5488715551201888
1.4190003576582548,3.4103282218884026,-0.021873117531258368,0.35895304608328993,-1.5649891925077766
1.4144120105968336,3.3364426514007235,-0.02182542591084754,0.3447190537993672,-1.5787239627784126
1.409834547372262,3.26553867550491,-0.021769461942216406,0.33055690711313285,-1.5898832337049496
1.405269902818576,3.197600948319195,-0.021703343330984674,0.3164690660841368,-1.5982626353354106
1.4007204182343296,3.1326135625031455,-0.021625081280885635,0.3024584178782397,-1.6036450290705637
1.3961888654205423,3.0705599543641533,-0.021532564564707507,0.2885283263026284,-1.6057994244253977
1.39167847430866,3.0114227979280486,-0.021423541262740223,0.2746826873745569,-1.6044798577990973
1.3871929647100658,2.9551838866722058,-0.02129559777149116,0.2609259912525119,-1.5994242576222624
1.3827365828132527,2.901824001575065,-0.0211461345791093,0.24726339062500496,-1.5903533350216879
1.3783141431765764,2.8513227641590753,-0.020972338151143802,0.23370077524155064,-1.5769695607447076
1.3739310771260307,2.803658473342164,-0.020771148044529685,0.22024485158618348,-1.5589563205462835
1.3695934886886068,2.7588079252384325,-0.020539218026174998,0.20690322559221092,-1.5359773869121882
1.365308219504096,2.716746215671865,-0.020272869445356653,0.19368448456557294,-1.5076769110734924
1.361082924612718,2.6774465262518774,-0.019968034282052138,0.18059827181525778,-1.4736802344989393
1.3569261616952952,2.64087989664932,-0.019620183979118713,0.16765534344717747,-1.4335959554808553
1.3528474973813753,2.607014988556294,-0.019224238058213463,0.15486759077210846,-1.387019880050873
1.3488576358579962,2.5758178512032366,-0.018774443116826158,0.14224800306654362,-1.3335417570409187
1.344968577564745,2.5472517048935934,-0.018264207295089763,0.12981053321577843,-1.2727560655370735
1.341193819828176,2.5212767685854125,-0.01768586638652043,0.1175698125764054,-1.2042786023375136
1.3375486178001261,2.4978501708558802,-0.017030343404431166,0.10554064199056531,-1.1277711891421518
1.3340503344928059,2.476926000859283,-0.01628664047480925,0.09373716750083223,-1.0429773805293168
1.330718925343413,2.4584555756199826,-0.015441065709884117,0.08217164430201482,-0.9497723029276507
1.3275776291345553,2.4423880163174196,-0.014476041041141093,0.07085273000810763,-0.8482289878684113
1.3246539788904605,2.4286712239187445,-0.01336824699785619,0.059783388074499844,-0.738700383588244
1.3219813139915277,2.417253291117465,-0.012085704420551582,0.04895882908053436,-0.6219083910266516
1.3196010940982839,2.4080842233861937,-0.010583056467485715,0.038365625503014505,-0.49901644789061683
1.3175665730878379,2.4011174682900176,-0.00879333410818983,0.027984423031982855,-0.37164122154855217
1.3159491387362892,2.396309969664042,-0.006610802573227393,0.017801278167796176,-0.24174171057288116
1.314851664672172,2.3936173731682295,-0.0038413313707457027,0.007842497982808831,-0.11133055724949317
