x,y,v_x,v_y,omega
2.375,32.48,0.0,2.9743589743589745,-5.795918367346939
2.373978178656095,31.950335420383126,-0.011353570487835871,2.910803021384041,-5.468402193510123
2.371047389677627,31.431904007203773,-0.021210751495138746,2.849546013942104,-5.168276469488914
2.366460090202591,30.9243044466771,-0.029759242671928907,2.7904491030209075,-4.892535583632447
2.360437263528594,30.42715933647905,-0.03716105370581387,2.73338545473521,-4.638567757653217
2.353172691086028,29.94011315166728,-0.04355641787825523,2.678238820951123,-4.404095696756807
2.344836579891396,29.4628304479979,-0.04906703983987731,2.624902330930887,-4.187127345340652
2.3355786539281755,28.994994266602035,-0.05379880419590659,2.573277462356522,-3.985914823853458
2.325530797535324,28.53630471066821,-0.057844044613553566,2.5232731591303668,-3.7989200292794454
2.314809322783189,28.086477670027186,-0.06128345263239365,2.474805070214362,-3.6247856937267384
2.303516919989324,27.645243673695628,-0.0641876895216581,2.4277948890251912,-3.4623109369586516
2.2917443402342985,27.21234685375711,-0.06661875220084752,2.3821697769583343,-3.31043053691181
2.2795718504254014,26.787544006631688,-0.0686311345646745,2.3378618577685817,-3.168197290091971
2.267070494703433,26.37060373995195,-0.07027281790164344,2.2948077720062945,-3.03476695067952
2.2543031904720987,25.96130569503204,-0.07158611800207115,2.2529482826593985,-2.9093853302617223
2.2413256828018238,25.559439836369563,-0.0726084116676489,2.2122279247014034,-2.791377214643201
2.2281873772259604,25.164805800822684,-0.07337276139750176,2.1725946924861517,-2.6801368141956967
2.2149320678550866,24.777212300105322,-0.0739084538344287,2.1339997599289946,-2.575119512772219
2.2015985751640073,24.39647657108157,-0.07424146495534015,2.096397229223774,-2.4758347197015107
2.188221305660416,24.02242386904596,-0.07439486286234136,2.059743904505256,-2.3818396616366324
2.1748307438474077,23.654886999773737,-0.0743891572821977,2.023999087408322,-2.292733977493261
2.161453885382516,23.293705886634,-0.0742426034388196,1.9891243919220967,-2.2081550015074325
2.148114619063899,22.938727169493298,-0.0739714667680365,1.9550835763079606,-2.127773637460351
2.134834064199251,22.589803832511215,-0.0735902539502743,1.921842390159605,-2.0512907420673265
2.1216308690020034,22.246794858252024,-0.07311191490803465,1.8893684349425488,-1.9784339479737585
2.108521474885322,21.90956490581599,-0.07254801972175774,1.8576310365689324,-1.9089548671963048
2.095520350865133,21.577984010937442,-0.07190891383589583,1.8266011287482862,-1.8426266245566554
2.0826402017205266,21.251927306208998,-0.07120385443751104,1.7962511460121764,-1.7792416779737756
2.069892153078246,20.931274759777864,-0.07044113047671437,1.766554925444884,-1.7186098886475631
2.0572859161749375,20.615910931023755,-0.0696281684489364,1.7374876162674018,-1.6605568093778798
2.0448299346958785,20.305724741872787,-0.06877162576282948,1.7090255965211516,-1.604922163677566
2.032531515783295,20.00060926252937,-0.0678774732658799,1.6811463961834852,-1.5515584920874304
2.0203969470436793,19.700461510521937,-0.06695106828540247,1.6538286261213186,-1.5003299452932908
2.0084316011556314,19.405182262059164,-0.065997219359575,1.627051912353907,-1.4511112063691052
1.9966400294823732,19.114675874783615,-0.06502024367662802,1.6007968351522084,-1.4037865267999807
1.985026045921924,18.82885012109026,-0.06402401810613981,1.575044872551734,-1.3582488629357719
1.9735928020791653,18.547616031249675,-0.06301202459117809,1.549778347899196,-1.3143991012412548
1.962342854714577,18.270887745640508,-0.06198739057091559,1.5249803810915283,-1.2721453621852294
1.9512782263115813,17.998582375454305,-0.060952925017924674,1.5006348431996357,-1.231402373884162
1.9404004595059134,17.730619871288415,-0.05991115060060705,1.476726314199142,-1.192090907716196
1.9297155057152158,17.466925630906502,-0.05881055818492198,1.453209690044347,-1.1522479977182867
1.9192278928055657,17.207427502764347,-0.057718474144523,1.4301028448684585,-1.114073964370932
1.9089359862029758,16.952052952116325,-0.05663604366203134,1.4073921623317953,-1.0774802550469267
1.898837959567254,16.700731843552738,-0.055564252290434824,1.385064599485847,-1.0423839022273031
1.8889318219912705,16.453396340547627,-0.05450394299827018,1.3631076561264954,-1.0087071147212918
1.8792154422932128,16.209980810346924,-0.05345583142459166,1.3415093461035488,-0.9763769028233851
1.869686570706523,15.970421733857972,-0.05242051953862764,1.3202581704403535,-0.9453247342614547
1.8603428582391466,15.73465762022666,-0.05139850787666646,1.2993430921297942,-0.9154862181115012
1.8511818739444306,15.50262892581139,-0.050390206509068725,1.2787535124843141,-0.8868008141403307
1.8422011203200421,15.274277977284296,-0.049395944873026225,1.2584792489278367,-0.859211565291611
1.833398047028237,15.049548898609384,-0.04841598059147515,1.2385105141267272,-0.8326648512571303
1.8247700631103396,14.828387541665098,-0.0474505073851625,1.2188378963653446,-0.8071101612769591
1.816314547850102,14.610741420295074,-0.04649966217303272,1.1994523410793556,-0.7824998844924718
1.8080288604244203,14.39655964758591,-0.045563531445650916,1.1803451334669128,-0.7587891163373223
1.7999103484654695,14.185792876184518,-0.04464215698713878,1.1615078821041045,-0.7359354795956959
1.791956355645464,13.978393241480433,-0.04373554101292125,1.1429325034968276,-0.7138989588863843
1.7841642283838006,13.774314307490137,-0.042843650783337545,1.1246112075064705,-0.6926417474471585
1.7765313217660932,13.573511015291313,-0.041966422746746265,1.1065364835915734,-0.6721281051980156
1.7690550047554812,13.375939633864991,-0.04110376626005311,1.088701087812007,-0.6523242271554665
1.761732664768419,13.181557713212754,-0.040255566929525644,1.0710980305461966,-0.6331981213542512
1.7545617116798387,12.990324039624792,-0.039421689610257,1.0537205648755943,-0.6147194955087487
1.7475395813160384,12.802198592982535,-0.03860198109863443,1.036562175593938,-0.5968596517147652
1.7406637384877872,12.617142505986905,-0.03779627254860076,1.019616568801931,-0.5795913885541532
1.7339316796108746,12.435118025210162,-0.037004381639317435,1.002877662050788,-0.562888910020515
1.7273409349566258,12.25608847387553,-0.03622611451900154,0.9863395750007018,-0.5467277407347212
1.7208954996019608,12.080246897975357,-0.03538983386616749,0.9674557127789815,-0.5816357612191112
1.714596155397727,11.907795090373128,-0.034602879514207846,0.9486754828013481,-0.6177667827920614
1.7084341738059035,11.738714628494996,-0.03386358261716383,0.9299963158445641,-0.655015202416657
1.702401127365854,11.572987542877769,-0.03317026671671809,0.9114157465690711,-0.6932768871534307
1.696488890843587,11.41059629869552,-0.03252125019736234,0.8929314110114779,-0.732448941018969
1.6906896419667354,11.251523777703692,-0.03191484843431909,0.8745410444532602,-0.7724294729478828
1.6849958617989986,11.095753260532849,-0.031349375651645556,0.8562424796672364,-0.813117364825752
1.6794003348048556,10.943268409263617,-0.03082314650550049,0.8380336455464428,-0.854412038536202
1.6738961486528972,10.794053250213341,-0.03033447740514782,0.8199125661232775,-0.896213220932229
1.6684766938040645,10.648092156863122,-0.029881687581882425,0.8018773599902747,-0.9384207055997635
1.6631356629294647,10.50536983285161,-0.029463099913668554,0.7839262401376542,-0.9809341102296514
1.6578670502012578,10.365871294958797,-0.029077041510855474,0.7660575142269337,-1.0236526283520735
1.6526651504993541,10.229581855999172,-0.02872184406585142,0.7482695853244521,-1.0664747741141325
1.6475245585763914,10.096487107538834,-0.02839584396706722,0.7305609531237207,-1.1092981186960589
1.6424401682236274,9.966572902345494,-0.02809738217475442,0.7129302156911702,-1.1520190168632658
1.6374071714810823,9.839825336473428,-0.027824803853526023,0.6953760717762113,-1.1945323220393131
1.6324210579364657,9.716230730877538,-0.02757645775332422,0.6778973237336803,-1.23673108815764
1.627477614159205,9.59577561244117,-0.027350695327348677,0.6604928811148398,-1.2785062564066119
1.6225729233182695,9.478446694291527,-0.027145869571935863,0.6431617649922977,-1.3197463248219545
1.617703365035537,9.364230855263699,-0.026960333569534874,0.6259031130946681,-1.3603369985020848
1.6128656155302257,9.253115118359695,-0.026792438711701932,0.6087161858387325,-1.4001608180244889
1.6080566481144793,9.145086628031766,-0.026640532574371382,0.5916003733604822,-1.4390967634248732
1.6032737341056622,9.040132626099744,-0.026502956412483823,0.5745552036619899,-1.4770198308656803
1.5985144442273636,8.938240426089369,-0.026378042235280768,0.5575803520088584,-1.5138005788681288
1.593776650578648,8.839397385752573,-0.026264109417116512,0.5406756517333114,-1.5493046407151212
1.5890585292598827,8.743590877500669,-0.026159460791383555,0.5238411066211702,-1.5833921993563684
1.5843585637536308,8.650808256446904,-0.02606237816697169,0.5070769050873161,-1.6159174208704126
1.5796755491708345,8.561036825715377,-0.02597111719743265,0.49038343637410164,-1.6467278422741924
1.5750085974860386,8.474263798628037,-0.02588390152252114,0.47376130904079844,-1.675663709239609
1.5703571439009292,8.39047625732989,-0.025798916089806088,0.45721137204973006,-1.70255725910833
1.5657209544933186,8.309661107353758,-0.025714299550310925,0.44073473879619274,-1.7272319445351831
1.5611001353292253,8.231805027559417,-0.02562813560628264,0.4243328144742392,-1.7495015932015845
1.5564951432392955,8.15689441480712,-0.0255384431707154,0.4080073272179596,-1.7691694994173748
1.551906798488047,8.084915322641944,-0.02544316517648839,0.39176036350621146,-1.7860274442077286
1.547336299595937,8.015853393173572,-0.025340155846956446,0.3755944083645922,-1.7998546418569576
1.5427852406109774,7.949693781236483,-0.025227166208149895,0.3595123909364029,-1.8104166131346666
1.5382556311697475,7.8864210698107975,-0.02510182758329458,0.34351773601565194,-1.8174639889675654
1.5337499197388555,7.8260191755780575,-0.02496163275994854,0.32761442212589886,-1.8207312537270872
1.5292710204896274,7.768471243386674,-0.024803914453696795,0.3118070466672668,-1.8199354454224745
1.5248223443345936,7.71375952832101,-0.024625820602236618,0.29610089850678367,-1.8147748421393814
1.520407834749626,7.661865264026115,-0.024424285897404086,0.28050203810315744,-1.8049276818053943
1.5160320091286303,7.612768515968575,-0.024195998780321987,0.2650173847583936,-1.790050988338929
1.5117000065815227,7.566448018462083,-0.023937362854207406,0.24965480975817275,-1.7697796151148748
1.5074176433114106,7.5228809946295385,-0.023644451258150893,0.23442323282563693,-1.7437256717317355
1.5031914770264638,7.48204295912625,-0.023312951907924494,0.21933271721090467,-1.7114785798161083
1.4990288823091582,7.443907504582587,-0.02293810050658373,0.20439455549645902,-1.6726061186545438
1.4949381395669992,7.4084460745920815,-0.022514596628514492,0.18962133328692338,-1.6266569864088587
1.4909285412656434,7.3756277290373475,-0.02203649560877313,0.17502695065457538,-1.5731656368862479
1.48701052082802,7.3454189121211755,-0.021497064809266494,0.16062657063621993,-1.5116604790203687
1.4831958122474327,7.317783240327774,-0.020888586086145168,0.14643644929047359,-1.4416769709128268
1.4794976527180268,7.2926813374826125,-0.020202075351699048,0.13247358232242737,-1.3627777161367556
1.4759310474108762,7.2700707578541675,-0.019426872505531156,0.11875508021584771,-1.2745823494048147
1.4725131264660896,7.249906055979977,-0.01855002688098653,0.10529716283070881,-1.176810643135592
1.469263641736545,7.232139081779941,-0.017555359002840665,0.09211366161412846,-1.0693424828653102
1.4662056785149997,7.216719594893505,-0.016422010125440496,0.07921397045737437,-0.9522972429527586
1.463366701348093,7.203596286206071,-0.015122180617965875,0.0666005705141192,-0.8261308786820262
1.4607801243508718,7.192718231806833,-0.013617563795605952,0.054266700588518325,-0.6917389804494856
1.458487724370117,7.184036621139494,-0.011853547101670253,0.042195640159687166,-0.550535524351354
1.456543500957591,7.177506191389995,-0.009748935259727889,0.030364690390304865,-0.404452027918571
1.4550204530446933,7.173084936774604,-0.007173819328025043,0.01876036089182329,-0.25578366871343916
1.4540254682739486,7.170728189720645,-0.003881567013582584,0.0074257174854978555,-0.10682256029770978
