x,y,v_x,v_y,omega
2.375,32.48,0.0,2.1025641025641026,-4.816326530612245
2.374448460356857,32.10488075512832,-0.0061282182571441015,2.0654275071211963,-4.611625780725182
2.3728512696625006,31.736359749037394,-0.011618345013484098,2.02925033833355,-4.419167294562544
2.370317837839031,31.374268285215564,-0.01653089746950794,1.9939881485756488,-4.2379606954442
2.3669472451682045,31.01844540173748,-0.02092013220634594,1.9595994456253087,-4.067113108706716
2.362829303707388,30.668737363853364,-0.024834772913833607,1.9260454197537356,-3.9058179944874087
2.3580454963128052,30.324997202749316,-0.02831864258153398,1.8932897036246066,-3.753345441116241
2.3526698091898326,29.98708429500528,-0.03141121434038471,1.8612981601980123,-3.609033703298463
2.346769471550484,29.65486397806931,-0.03414809276348544,1.8300386946460598,-3.4722818050073703
2.340405614006497,29.32820719772605,-0.036561435503041584,1.7994810869457192,-3.342543056164522
2.3336338556905396,29.006990184089243,-0.03868032356314849,1.7695968423521564,-3.219319356098514
2.3265048287207017,28.691094153111855,-0.040531087212829775,1.740359057396602,-3.102156176481726
2.3190646474588394,28.38040503099874,-0.042137593474526086,1.7117422994157756,-2.9906381327618456
2.3113553290248685,28.074813199238516,-0.04352150023626408,1.683722497920045,-2.884385066673528
2.303415170686916,27.774213258253607,-0.04470248129654228,1.6562768463567317,-2.7830485737447996
2.295279089027325,27.478503807908552,-0.04569842603224328,1.629383713032768,-2.686308919209039
2.286978925167036,27.18758724332347,-0.04652561685986241,1.6030225601348114,-2.5938722937225256
2.2785437197997043,26.901369564617546,-0.047198887221595875,1.5771738699310327,-2.5054683670321936
2.269999961328693,26.61976019936117,-0.04773176245630879,1.5518190773620035,-2.4208481034511298
2.2613718100036495,26.342671836648677,-0.04813658559972763,1.5269405083323806,-2.3397818078535213
2.252681300609654,26.070020271819434,-0.048424629889111136,1.5025213231036492,-2.262057375037617
2.2439485259630523,25.801724260956377,-0.04860619951757544,1.4785454642636693,-2.1874787188408353
2.235189652319796,25.537709451537257,-0.04871461874082997,1.4549524181709736,-2.1141833189796433
2.226418083896736,25.277904039252697,-0.04874725262650393,1.4317743849908284,-2.0439804160613573
2.217646838506003,25.022234583060698,-0.04871102949274801,1.4089973504758049,-1.9767046487065234
2.2088877399422944,24.770630109740456,-0.04861228788179219,1.3866079086380096,-1.912201178157122
2.200151519446838,24.523022007475642,-0.04845682873439304,1.364593227637705,-1.8503249094294292
2.191447908225357,24.27934392536711,-0.04824996261539821,1.3429410180126176,-1.790939778101838
2.182785721865136,24.03953167847104,-0.047996552498161996,1.3216395030548505,-1.7339180965264276
2.17417293740999,23.803523157991606,-0.04770105255901923,1.300677391161052,-1.6791399539062315
2.1656167637751778,23.571258246287282,-0.04736754338333838,1.2800438499981253,-1.6264926652575855
2.157123706115994,23.342678736376712,-0.046999763940927454,1.2597284823415738,-1.5758702647882603
2.1486996247028114,23.11772825565486,-0.046601140649987424,1.2397213034567824,-1.5271730396755874
2.1403497888009864,22.896352193552268,-0.04617481381473413,1.2200127199053246,-1.4803071006316217
2.13207892600541,22.678497632890583,-0.045723661691671066,1.2005935096689488,-1.4351839860007616
2.1238912674360075,22.464113284705974,-0.04525032241279996,1.1814548034933656,-1.391720296454501
2.115790589161522,22.253149426328953,-0.04475721397037822,1.1625880673624596,-1.349837357632828
2.1077802501839753,22.04555784252442,-0.04424655244680346,1.1439850860212097,-1.30946090833622
2.0998632272848576,21.841291769509986,-0.043720368654506084,1.1256379474724945,-1.2705208120998004
2.0920421470058845,21.640305841683336,-0.04318052333408219,1.10753902837919,-1.2329507901850698
2.084319315011852,21.442556040901433,-0.04262872104405959,1.0896809803085996,-1.1966881742074433
2.0766967430602663,21.247999648165138,-0.04206652286244726,1.0720567167613526,-1.1616736767819529
2.069176173781891,21.056595197572776,-0.04149535800838843,1.0546594009315329,-1.12785117871702
2.0617591034577867,20.86830243241553,-0.040916534481658016,1.0374824341490017,-1.0951675314189786
2.054446802961693,20.683082263295837,-0.040331248808274246,1.0205194449586914,-1.0635723732896467
2.0472403370214676,20.500896728157993,-0.039740594972007236,1.0037642787951302,-1.0330179590071347
2.040140581939631,20.321708954127203,-0.0391455726039549,0.987210988213624,-1.0034590006774824
2.0331509973001833,20.14572083641511,-0.03851647894546372,0.9682125419207708,-1.0264539292970485
2.026271848708993,19.97314252864586,-0.03791850540109878,0.9493242110709021,-1.0509258590359336
2.0194975993129853,19.803954460566953,-0.03735093233232007,0.9305432120280492,-1.0767593348241096
2.0128228472882004,19.638137552419458,-0.03681297905417596,0.9118668784996382,-1.1038406909401544
2.006242336343265,19.475673194087882,-0.036303809222884495,0.8932926585178818,-1.132057803620299
1.999750965295871,19.316543224755947,-0.03582253574816035,0.8748181118369471,-1.1612998455667425
1.9933437968053065,19.160729912993503,-0.03536822525811248,0.8564409077457666,-1.191457041314811
1.9870160653393394,19.00821593719943,-0.03493990214152103,0.8381588232995156,-1.2224204224003345
1.9807631844495583,18.85898436632462,-0.03453655218937956,0.8199697419761213,-1.2540815812425112
1.974580753425588,18.713018640797678,-0.03415712585473612,0.801871652767717,-1.2863324226231858
1.9684645633954263,18.57030255357371,-0.03380054114705926,0.7838626497207831,-1.3190649116004847
1.96241060293648,18.430820231223983,-0.03346568617456649,0.7659409319428595,-1.3521708166426454
1.9564150632597048,18.29455611498028,-0.03315142134515797,0.7481048040982521,-1.3855414467061555
1.9504743430276015,18.161494941643628,-0.032856581233768715,0.7303526774201435,-1.4190673809104062
1.944585052865667,18.03162172426133,-0.032579976121060124,0.7126830712720473,-1.452638189378401
1.9387440196262868,17.904921732470054,-0.032320393205385246,0.6950946152976933,-1.486142143719064
1.9329482904639859,17.781380472394783,-0.032076597486848185,0.6775860522053121,-1.5194659155208212
1.9271951367814595,17.660983665984705,-0.031847332319000984,0.660156241239999,-1.5524942611079695
1.9214820581069276,17.54371722965652,-0.03163131962024135,0.6428041624065215,-1.585109690680608
1.9158067859651136,17.42956725210361,-0.03142725973324812,0.6255289215147204,-1.617192119815627
1.9101672878066118,17.31851997111552,-0.031233830916770136,0.6083297561307124,-1.6486185011508847
1.9045617710636285,17.210561749236092,-0.031049688449713585,0.5912060425295871,-1.6792624339083682
1.898988687404112,17.105679048070083,-0.03087346332269148,0.5741573037594064,-1.7089937487369227
1.8934467372612453,17.003858401026935,-0.03070376048693618,0.5571832189422395,-1.737678065174523
1.8879348747212026,16.905086384266102,-0.030539156624650256,0.5402836339559055,-1.7651763188495113
1.8824523128591293,16.809349585580648,-0.030378197398386975,0.5234585736602336,-1.7913442553680403
1.876998529621593,16.716634570924356,-0.030219394129794432,0.5067082558541433,-1.8160318876833992
1.8715732743634215,16.626927848251754,-0.030061219849888295,0.4900331071747867,-1.8390829136298312
1.866176575158093,16.540215828300056,-0.02990210465376334,0.47343378117738044,-1.8603340902546166
1.860808747013866,16.456484781896336,-0.029740430282092452,0.45691117886397314,-1.8796145616343474
1.8554704011429135,16.37572079332211,-0.029574523839603357,0.440466471960781,-1.8967451370667026
1.850162455448157,16.297909709210806,-0.02940265054657799,0.42410112927591914,-1.911537516961626
1.8448861464127178,16.223037082390906,-0.029223005402747852,0.4078169465007335,-1.923793464520115
1.8396430426004007,16.15108811001972,-0.029033703622998827,0.39161607984578267,-1.933303922532365
1.8344350600031354,16.082047565280572,-0.028832769679948533,0.37550108392253995,-1.9398480765578943
1.8292644795037114,16.015899721841677,-0.028618124758095033,0.35947495428738313,-1.9431923686621804
1.8241339667607943,15.952628270201746,-0.028387572385428578,0.3435411750451769,-1.9430894701920143
1.819046594869934,15.892216224981158,-0.02813878195746296,0.3277037718502269,-1.9392772283612583
1.8140058702117687,15.834645822167897,-0.027869269799928896,0.31196737051934115,-1.9314776105186993
1.8090157619708735,15.779898405308607,-0.027576377321130018,0.2963372612505489,-1.919395683052327
1.8040807359017128,15.727954299669715,-0.02725724566954474,0.28081946807047714,-1.9027186806065974
1.7992057930410823,15.67879267351493,-0.026908786115237598,0.2654208225382462,-1.8811152479890973
1.7943965142334024,15.632391385904086,-0.02652764508120507,0.2501490398044558,-1.854234975106726
1.7896591115682536,15.58872682088845,-0.026110162309336996,0.23501279370260317,-1.8217083990850014
1.7850004881631065,15.547773708768005,-0.025652319970073764,0.22002178541346418,-1.7831477237088202
1.7804283082126362,15.509504936343486,-0.025149679479597484,0.2051867970812005,-1.7381486130130146
1.7759510799552443,15.47389135006162,-0.024597301158089193,0.1905197171617463,-1.6862935643623709
1.771578255313495,15.440901558920594,-0.023989639305791028,0.17603351773855852,-1.6271575702571328
1.76732035166322,15.410501748374344,-0.023320401252821716,0.16174215499756747,-1.5603170518230498
1.763189103814922,15.382655522733618,-0.02258235261715352,0.14766035212161488,-1.4853634007647065
1.7591976583801854,15.35732380220323,-0.021767041102145394,0.1338032093271382,-1.401922893827589
1.7553608290622047,15.334464811997293,-0.020864395764306834,0.1201855707388185,-1.309685192407921
1.7516954412948467,15.314034214454061,-0.01986213498411415,0.1068210686304381,-1.2084429539869668
1.7482208099190872,15.295985448317428,-0.018744880302102272,0.09372077733214684,-1.0981448949109773
1.7449594170364318,15.28027034578821,-0.01749281839406954,0.08089147299249513,-0.9789632131311228
1.74193789339312,15.266840083089129,-0.016079666531617062,0.06833366810839629,-0.8513723206177237
1.7391884648443812,15.2556464565644,-0.014469539565480248,0.056039959944162616,-0.716227629225536
1.736751130560052,15.246643317597645,-0.012611952482621279,0.04399491746421699,-0.5748196039342796
1.7346770759991568,15.239787672133765,-0.010433098193994954,0.03217892102333733,-0.4288619201358971
1.733034523146091,15.235039286970384,-0.00781748906228983,0.020580914125332098,-0.28036291725859736
1.7319210312053466,15.23235581062102,-0.004554643612649906,0.00923548975651344,-0.13134181726648617
1.7315058656510065,15.23166878411346,-5.830699112701829e-05,-0.0016018618947535382,0.01648679955631685
