x,y,v_x,v_y,omega
2.375,32.48,0.0,3.8974358974358974,-7.142857142857143
2.372879786261195,31.71158949487884,-0.021202137388051587,3.786669153775684,-6.574413346849236
2.3669018667309465,30.964752432926684,-0.03857705791443079,3.6817014657458644,-6.07461135307407
2.3577648088141303,30.23837769396572,-0.05279352125373066,3.58204592386377,-5.632831658026023
2.3460461124997867,29.531445719543182,-0.06439344188970822,3.487273820361624,-5.24038900555852
2.3322249262948107,28.843017818847706,-0.07381842016004925,3.39700518659311,-4.890131615279737
2.3167000699683955,28.17222716895968,-0.08143014310410385,3.3109013122871653,-4.576133250747088
2.2998044337456385,27.518271163269,-0.08752621912346684,3.2286587446196497,-4.2934543299414685
2.281816554785375,26.880404847741374,-0.09235257047916726,3.1500044106565817,-4.037954980551459
2.2629699773680545,26.257935246096498,-0.09611320369403996,3.0746916057921743,-3.806147584270042
2.2434608605922834,25.650216419582247,-0.09897796406366828,3.0024966593503537,-3.5950796229540787
2.2234541914294277,25.056645139977366,-0.10108872756489022,2.9332161366984293,-3.4022399749826424
2.203088881416653,24.476657079147493,-0.10256437256285279,2.8666644716002874,-3.2254835007137217
2.1824819649304246,23.909723437245184,-0.10350479229943632,2.8026719474228092,-3.0629699940421564
2.1617320708301206,23.35534794609552,-0.10399414870360138,2.74108296407382,-2.913114493414092
2.1409223036846203,22.81306419557492,-0.10410352275140315,2.681754541132195,-2.7745466303967707
2.1201226431762,22.28243323967583,-0.10389308233279818,2.6245550178587322,-2.6460772100722374
2.099391948697283,21.763041446032858,-0.10341386245637123,2.5693629185709956,-2.5266706097584235
2.0787796391954725,21.254498558388438,-0.10270923256173699,2.516065957873195,-2.415421882837384
2.0583271049190337,20.756435946109843,-0.10181611020264694,2.4645601649127515,-2.311537685935278
2.038068897068325,20.268505018666694,-0.10076596830444298,2.414749109518732,-2.2143203272693395
2.0180337328610856,19.790375786114435,-0.09958567376794941,2.3665432160038624,-2.123154374127708
1.998245346706628,19.321735549238284,-0.09829818777662903,2.319859152757658,-2.0374953674517378
1.9787232126984662,18.86228770519709,-0.09692315230498807,2.2746192876542546,-1.9568602782933444
1.9594831592004085,18.411750656347373,-0.09547738267558888,2.230751200842929,-1.8808194097617126
1.9405378927024253,17.969856811487443,-0.09397528230424433,2.188187247756391,-1.8089895029329592
1.9218974451915436,17.536351670089957,-0.0924291928045719,2.1468641662184553,-1.7410278491128957
1.9035695568873638,17.11099298122786,-0.09084969023722442,2.1067227224025165,-1.6766272461529255
1.8855600042272183,16.693549969875676,-0.08924583636423215,2.0677073911193173,-1.615511665027469
1.8678728813697631,16.283802624111388,-0.08762539221031829,2.0297660665235684,-1.557432515990255
1.8505108421520595,15.88154103747452,-0.08599499996671849,1.9928497998451082,-1.502165422430853
1.8334753083313138,15.486564801371184,-0.0843603382407391,1.9569125611882658,-1.4495074259103307
1.8167666490262304,15.098682442970723,-0.08272625481009399,1.9219110228163563,-1.3992745584421564
1.8003843355103633,14.717710904523322,-0.0810968803485777,1.8878043616576476,-1.3512997284364683
1.7843270748735136,14.343475060453208,-0.07947572601991987,1.8545540790434976,-1.3054308752676749
1.7685929255348594,13.975807268956274,-0.07786576736662307,1.8221238359258436,-1.2615293544960675
1.753179397145026,13.614546955161114,-0.07626951653171037,1.7904793020257688,-1.2194685216451757
1.7380835370389822,13.259540223204308,-0.07468908452872922,1.7595880175423018,-1.1791324873260893
1.7233020050854004,12.910639494829578,-0.0731262350070861,1.729419266205002,-1.1404150205838375
1.7088311385110795,12.567703172350217,-0.07158243073612382,1.6999439585885971,-1.1032185807614632
1.6946670080530237,12.230595324018779,-0.07005887384443453,1.6711345247257758,-1.0674534610502293
1.6808054665991476,11.899185390030443,-0.06855654069432583,1.6429648151575988,-1.0330370293135456
1.6672421913157247,11.5733479075495,-0.06707621213990353,1.6154100096518298,-0.9998930538145875
1.6539727201210712,11.252962253294363,-0.06561849980662979,1.5884465328995327,-0.9679511032062028
1.6409924832467127,10.937912402347315,-0.06418386893695606,1.5620519765709506,-0.9371460116083119
1.6282968305262338,10.628086701972801,-0.06277265826783357,1.5362050271742003,-0.9074174008452884
1.615881054965531,10.323377659333808,-0.061385097339195296,1.5108853992157378,-0.8787092529789946
1.6037404130740196,10.023681742091156,-0.060021321575917254,1.486073773210774,-0.8509695271814601
1.5918832747283242,9.728901410622669,-0.05855006188103648,1.461729541474101,-0.8204866675615066
1.5803166593726643,9.438942579192709,-0.05711609167556311,1.437858772825512,-0.791388979856115
1.5690331820385806,9.153712240749414,-0.05571868166527566,1.414444611607427,-0.7635971695955571
1.5580256070904048,8.87312068255093,-0.054357067816481155,1.3914709703774146,-0.7370373435175664
1.5472868543218548,8.5970813369265,-0.05303045986901837,1.3689224858668618,-0.7116405831199121
1.5368100034712215,8.32551064054531,-0.051738048637313315,1.346784477945051,-0.687342556378997
1.5265882973815441,8.058327901615783,-0.05047901225946128,1.3250429113502378,-0.6640831638245546
1.5166151440022966,7.795455174483674,-0.04925252153301618,1.3036843599708479,-0.6418062155793485
1.5068841174032142,7.536817141138663,-0.04805774445780772,1.2826959734792607,-0.6204591363414278
1.4973889579484074,7.282340999176931,-0.046893850090258385,1.262065446138059,-0.5999926956114445
1.4881235717593841,7.031956355801693,-0.04576001179997608,1.241780987614313,-0.5803607607544049
1.4790820295786316,6.785595127475098,-0.04465541000755033,1.2218312956516268,-0.5615200707388299
1.4702585651306546,6.543191444863691,-0.043579234472219966,1.2022055304624593,-0.5434300286208091
1.4616475730645138,6.304681562745962,-0.042530686189187164,1.1828932907148102,-0.526052511039457
1.4532436065507315,6.0700037745746975,-0.04150897894863661,1.1638845909978346,-0.5093516931669542
1.4450413745956858,5.83909833140887,-0.04051334060181868,1.1451698406604474,-0.49329388771338384
1.4370357391281308,5.611907364950262,-0.0395430140737321,1.126739823925614,-0.4778473967263316
1.42922171190507,5.388374814438617,-0.03859725815687624,1.1085856811908499,-0.4629823750497437
1.421594451277769,5.168446357176272,-0.03767534811613436,1.0906988914325908,-0.4486707044176468
1.4141492588530546,4.952069342469155,-0.03677657613100792,1.073071255638582,-0.4348858772575732
1.4068815760801465,4.739192728785461,-0.03590025159807386,1.0556948811983626,-0.42160288936728807
1.3997869807889776,4.529767023946892,-0.03504570131361665,1.0385621671873153,-0.4087981407078747
1.3928611837022322,4.323744228179692,-0.03421226955383712,1.0216657904846929,-0.39644934362745754
1.386100024940067,4.121077779864169,-0.0333993180678148,1.0049986926705423,-0.3845354378937506
1.37949947053364,3.921722503832058,-0.032606225996454984,0.9885540676505749,-0.37303651197102594
1.3730626588946029,3.725812906606418,-0.031761890393916685,0.9705419046058132,-0.39765852998440326
1.3667900280065743,3.533494608900888,-0.030964418486369764,0.9526410724494809,-0.4239582757088131
1.3606723221970236,3.344745644723357,-0.030212639609137424,0.9348485693258203,-0.4518252035452641
1.3547005239911885,3.159544636648281,-0.029505342449213955,0.9171615114249222,-0.48115131767866387
1.3488658617314393,2.9778707726417863,-0.028841280148277162,0.8995771286400205,-0.5118309277893957
1.3431598162238603,2.7997037837150742,-0.028219174927513874,0.8820927606271004,-0.543760410526324
1.337574126504296,2.6250239223268537,-0.02763772226812983,0.8647058532551194,-0.5768379757377249
1.3321007948096635,2.4538119414575625,-0.027095594678195268,0.847413955437795,-0.6109634364677483
1.3267320908345015,2.286049074279724,-0.02659144507342506,0.8302147163405912,-0.6460379817297539
1.3214605553475007,2.1217170143497377,-0.026123909796582703,0.8131058829592663,-0.6819639510640959
1.3162790032381018,1.9607978962468948,-0.025691611297406103,0.7960852980691592,-0.7186446098764602
1.3111805260591356,1.8032742765852454,-0.025293160492256002,0.7791508985473328,-0.7559839245333985
1.3061584941279039,1.649129115323234,-0.024927158820060795,0.7623007140727995,-0.7938863361638768
1.3012065582450427,1.4983457572946186,-0.024592200008549798,0.7455328662133675,-0.8322565320790049
1.2963186510879672,1.3509079138821605,-0.0242868715622058,0.7288455679112186,-0.8709992136760721
1.2914889883336664,1.2067996447527172,-0.024009755980800646,0.7122371233832275,-0.910018859636941
1.2867120695641086,1.0660053395687648,-0.023759431714777415,0.6957059284562964,-0.9492194831639756
1.2819826790065227,0.9285096995868649,-0.02353447386108038,0.6792504713627119,-0.9885043819181731
1.277295886160387,0.7942977190480143,-0.023333454600278115,0.6628693340257964,-1.0277758792330514
1.2726470463630648,0.6633546662582326,-0.02315494337294226,0.6465611938720236,-1.0669350550731083
1.2680318013467509,0.5356660642497886,-0.02299750679019777,0.6303248262124157,-1.1058814650861692
1.26344607984072,0.41121767090419326,-0.02285970827010941,0.6141591072435539,-1.1445128459635303
1.2588860982749022,0.2899954584071338,-0.022740107388069537,0.5980630177270705,-1.1827248051692882
1.2543483616435398,0.17198559189280616,-0.02263725892555357,0.582035647416206,-1.2204104929295103
1.2498296645912388,0.05717440712027155,-0.02254971159745709,0.5660762003091129,-1.2574602541819402
1.2453270927881273,-0.05445161299276435,-0.0224760064336591,0.5501840008212749,-1.2937612579770639
1.2408380246662214,-0.16290586317328604,-0.022414674785399713,0.5343585009839386,-1.329197101591356
1.2363601335955379,-0.26820164215089193,-0.02236423592143662,0.5185992887921045,-1.3636473863639753
1.231891390586128,-0.3703521808145709,-0.02232319417266218,0.502906097844696,-1.3969872620008543
1.2274300676111802,-0.4693706724431763,-0.022290035576815737,0.48727881844135124,-1.4290869358086766
1.2229747416567995,-0.5652703053198351,-0.022263223966991895,0.47171751032522546,-1.4598111430319949
1.2185242996162324,-0.6580642980813138,-0.02224119643868023,0.45622241728959134,-1.4890185741800572
1.214077944160374,-0.7477659382000965,-0.02222235811990382,0.44079398389822433,-1.5165612549619285
1.2096352007326392,-0.8343886240504972,-0.022205076157443524,0.42543287460581675,-1.5422838742237739
1.2051959258350067,-0.9179459110715911,-0.02218767281888206,0.41013999560509673,-1.566023055137402
1.200760316793624,-0.9984515626092829,-0.02216841759494443,0.3949165197718015,-1.5876065648785367
1.1963289232172385,-1.07591960609912,-0.02214551816891133,0.37976391512657925,-1.6068524582361656
1.1919026603904328,-1.1503643953400768,-0.022117110099146527,0.3646839772829692,-1.6235681511263937
1.1874828248769007,-1.2218006797084087,-0.022081245036174615,0.34967886640035756,-1.6375494210135941
1.1830711126466762,-1.2902436812690397,-0.022035877266071008,0.3347511492059313,-1.6485793330120744
1.1786696400865293,-1.3557091808579287,-0.02197884833539843,0.31990384668299154,-1.6564270933064065
1.1742809683063056,-1.4182136143295239,-0.021907869466838367,0.3051404880329837,-1.6608468360004722
1.1699081312181383,-1.4777741802815143,-0.021820501414833878,0.29046517148691936,-1.6615763563278605
1.1655546679436153,-1.5344089606741917,-0.02171413133039632,0.275882632439838,-1.6583358134097919
1.1612246602012517,-1.588137055834693,-0.021585946093238512,0.2613983191651939,-1.6508264410017743
1.1569227754508598,-1.6389787353478553,-0.02143290141068203,0.24701847596640347,-1.6387293272108474
1.1526543167349022,-1.6869556062381363,-0.02125168574889442,0.2327502329364051,-1.6217043573112597
1.1484252803792094,-1.7320907995683825,-0.02103867780803337,0.21860170036606172,-1.5993894623507365
1.144242423027914,-1.7744091760083904,-0.020789895704920933,0.2045820640339883,-1.5714003871625022
1.1401133399411354,-1.8139375498896229,-0.020500935162865854,0.19070167477832203,-1.5373312945867599
1.1360465571622504,-1.850704929507181,-0.02016689262598416,0.176972121397292,-1.4967566720459022
1.1320516412016806,-1.8847427685828109,-0.019782266979715437,0.16340626935898397,-1.449235220956049
1.1281393315121035,-1.9160852193309026,-0.019340829916055624,0.1500182381219237,-1.3943167128779759
1.124321703618442,-1.9447693707482614,-0.018835449020558854,0.13682327605165995,-1.3315532159562924
1.120612374926571,-1.9708354456699055,-0.01825783789815129,0.1238374731647633,-1.2605166524165847
1.1170267719634792,-1.9943269158535415,-0.017598191732767193,0.11107722867159439,-1.1808253333400476
1.1135824886992784,-2.0152904753845178,-0.016844640909240385,0.09855836663814194,-1.0921828303636782
1.1102997831966477,-2.033775790269999,-0.01598241411706775,0.08629478221666018,-0.9944329638284823
1.1072022880709587,-2.0498349220430825,-0.014992537139823268,0.07429653551414968,-0.8876340221569095
1.1043180554199106,-2.0635213215713932,-0.01384978937065679,0.06256745976898043,-0.7721519405137391
1.1016811304555694,-2.074888341710192,-0.012519460272754595,0.051102741619038355,-0.6487632979455258
1.0993339780445943,-2.0839873914122435,-0.010952063836995646,0.039887755401459266,-0.5187415423961097
1.0973313668101636,-2.090866263070751,-0.009074048507310545,0.028900961183617978,-0.3838742840499886
1.0957471374462457,-2.095569037344063,-0.00676824513186806,0.018126781549503646,-0.24633742342659398
1.0946887187804175,-2.098141342737705,-0.003815941526413462,0.007596272386890285,-0.10835846633082
