x,y,v_x,v_y,omega
2.375,32.48,0.0,2.41025641025641,-4.938775510204081
2.3743234051442412,32.05023921918139,-0.007517720619544175,2.3648633766169653,-4.705113185780902
2.3723702450639137,31.628529100000982,-0.014184058050761283,2.320804614276504,-4.487375267077046
2.369285692536645,31.214635576043964,-0.020088747807778248,2.2780123185792283,-4.284113115488089
2.3651996965793067,30.80833634237199,-0.025311207273756707,2.2364236111093723,-4.094036993982485
2.360228720378623,30.40942001323846,-0.029921861622727603,2.1959800459298666,-3.915995906245245
2.3544772577617463,30.017685362877003,-0.03398327856479428,2.156627180308543,-3.7489603405048744
2.3480391598317674,29.632940638681927,-0.03755114287941355,2.1183141996367376,-3.592007447807146
2.340998798326097,29.25500293778153,-0.040675096072479405,2.080993588145455,-3.4443082693993583
2.333432088098908,28.883697639380355,-0.04339946200739983,2.0446208385342595,-3.3051166958143634
2.325407387699758,28.518857886377134,-0.04576387576093751,2.0091541948348812,-3.1737598949234793
2.316986294177011,28.16032411069986,-0.0478038300473585,1.9745544238014499,-3.049629990498052
2.308224345865469,27.807943597576458,-0.049551151191997767,1.9407846109030569,-2.932176808855937
2.299171644934763,27.46157008460839,-0.05103441470473931,1.9078099776310278,-2.8209015406514704
2.2898734098087283,27.121063392059817,-0.052279308917862186,1.8755977173531375,-2.7153511891022344
2.280370466160222,26.78628908123441,-0.053308953843319525,1.8441168473735636,-2.6151136959560524
2.2706996839956513,26.457118138201974,-0.05414418131857823,1.8133380752090773,-2.5198136530930637
2.2608943673324693,26.13342668046866,-0.054803781605667866,1.783233677383328,-2.429108521469017
2.2509846021113034,25.815095684468638,-0.05530472085173239,1.7537773892835442,-2.342685290645947
2.2409975672480402,25.502010731998723,-0.05566233318452263,1.7249443048266502,-2.260257521832807
2.230957813100096,25.194061773927647,-0.055890490681522825,1.6967107848519591,-2.1815627254995507
2.220887511078804,24.891142909693876,-0.05600175399950087,1.6690543733010603,-2.1063600314990696
2.2108066776727116,24.593152181263754,-0.05600750606819111,1.6419537203669676,-2.0344281154479016
2.200733375743223,24.299991380359923,-0.05591807092613054,1.6153885118978144,-1.9655633500547696
2.19068389560496,24.01156586789056,-0.05574281949901126,1.5893394044284521,-1.899578154289891
2.1806729181005267,23.727784404616013,-0.05549026388358242,1.5637879652887392,-1.8362995168762033
2.1707136616162948,23.448558992182832,-0.05516814149677374,1.5387166173021407,-1.7755676736540114
2.1608180147568308,23.173804723737664,-0.054783490275048384,1.5141085876441827,-1.7172349210041453
2.1509966561957987,22.903439643406603,-0.05434271595863908,1.4899478604787162,-1.661164549778836
2.141261252495803,22.637388041627283,-0.05382843626353509,1.4661810481804072,-1.6053120874852058
2.1316213664500525,22.375576742110752,-0.05328140868924821,1.442833390892125,-1.5518228005758985
2.1220825303373636,22.117931564120507,-0.052705659229518614,1.4198908089995026,-1.5005700992780902
2.112649585762717,21.864380806956014,-0.05210483604432988,1.3973398261615115,-1.4514354565437793
2.103326748502421,21.614855144335053,-0.051482244625625694,1.375167536293623,-1.4043078118291479
2.09411766732904,21.36928752452281,-0.050840879523056735,1.35336157273126,-1.3590830249372732
2.085025477402967,21.12761307583074,-0.0501834529888634,1.3319100794028782,-1.3156633752217484
2.076052848756496,20.889769017137304,-0.04951242086081677,1.3108016838575538,-1.2739571019371645
2.067202030342012,20.655694573109592,-0.04883000596678099,1.290025472005872,-1.2338779819552048
2.0584748900677043,20.425330893828978,-0.04813821930330274,1.2695709644453947,-1.1953449414492023
2.049872951201224,20.198620978546103,-0.047438879213144027,1.2494280942532092,-1.158281698491366
2.041397425483426,19.975509603310883,-0.04673362876238919,1.2295871861381524,-1.122616433810669
2.0330492432601464,19.75594325224155,-0.046023951496277526,1.2100389368544187,-1.0882814872301132
2.024829080909431,19.53987005221387,-0.045311185733891354,1.190774396786476,-1.0552130775436424
2.016737385814334,19.327239710767046,-0.04459653754496634,1.171784952622655,-1.0233510438087976
2.0087743991069456,19.118003457037272,-0.043881092537123495,1.1530623110415092,-0.9926386062242646
2.0009401763874375,18.91211398554283,-0.043165826568524225,1.134598483341153,-0.9630221449343662
1.9932346066022493,18.70952540265687,-0.04245161548912173,1.1163857709473304,-0.9344509952575903
1.9856574292479447,18.510193175614916,-0.04173924400315081,1.0984167517410128,-0.9068772579754178
1.978208250051411,18.314074083914644,-0.041029413736112574,1.080684267150921,-0.8802556234427904
1.9708865552628585,18.121126172974613,-0.04032275058113721,1.0631814099605414,-0.8545432083940856
1.9636917246852643,17.93130870992769,-0.03961981139213139,1.0459015127830469,-0.8296994044198116
1.9566230435523735,17.744582141432723,-0.038921090084434264,1.0288381371610043,-0.8056857371806061
1.949679713356979,17.56090805339565,-0.038227023197728006,1.0119850632509622,-0.7824657355075854
1.9428608617218297,17.38024913249803,-0.03753799497059607,0.9953362800559272,-0.7600048096125849
1.9361701653380838,17.202797704178227,-0.03680307595991232,0.9763462568307548,-0.7883938520198015
1.9296081369860425,17.0287547537964,-0.03610835017388019,0.957464302967328,-0.8181802540503251
1.9231676455010986,16.858101074170257,-0.03545266632549722,0.9386876928787126,-0.8492528520867432
1.916841770327556,16.690817938658785,-0.03483483560275531,0.9200138128043152,-0.8815022105786311
1.910623807897484,16.526887081297332,-0.034253635842488375,0.9014401578785068,-0.9148203814202416
1.904507277294858,16.366290677424715,-0.03370781529780195,0.8829643295950252,-0.9491006652353129
1.8984859252759714,16.20901132473117,-0.03319609602316037,0.8645840336666186,-0.9842373735429395
1.8925537307130285,16.055032024655755,-0.032717176898426306,0.8462970782824296,-1.020125590760274
1.88670490852423,15.904336164061142,-0.032269736310445225,0.8281013727688161,-1.0566609349716058
1.8809339131505594,15.756907497112305,-0.03185243450811891,0.809994926662718,-1.093739316358678
1.875235441636842,15.61273012728373,-0.03146391564429435,0.7919758492103461,-1.1312566921435097
1.869604436372489,15.471788489417083,-0.031102809515182062,0.7740423493079558,-1.1691088168419361
1.864036087545638,15.334067331747843,-0.030767733005385028,0.7561927359058253,-1.2071909865629418
1.8585258353631988,15.199551697815195,-0.030457291243939817,0.7384254189013665,-1.245397776014974
1.853069372088583,15.068226908164338,-0.03017007847401491,0.7207389105526277,-1.2836227667950164
1.8476626439486772,14.940078541744157,-0.029904678636047843,0.7031318274493941,-1.3217582654385147
1.8423018529619342,14.815092416895993,-0.029659665661098362,0.6856028930857604,-1.359695009597443
1.8369834587403142,14.693254571820574,-0.029433603468012957,0.668150941085552,-1.3973218605891142
1.8317041803192793,14.574551244400237,-0.029225045654596653,0.6507749191404395,-1.4345254804190328
1.8264609980721263,14.458968851241881,-0.029032534869326204,0.633473893730185,-1.471189991226611
1.821251155767732,14.346493965792686,-0.028854601846165423,0.6162470557053314,-1.5071966149326275
1.8160721628343137,14.237113295364956,-0.028689764080702777,0.5990937268250053,-1.542423290682033
1.810921796896155,14.130813656888616,-0.028536524121060895,0.5820133673565445,-1.5767442674759486
1.8057981066555016,14.027581951189163,-0.02839336744175633,0.5650055848596246,-1.6100296691742584
1.8006994151980884,13.927405135565184,-0.028258759862834177,0.5480701442956813,-1.6421450288284472
1.7956243238081269,13.830270194412414,-0.028131144470071718,0.5312069796239708,-1.6729507890787325
1.7905717163871948,13.736164107610062,-0.0280089379847274,0.5144162070688219,-1.7023017651287133
1.7855407645814927,13.64507381634968,-0.027890526523074645,0.4976981402687517,-1.7300465666077738
1.780530933733518,13.556986186046235,-0.027774260676644083,0.48105330754729386,-1.7560269744656969
1.7755419897876046,13.471887965924985,-0.027658449833505024,0.4644824715777016,-1.7800772689437614
1.7705740072941976,13.389765744825581,-0.027541355648794823,0.4479866517489874,-1.80202350467309
1.765627378675521,13.3106059027061,-0.027421184558724238,0.43156714957859116,-1.8216827291233497
1.7607028249357952,13.234394557263954,-0.0272960792160049,0.4152255775563581,-1.8388621410478212
1.7558014080228643,13.161117505017952,-0.027164108705449146,0.3989638918436667,-1.8533581863653783
1.7509245450755777,13.09076015611615,-0.02702325737551311,0.3827844292874515,-1.8649555902587591
1.7460740248233644,13.023307462048987,-0.026871412093525632,0.3666899492365761,-1.8734263263978093
1.741252026442182,12.95874383535832,-0.026706347697389318,0.3506836806597132,-1.8785285274671433
1.7364611412159536,12.897053060344678,-0.0265257103718137,0.33476937504740323,-1.880005346090664
1.731704397406845,12.838218193693827,-0.026326998618283633,0.31895136551760783,-1.8775837825156214
1.726985288804461,12.782221453880755,-0.02610754140820412,0.3032346324054101,-1.8709735060681065
1.7223078075079599,12.72904409818181,-0.02586447299736576,0.28762487536064313,-1.85986571288067
1.7176764816033767,12.678666286160944,-0.025594703720222833,0.27212859153787694,-1.8439320848083502
1.7130964185422664,12.631066928635416,-0.025294885847671464,0.25675315874576377,-1.8228239467694196
1.7085733552244546,12.58622352143253,-0.02496137323912577,0.2415069212863059,-1.7961717662030727
1.7041137160647661,12.544111963815922,-0.024590172979635644,0.22639927445379093,-1.763585204897671
1.6997246807247315,12.504706362426553,-0.024176886354084073,0.21144074098363597,-1.724654028424244
1.6954142637854959,12.467978823152126,-0.02371663519297659,0.19664302873221817,-1.6789503131376313
1.691191409539794,12.433899235798037,-0.02320396753704536,0.18201905297988463,-1.6260325800274444
1.6870661064696189,12.402435060182956,-0.022632733242676905,0.16758289829878448,-1.5654527467126857
1.6830495281422435,12.37355112784832,-0.021995914839270783,0.15334968319717646,-1.4967671424298399
1.679154210664096,12.347209481582887,-0.021285390473479198,0.1393352753076177,-1.4195532875510575
1.6753942822137942,12.323369286029234,-0.020491592307652358,0.1255557863996224,-1.333434682898662
1.6717857686791215,12.301986856976992,-0.01960300252204325,0.11202675862529302,-1.238116395039578
1.6683470128094513,12.283015873499068,-0.018605396029848904,0.09876194668498518,-1.1334345039144065
1.6650992652402585,12.26640785162645,-0.017480688072293128,0.0857716296774248,-1.0194219020082982
1.662067538405177,12.252112959826292,-0.016205165650833922,0.07306050143546591,-0.8963903177898666
1.6592818660179454,12.240081221697814,-0.014746749762852084,0.06062547776983011,-0.7650218393358428
1.6567791982553692,12.230264036742334,-0.01306066982132867,0.048454355068845524,-0.6264504148807386
1.6546063380099514,12.22261568484182,-0.011082221794423263,0.03652733271462945,-0.48229466555769007
1.6528247828568956,12.217093938250816,-0.00871283546175182,0.024825407185434793,-0.334584717124784
1.6515199699517047,12.213657656287499,-0.005785085707038517,0.013355503518079527,-0.18552421891931134
1.6508262153504334,12.21225396985832,-0.0019232987515309047,0.002241012361684884,-0.037079341394247345
