x,y,v_x,v_y,omega
2.375,32.48,0.0,3.1794871794871797,-5.061224489795919
2.373914472604247,31.882918465466414,-0.011426604165820548,3.1055816050768517,-4.7427558050642125
2.3708160409554875,31.29959599764376,-0.02118846582112014,3.034654898319523,-4.45422224012125
2.36599895184136,30.729485111256366,-0.029517735380221774,2.9665123268109124,-4.191966818226709
2.3597166844350737,30.17207362410299,-0.03661139521226808,2.9009770116457085,-3.952862158071891
2.3521880733694216,29.626881474765447,-0.042637142320912196,2.8378877182231226,-3.7342229052809666
2.343602417404615,29.093457926427952,-0.04773818362442045,2.7770970011189546,-3.533734390596275
2.3341237592163817,28.57137909616095,-0.05203716572540095,2.718469633270555,-3.34939418162872
2.3238944844150504,28.060245760754874,-0.055639411130720046,2.6618812657407687,-3.1794639485042224
2.31303835880229,27.559681399267426,-0.05863559531939104,2.6072172762323653,-3.022429630846318
2.301663100049326,27.069330439546192,-0.061103970501280344,2.554371773464837,-2.8769683244373514
2.289862561951921,26.588856681592876,-0.06311221999772124,2.503246731306914,-2.741920636148261
2.2777185950814345,26.117941875102282,-0.0647190102179275,2.453751231751938,-2.616267510843618
2.2653026361825424,25.656284432101213,-0.0659752939809336,2.4058007998382904,-2.499110732487965
2.252677069442342,25.203598258525428,-0.06692540854749171,2.359316816748903,-2.389656457200968
2.239896395296097,24.75961169095443,-0.06760800351824399,2.3142259997879484,-2.287201258608171
2.227008236375108,24.324066526685243,-0.06805682722900992,2.27045993988767,-2.191120263043181
2.2140542052578263,23.89671713695406,-0.06830139505816518,2.2279546888616246,-2.100857029653208
2.201070654634544,23.477329654473575,-0.06836755887112463,2.186650389880339,-2.015914892555061
2.1880893271644717,23.065681227596485,-0.06827799344542262,2.146490945667947,-1.9358495321817646
2.1751379195541554,22.661559334381387,-0.06805261297896151,2.107423719754185,-1.8602625833910242
2.1622405731085936,22.264761150658373,-0.06770892855326917,2.0693992668038383,-1.7887961207442884
2.149418301113924,21.87509296689357,-0.06726235560114598,2.0323710886151654,-1.721127888143096
2.1366893618331058,21.49236964925408,-0.06672647893378189,1.9962954128531067,-1.6569671619299533
2.124069584577362,21.1164141407949,-0.06611328165299717,1.9611309919803865,-1.596051154570982
2.1115726552106784,20.747056999139268,-0.06543334325946182,1.9268389201841676,-1.538141880886452
2.0992103665154156,20.38413596741576,-0.06469601142751219,1.893382466379087,-1.4830234210788866
2.0869928380639573,20.02749557555696,-0.06390955121941917,1.8607269216082898,-1.430499525002533
2.07492870957968,19.676986769364042,-0.06308127493086996,1.8288394593697603,-1.3803915106041424
2.0630253112102,19.33246656500461,-0.062217655274179655,1.797689007571682,-1.3325364165503315
2.0512888136602023,18.99379772684291,-0.06132442419948042,1.7672461309724978,-1.2867853749894378
2.039724360726504,18.660848466706717,-0.060406659313135574,1.737482923092685,-1.243002175376994
2.0283361864330134,18.33349216287649,-0.059468859565712684,1.7083729066991882,-1.2010619944874332
2.017127718668482,18.011607097244116,-0.058515011639879655,1.6798909420626216,-1.1608502712740878
2.006101670977608,17.695076209232145,-0.05754864826405873,1.6520131422739168,-1.1222617082344184
1.995260123939603,17.383786865192747,-0.05657289950441274,1.6247167949829104,-1.0851993834776157
1.9846045973823216,17.077630642120518,-0.05559053794065461,1.5979802899879283,-1.0495739598513485
1.9741361145198844,16.77650312461608,-0.05460401850605256,1.5717830521640344,-1.0153029793246797
1.9638552589636005,16.48030371412991,-0.053615513665357516,1.5461054792693414,-0.9823102323957442
1.9537622254366278,16.18893544959894,-0.05262694451330245,1.5209288842145436,-0.9505251936377896
1.9438568649195165,15.902304838663525,-0.05164000829839591,1.4962354414214176,-0.9198825156507033
1.9341468921481972,15.62032362674357,-0.05057023139970244,1.471987841946539,-0.8878114972408837
1.9246386778622202,15.342906605287066,-0.049516234768474915,1.448191331279812,-0.8571530038662084
1.9153291721462233,15.069969550057412,-0.04847856224201944,1.4248303027165672,-0.827828514023082
1.906215232970887,14.801431136729228,-0.04745763960362406,1.4018898375801185,-0.7997646969212174
1.8972936472534325,14.537212813797407,-0.04645378900116108,1.3793556669653724,-0.7728930146617985
1.8885611493356844,14.277238682514213,-0.045467241711978315,1.3572141360156023,-0.747149358978758
1.8800144371755274,14.021435383391712,-0.04449814944756836,1.3354521705370237,-0.7224737191929737
1.8716501865130644,13.76973198884226,-0.043546594367833265,1.314057245772994,-0.6988098783869283
1.8634650632424767,13.522059901562187,-0.04261259795414216,1.2930173571751542,-0.6761051351234613
1.8554557341939555,13.27835275829338,-0.041696128872396,1.272320993022802,-0.6543100483119048
1.8476188765066248,13.038546338624545,-0.040797109941610975,1.2519571087544086,-0.6333782030726903
1.8399511857527404,12.802578478518647,-0.03991542430980541,1.2319151028866115,-0.6132659956713555
1.8324493829552475,12.570388988275816,-0.03905092092696128,1.2121847944063597,-0.5939324357881928
1.825110220624727,12.341919574661741,-0.03820341939430656,1.1927564015312584,-0.5753389645635184
1.8179304879275744,12.117113766950812,-0.03737271425993312,1.1736205217416802,-0.5574492870132863
1.810907015084728,11.895916846650739,-0.036558578822660386,1.1547681129959424,-0.5402292175477629
1.8040366770891767,11.67827578069167,-0.03576076849893193,1.136190476046894,-0.5236465374491936
1.7973163968206578,11.464139157877671,-0.03497902380126612,1.117879237784664,-0.5076708632745295
1.7907431476272673,11.25345712841219,-0.034213072971264344,1.0998263355361755,-0.49227352524784745
1.7843139554359921,11.046181346321806,-0.033462634305317145,1.082024002257361,-0.47742745479541626
1.7780259004473353,10.842264914614262,-0.032727418206858636,1.064464752558898,-0.46310708045556914
1.7718761184631369,10.641662333017646,-0.032007128995231636,1.0471413695107354,-0.4492882314666748
1.7658618018912913,10.444329448157522,-0.03130146649787868,1.0300468921747739,-0.4359480484004339
1.7599802004662797,10.250223406038131,-0.030610127449613608,1.0131746038187943,-0.423064900265261
1.7542286217201561,10.05930260670237,-0.029932806720108035,0.9965180207681675,-0.4106183075563348
1.7486101186661753,9.871728159928683,-0.029209330690215113,0.9779498400075093,-0.44085816226025665
1.7431247965476961,9.68767132251984,-0.02853090213588036,0.9594905537697809,-0.47257907542256483
1.7377642159937396,9.507111674301736,-0.02789626158997834,0.9411373222102412,-0.5056728821657461
1.732520179990518,9.33002932407246,-0.027304117391300023,0.9228874170452903,-0.5400334720987562
1.727384739593233,9.156404888741786,-0.02675314994854491,0.9047382180144197,-0.5755565523933839
1.7223501988676275,8.986219473106406,-0.02624201558414356,0.8866872097264126,-0.612139414387659
1.7174091191385052,8.819454650188419,-0.025769349985566303,0.8687319788839879,-0.6496807027197729
1.7125543226174373,8.656092442065475,-0.025333771288831346,0.8508702118838305,-0.6880801859896842
1.707778895477469,8.49611530112129,-0.024933882816097982,0.8330996927917977,-0.7272385279315015
1.7030761904387228,8.339506091644942,-0.024568275486493287,0.8154183016960721,-0.7670570580575398
1.6984398289254243,8.186248071706618,-0.024235529916649227,0.7978240134441827,-0.8074375407042471
1.6938637028519872,8.036324875235966,-0.023934218224796217,0.780314896773198,-0.8482819413704646
1.6893419760934154,7.889720494227138,-0.023662905549643294,0.7628891138460354,-0.8894921891891481
1.6848690856933977,7.746419260991736,-0.023420151292647268,0.7455449202108184,-0.9309699343140162
1.6804397428620836,7.606405830377273,-0.023204510089605255,0.728280665204583,-0.9726162989318188
1.6760489338146685,7.469665161864228,-0.023014532514766983,0.7110947928274901,-1.0143316205281179
1.6716919205015723,7.336182501449301,-0.02284876551782276,0.6939858431191042,-1.0560151859386406
1.6673642412812204,7.205943363215919,-0.02270575259114508,0.6769524540743695,-1.0975649546082875
1.6630617115872184,7.0789335104851965,-0.02258403366150832,0.6599933641437525,-1.1388772693545728
1.6587804246431468,6.955138936431414,-0.022482144697139758,0.643107415369764,-1.1798465527903805
1.6545167522802733,6.834545844035304,-0.022398617017319555,0.6262935572208732,-1.2203649874011688
1.650267345916287,6.717140625235906,-0.022331976287795607,0.6095508511938535,-1.2603221770929103
1.6460291377567562,6.602909839127118,-0.022280741180953106,0.5928784762670549,-1.2996047878280184
1.6417993422854487,6.491840189028228,-0.02224342167491297,0.5762757353002085,-1.3380961647464455
1.637575458115089,6.383918498238025,-0.022218516960454147,0.5597420624913897,-1.3756759229276898
1.633355270276562,6.279131684259539,-0.022204512918778313,0.5432770320189921,-1.4122195086870455
1.629136853032254,6.177466731256185,-0.02219987912656572,0.5268803680163113,-1.447597728017691
1.6249185733081775,6.078910660469983,-0.022203065337398062,0.510551956048959,-1.4816762384925837
1.6206990948499944,5.9834504982976675,-0.022212497380319742,0.49429185629120087,-1.514315000632798
1.6164773832202064,5.891073241680456,-0.022226572406923308,0.4781003186268079,-1.5453676844420716
1.6122527117678171,5.801765820417227,-0.022243653407699442,0.4619777999335005,-1.5746810265168891
1.60802466871799,5.715515055958001,-0.022262062906270245,0.4459249838478419,-1.6020941328919052
1.6037931655478996,5.632307616174238,-0.02228007572625935,0.4299428033496621,-1.6274377226085261
1.5995584468364927,5.552129965533609,-0.022295910709603343,0.4140324665516792,-1.6505333069542953
1.5953211018006503,5.47496831002881,-0.022307721246630982,0.39819548613040073,-1.6711922994920543
1.5910820777588408,5.4008085361221205,-0.022313584456629145,0.3824337128873956,-1.6892150524969674
1.5868426957964172,5.329636142869411,-0.022311488832039407,0.3667493739832203,-1.7043898164156066
1.5826046689451485,5.261436166279637,-0.02229932012868283,0.35114511643544555,-1.7164916207000924
1.578370123234486,5.196193094849793,-0.02227484524671346,0.335624056510273,-1.7252810772082892
1.5741416220250806,5.133890775094315,-0.022235693799659246,0.3201898356526673,-1.7305031118156728
1.5699221940983756,5.074512305767737,-0.022179337007759443,0.30484668357446526,-1.7318856367071775
1.5657153660529592,5.0180399193708,-0.022103063470309107,0.2895994890248635,-1.729138186100497
1.561525199653632,4.96445484945038,-0.0220039512594532,0.2744538785585052,-1.7219505534854977
1.5573563349002688,4.913737182180991,-0.021878835618050867,0.25941630322454473,-1.7099914911615697
1.5532140397421448,4.865865690794674,-0.021724271309571636,0.24449413242091722,-1.6929075662828934
1.5491042675779232,4.8208176516765455,-0.021536488313814203,0.2296957530330836,-1.670322316669386
1.5450337239816891,4.778568641472429,-0.021311339014964473,0.21503067016813684,-1.6418359213718203
1.5410099445294627,4.739092315526005,-0.021044234166366686,0.2005096029521191,-1.607025705502886
1.5370413862476133,4.702360169620668,-0.020730063537309523,0.18614456447246253,-1.5654479503890997
1.533137536194594,4.668341289706518,-0.02036309491552505,0.1719489083080785,-1.5166416980905324
1.5293090422352582,4.637002098562416,-0.01993684149853727,0.15793731426140417,-1.4601355488770313
1.5255678735276086,4.60830611488678,-0.019443881739880292,0.14412567179793334,-1.3954588802798276
1.5219275221994608,4.582213750029158,-0.018875605924833855,0.1305308003875398,-1.3221594913999275
1.5184032641022074,4.5586821814367084,-0.01822184773046296,0.11716992163824595,-1.2398303925445486
1.5150125069322518,4.537665360488987,-0.017470333005913607,0.10405977254828425,-1.1481492273675047
1.5117752708555534,4.51911423477792,-0.01660583622248981,0.09121523493663378,-1.0469343260479285
1.5087148738921443,4.502977285877538,-0.015608868655499342,0.07864738506737608,-0.9362208710636899
1.5058589378255438,4.489201488467177,-0.014453616256085794,0.06636100872589021,-0.8163574790993985
1.5032409012267096,4.477733751800681,-0.013104663731643238,0.05435200881618546,-0.688114832323439
1.5009023501560548,4.468522745376635,-0.011511663327880749,0.04260595354220831,-0.5527804366265515
1.4988967387792895,4.461520627429028,-0.00960003537491271,0.031100551169434793,-0.41218692405646584
1.4972958176335642,4.456683375411949,-0.007251766159037896,0.0198178911156088,-0.268596454812599
1.4962031062335464,4.453966274167449,-0.00425045910430643,0.008783174615975246,-0.12436649322738028
