x,y,v_x,v_y,omega
2.375,32.48,0.0,3.230769230769231,-3.7142857142857144
2.3742697013397422,31.904998599237732,-0.008114429558420027,3.158135222144811,-3.488792617344491
2.3721822162551014,31.342820657957482,-0.015079849159808752,3.0882863476357594,-3.283696243990302
2.3689303895641878,30.79298021947423,-0.021051558517013978,3.0210518577337018,-3.096597045884996
2.364681158620879,30.25502077731193,-0.026162118630859047,2.9562752774029786,-2.9254295872822182
2.359579316988132,29.728512846522293,-0.03052501062188877,2.8938128424818794,-2.7684096163665237
2.353750677640538,29.213051796799718,-0.0342376487958168,2.833532154435603,-2.623990483412357
2.3473047407250323,28.708255911482254,-0.03738387248758192,2.7753110157584593,-2.490827088439409
2.3403369508456837,28.21376464261822,-0.0400360150607335,2.7190364160641383,-2.367745926919227
2.332930612947903,27.729237037137963,-0.042256628247947375,2.664603644827604,-2.253720099007335
2.325158523216498,27.254350313084505,-0.044099924323213704,2.6119155113219255,-2.147848377899103
2.3170843612592726,26.78879856803747,-0.04561298631262617,2.5608816558673397,-2.049337612457255
2.3087638816811857,26.332291604470203,-0.046836786777228884,2.5114179393245255,-1.9574878802202316
2.300245936547662,25.88455385893098,-0.04780704803969873,2.4634459000001874,-1.871679918208284
2.2915733548677366,25.44532342372777,-0.04855497062614141,2.4168922689243444,-1.7913644473130168
2.2827837008482255,25.014351151293123,-0.04910785181286952,2.3716885359050646,-1.7160530765705515
2.2739099290830995,24.5913998326668,-0.04948961224408813,2.3277705599429974,-1.6453105301558695
2.2649809518934667,24.176243442602246,-0.0497212454184984,2.2850782185520266,-1.5787479854720696
2.2560221316010636,23.76866644471309,-0.0498212022748662,2.243555091327447,-1.5160173475414682
2.2470557085047993,23.368463150854954,-0.049805721016962574,2.2031481737629908,-1.4568063148206145
2.2381011736582224,22.975437129608075,-0.04968911061166849,2.1638076178690113,-1.4008341159522382
2.2291755941535856,22.589400659305255,-0.04948399499540557,2.1254864966067664,-1.3478478169278338
2.220293897455336,22.210174221551668,-0.04920152387403587,2.0881405895441945,-1.2976191145277634
2.211469120351922,21.83758603162041,-0.0488515550527859,2.051728187469759,-1.2499415454148548
2.2027126272768567,21.47147160248965,-0.048442812447941,2.0162099139831287,-1.2046280514263508
2.1940343020612643,21.1116733396221,-0.04798302328086121,1.9815485623229534,-1.1615088508721212
2.185442716598814,20.758040163882082,-0.04747903741302975,1.9477089458995027,-1.1204295733528156
2.176945279412051,20.410427160245025,-0.04693693132878241,1.9146577611789128,-1.0812496220406294
2.1685483666919803,20.068695250184057,-0.04636209889422575,1.88236346172071,-1.0438407327442756
2.1602574380281623,19.73271088582176,-0.04575933070375258,1.8507961423048431,-1.0080857035924027
2.152077138744514,19.40234576411617,-0.04513288355900637,1.8199274322016923,-0.9738772729655745
2.1440113904981537,19.077476559511332,-0.04448654140055043,1.7897303967409668,-0.9411171265080629
2.13606347157805,18.757984673626375,-0.04382366882282651,1.7601794464251976,-0.909715016756972
2.1282360881511746,18.443756000685994,-0.04314725814245789,1.7312502529124079,-0.8795879812196296
2.1205314375415116,18.13468070751029,-0.04245997085379538,1.7029196712620396,-0.8506596466782743
2.1129512644875805,17.830653026985747,-0.04176417418988107,1.6751656678995719,-0.8228596091595841
2.105496911203731,17.531571064031922,-0.04106197340844871,1.6479672538095667,-0.7961228804217076
2.0981693619665074,17.23733661316271,-0.040355240338480966,1.6213044225150341,-0.7703893930214898
2.090969282857459,16.947854986816417,-0.03964563865094333,1.5951580924438067,-0.7456035570614069
2.0838970572158586,16.66303485369761,-0.038934646255730045,1.5695100533207174,-0.7217138626059637
2.076952817287182,16.38278808643549,-0.03822357517401294,1.544342916258376,-0.698672522523185
2.070136472494442,16.10702961791976,-0.03751358918975959,1.51964006724971,-0.6764351511670186
2.063447734708307,15.835677305725948,-0.03680571954507386,1.495385623792637,-0.65496047488661
2.056889958280396,15.568652716950044,-0.03605846298727346,1.4715542514951934,-0.6329333771817458
2.0504657028525846,15.305880043145905,-0.03532215287729729,1.4481421241063444,-0.6118355489678945
2.0441729700758935,15.047285076256465,-0.03459710019704904,1.4251352857763153,-0.5916173811199534
2.0380097119255765,14.792796067404343,-0.033883545917583316,1.402520368136138,-0.57223241218448
2.0319738425521123,14.542343623955283,-0.03318166934313119,1.3802845590756363,-0.5536370967252273
2.026063248713853,14.29586061202425,-0.03249159552641748,1.3584155734913952,-0.5357905929979979
2.020275798949023,14.053282064082598,-0.031813401860576906,1.3369016258602846,-0.5186545681551191
2.014609351626927,13.814545091349618,-0.031147123940493526,1.3157314045061506,-0.5021930193644611
2.009061762002491,13.579588800674628,-0.030492760775464565,1.2948940474381987,-0.4863721093918742
2.003630888384402,13.348354215636736,-0.029850279425520335,1.2743791196494996,-0.47116001534172886
1.9983145975148249,13.120784201608707,-0.029219619125338697,1.2541765917730474,-0.4565267893800674
1.9931107692478351,12.896823394549045,-0.028600694952323678,1.234276820000989,-0.442444230380616
1.9880173006041213,12.676418133302747,-0.02799340108894105,1.2146705271800928,-0.42888576553721514
1.983032109270983,12.45951639520624,-0.02739761372370534,1.1953487850033264,-0.4158263410785482
1.9781531366091323,12.246067734805816,-0.026813193630194212,1.1763029972236054,-0.40324232130364407
1.9733783502211009,12.036023225511762,-0.026239988459042105,1.1575248838214445,-0.3911113952306169
1.9687057461301305,11.829335404022125,-0.025677834773961225,1.139006466063413,-0.3794124902174436
1.964133350613129,11.625958217361045,-0.025126559859390215,1.1207400523930386,-0.36812569197313605
1.9596592217265947,11.425846972386658,-0.024585983324322977,1.1027182251001395,-0.3572321704311782
1.95528145056023,11.228958287632977,-0.024055918524173495,1.0849338277185412,-0.34671411100524513
1.9509981622492414,11.035250047358787,-0.023536173820144616,1.0673799531057888,-0.3365546507905693
1.9468075167730179,10.844681357684703,-0.023026553693452415,1.0500499321618098,-0.3267378193134026
1.942707709564918,10.657212504706948,-0.022526859729880742,1.032937323146569,-0.3172484834662811
1.9386969719552658,10.472804914483394,-0.022036891488474285,1.0160359015595872,-0.30807229629864785
1.9347735714673004,10.29142111479382,-0.02155644726669839,0.9993396505468028,-0.29919564936118165
1.930939678346917,10.113241381494724,-0.02104236518200432,0.9804351638876083,-0.3383653016933929
1.9271944242109078,9.938455206796046,-0.020571569662541853,0.9616334438754809,-0.37870853136359134
1.9235301426226705,9.767044322513893,-0.02014267020676296,0.9429319370373136,-0.4201250293900453
1.9199394189235501,9.598990911220618,-0.01975425978346299,0.9243281884435325,-0.46251586435193537
1.9164150929472181,9.43427758872896,-0.01940491773133712,0.9058198392415411,-0.5057832648077706
1.9129502612415261,9.272887386989204,-0.0190932123319087,0.88740462453353,-0.5498304024755724
1.9095382788549602,9.114803737337208,-0.018817703074378054,0.8690803715997367,-0.5945611752206102
1.9061727607417076,8.960010454030844,-0.01857694262842943,0.8508449984709964,-0.6398799888696572
1.902847582836678,8.808491718011293,-0.018369478538566044,0.8326965128573607,-0.6856915368357258
1.8995568828496083,8.660232060824285,-0.018193854651095298,0.8146330114427205,-0.7319005764934843
1.8962950608255909,8.515216348634148,-0.018048612282432694,0.7966526795587997,-0.77841170119237
1.8930567795180302,8.373429766260848,-0.017932291134908254,0.7787537912556489,-0.82512910673104
1.889836964619154,8.234857801166747,-0.017843429963714935,0.7609347097899217,-0.8719563510423423
1.8866308048927793,8.099486227315538,-0.01778056699600512,0.7431938885568377,-0.9187961057514501
1.883433752254104,7.967301088820701,-0.01774224010038629,0.7255298724969074,-0.9655498981700436
1.8802415218418753,7.838288683294692,-0.017726986702154866,0.7079413000143165,-1.0121178421752017
1.8770500921293964,7.712435544802862,-0.017733343436499165,0.690426905450449,-1.0583983562916057
1.8738557051225415,7.589728426317606,-0.017759845528555133,0.6729855221635042,-1.1042878671482745
1.8706548666952707,7.4701542815582584,-0.017805025885563958,0.6556160862736808,-1.1496804963147933
1.8674443471161535,7.353700246090746,-0.0178674138824049,0.6383176411431398,-1.1944677283352336
1.8642211818231713,7.240353617547463,-0.017945533817399342,0.6210893426711102,-1.2385380575691336
1.860982672508666,7.130101834812304,-0.018037903010434557,0.6039304654973167,-1.281776611216518
1.8577263885818214,7.022932455997598,-0.018143029510061245,0.5868404102216352,-1.324064745646828
1.854450169082599,6.918833135018815,-0.018259409370189057,0.5698187117648349,-1.3652796128691058
1.8511521251287604,6.817791596548648,-0.018385523450239433,0.5528650490147903,-1.4052936936730356
1.847830642986589,6.7197956091040645,-0.018519833684999952,0.5359792559250242,-1.4439742936389783
1.8444843878663744,6.624832955987564,-0.01866077876182697,0.5191613342582974,-1.481182997863586
1.84111230855583,6.532891403766527,-0.018806769133109833,0.5024114681976517,-1.516775079882618
1.8377136430185728,6.4439586679314225,-0.01895618128086023,0.48573004108130474,-1.5505988599055924
1.8342879251009014,6.3580223753240155,-0.019107351137710515,0.46911765455654386,-1.5824950071259956
1.8308349925086262,6.275070022869677,-0.01925856655423655,0.45257515049166025,-1.6122957805640878
1.827354996237001,6.195088932082346,-0.0194080586860449,0.4361036360342325,-1.6398242026794319
1.8238484116612999,6.118066198735985,-0.019553992155077648,0.41970451225865607,-1.6648931599208106
1.8203160515237622,6.043988637011243,-0.01969445381756391,0.403379506905147,-1.6873044245564126
1.8167590810851064,5.972842717330021,-0.01982743994527555,0.38713071177509534,-1.706847592685712
1.8131790357463706,5.904614496983292,-0.019950841596235627,0.37096062541077124,-1.723298934479633
1.8095778414904173,5.839289542539188,-0.020062427914354718,0.35487220174593687,-1.7364201547247622
1.8059578385433994,5.776852842890719,-0.020159827052512867,0.3388689054592914,-1.7459570650953142
1.8023218087165316,5.717288711669113,-0.020240504357130245,0.32295477478078555,-1.7516381748789522
1.7986730069602586,5.660580677616629,-0.020301737379236615,0.30713449246903746,-1.7531732150695802
1.7950151977499764,5.60671136139397,-0.020340587179453185,0.291413465560522,-1.750251623174385
1.7913526970304938,5.555662337212663,-0.020353865259242276,0.2757979142317808,-1.7425410347614585
1.7876904205840112,5.507413977665326,-0.020338095257229804,0.2602949696275305,-1.72968585562902
1.7840339398672136,5.461945280229791,-0.020289468262744043,0.24491277965617858,-1.7113060298046325
1.7803895466090307,5.419233674230558,-0.02020379016151005,0.22966062033530393,-1.6869961796684274
1.7767643278074603,5.379254807682695,-0.020076418744827355,0.21454900797425902,-1.6563253844826573
1.7731662532703762,5.341982314618509,-0.01990218722277273,0.1995898038500306,-1.618837995666041
1.7696042786091017,5.307387565506083,-0.01967530901361031,0.18479629739916076,-1.5740560798723797
1.7660884677776327,5.275439406655789,-0.01938925578048978,0.17018324538188515,-1.5214843597026761
1.7626301411274654,5.246103899712754,-0.019036595888035458,0.1557668317629582,-1.4606189191654169
1.7592420579744616,5.219344080318706,-0.018608772478671657,0.14156449483756062,-1.3909614928929506
1.7559386476112264,5.1951197668724625,-0.018095787112830913,0.1275945434540352,-1.3120418905704525
1.752736310804916,5.173387467095218,-0.01748573295728383,0.11387545407089368,-1.2234519979798717
1.7496538271510365,5.154100452175701,-0.016764085419157308,0.10042471170149335,-1.1248956769823086
1.746712925510147,5.137209093466396,-0.01591259947961438,0.08725705173521064,-1.016259244119857
1.7439391104078088,5.122661576283921,-0.014907568324142365,0.0743820280700815,-0.8977057957172356
1.7413628955180906,5.11040509615232,-0.013717041561616704,0.061801084503259766,-0.7697909489409492
1.7390216936348006,5.100387554558395,-0.012296312697161485,0.04950493320701822,-0.6335835897496469
1.7369627987840688,5.09255951091459,-0.010580296755416479,0.03747332950190846,-0.49074940471145556
1.7352483480215262,5.086875553640912,-0.008469156161722795,0.02568175131675935,-0.34352128504695345
1.7339646889522649,5.083292903712362,-0.005793722385625297,0.014125470111565331,-0.19446077364365785
1.7332466384848861,5.081760075654458,-0.0021846161408038147,0.002905952754025885,-0.04595336801434591
