x,y,v_x,v_y,omega
2.375,32.48,0.0,3.0769230769230766,-2.36734693877551
2.3744456808112653,31.87183533094673,-0.005543191887348809,3.0047236136095834,-2.215986970072626
2.3728654559948232,31.277819888053404,-0.010259056277068725,2.9354308153236786,-2.0790943160014685
2.37041298029573,30.697390743393534,-0.014265700713867627,2.8688606312750373,-1.9548769369119094
2.367220110151176,30.13002022292997,-0.017663000731672755,2.804844573360583,-1.8418046671650035
2.363400241890205,29.5752129613658,-0.020535681878032317,2.7432280422811095,-1.7385658429764752
2.3590510903727555,29.032503269486323,-0.02295583329646358,2.683868876513671,-1.6440318987703277
2.3542570103850986,28.501452773027545,-0.024984966580104278,2.626636088074107,-1.5572283299898062
2.34909094282009,27.981648288624626,-0.026675709069983962,2.5714087559550967,-1.4773107694801875
2.343616051721067,27.47269990767696,-0.028073201920246513,2.5180750535215353,-1.403545191786665
2.3378871056612076,26.9742392632869,-0.029216258678347224,2.4665313903790747,-1.3352914655980028
2.331951646914085,26.485917958990317,-0.030138328792876614,2.4166816525867656,-1.2719896341861072
2.3258509838751826,26.007406140954835,-0.03086830159614854,2.368436527768045,-1.2131484281680058
2.319621035781713,25.53839119779415,-0.03143117933854857,2.3217129038388102,-1.1583356125249653
2.313293053613396,25.078576574227135,-0.031848642344619975,2.2764333318313392,-1.1071698467539606
2.306894236879979,24.62768068657055,-0.03213952498955022,2.2325255447345196,-1.059313797976937
2.3004482626100695,24.185435929551105,-0.03232021770954668,2.189922025459964,-1.0144682953445694
2.293975740092192,23.75158776520205,-0.03240500746922779,2.148559618030564,-0.9723673528560314
2.287494602658658,23.325893885707785,-0.03240636686611584,2.1083791769120825,-0.9327739188581685
2.2810204459478136,22.908123443006563,-0.03233520024232356,2.0693252501001407,-0.8954762355956022
2.2745668205528213,22.49805633878069,-0.032201053707601776,2.0313457921585965,-0.8602847125066166
2.2681454857034145,22.095482569174827,-0.03201229478646282,1.9943919039000357,-0.8270292334725003
2.2617666295817247,21.700201619202794,-0.031776266430436566,1.9584175958202987,-0.7955568316937112
2.2554390610045294,21.31202190234486,-0.03149941934151706,1.9233795727590048,-0.7657296768857207
2.249170376480343,20.930760241312264,-0.031187425900349727,1.8892370375669862,-0.7374233285356108
2.2429671060447554,20.556241386372808,-0.03084527845552554,1.8559515118275673,-0.710525216414407
2.2368348407705216,20.188297567999204,-0.030477374286807673,1.8234866719084777,-0.6849333157000774
2.2307783444230553,19.826768080926318,-0.03008758918785511,1.7918081988203736,-0.6605549891722989
2.224801651373363,19.47149889699117,-0.029679341309071898,1.7608836405310986,-0.6373059731853074
2.2189081525777206,19.12234230438449,-0.029255646647350204,1.730682285535722,-0.6151094876646858
2.2131006711772265,18.779156571169487,-0.028819167357590637,1.7011750466142885,-0.5938954533333364
2.2073815290531082,18.441805631125582,-0.02837225388359116,1.6723343538247541,-0.5735998018528821
2.2017526054890304,18.1101587901551,-0.02791698175718982,1.6441340558800532,-0.5541638666521449
2.196215388934359,17.78409045165234,-0.027455183789523076,1.6165493291475426,-0.5355338439716903
2.1907710227281156,17.463479859378804,-0.026988478272909292,1.5895565935878349,-0.5176603151379838
2.1854203455285353,17.148210856518055,-0.026518293722893813,1.5631334350196522,-0.5004978223378374
2.1801639270947772,16.838171659700194,-0.026045890614688958,1.5372585331589772,-0.4840044912308693
2.1750020999828705,16.533254646890747,-0.0255723805043758,1.5119115949354731,-0.46814169464546085
2.1699349876453375,16.233356158133425,-0.025098742870956883,1.4870732926377581,-0.45287375237766847
2.164967878511164,15.938376802760228,-0.024572348470776797,1.4627202610942307,-0.4366325701848541
2.16010528799592,15.648220758041763,-0.02405355668166003,1.4388401860904185,-0.4211313130758191
2.155345661547452,15.362795110848534,-0.02354270780302181,1.4154162858418864,-0.40632754207565447
2.1506873835427704,15.082010228359145,-0.02304007224379479,1.392432539052012,-0.39218171275040675
2.1461287903931705,14.805779610286745,-0.022545859252206365,1.3698736416720017,-0.37865694649820436
2.14166818200679,14.534019749461681,-0.022060224611597134,1.347724966578652,-0.3657188223143428
2.137303831802865,14.26665000020964,-0.021583277427655336,1.3259725259417456,-0.3533351869868895
2.1330339954484474,14.003592454008146,-0.02111508611651858,1.3046029360731923,-0.34147598190387785
2.128856918467855,13.744771821944003,-0.020655683689404104,1.2836033845682484,-0.33011308485079205
2.124770842857168,13.49011532353062,-0.020205072417469747,1.2629615995655867,-0.31922016535127323
2.1207740128203985,13.239552581477277,-0.019763227950223474,1.242665820967834,-0.30877255225780414
2.116864679730199,12.993015522032731,-0.019330102951770605,1.2227047734776142,-0.29874711243512975
2.113041106403889,12.75043828055334,-0.018905630311328477,1.203067641316292,-0.2891221394995833
2.1093015707749974,12.511757111971349,-0.018489725977588127,1.1837440445036247,-0.27987725168423944
2.105644369031186,12.276910305862334,-0.01808229146052542,1.1647240165865234,-0.27099329799458327
2.1020678182812293,12.04583810583226,-0.017683216039042538,1.1459979837142023,-0.2624522719036272
2.0985702588065,11.818482632964315,-0.01729237870825429,1.1275567449652506,-0.2542372319103779
2.0951500559460507,11.594787813083823,-0.01690964989623596,1.1093914538396719,-0.2463322283523731
2.0918056016587725,11.374699307616279,-0.016534892976545725,1.0914936008357843,-0.23872223592261657
2.088535315801142,11.158164447828888,-0.01616796559976097,1.0738549970381153,-0.2313930913944907
2.085337647154709,10.945132172260262,-0.015808720864568686,1.056467758648127,-0.22433143610584846
2.0822110742335944,10.735552967155968,-0.015457008346577563,1.0393242923948138,-0.2175246627961245
2.0791541058988434,10.52937880973979,-0.015112675000931965,1.0224172817669788,-0.21096086642852457
2.076165281803453,10.326563114161758,-0.0147755659529698,1.0057396740133564,-0.204628798663647
2.0732431726892013,10.127060679974349,-0.014445525189546112,0.9892846678607428,-0.1985178256816969
2.070389011977086,9.931000996382142,-0.014096081931610544,0.9713121680613411,-0.22696025471675793
2.0676014798210427,9.7385248801151,-0.013779239628819313,0.953448994609065,-0.2569701838330421
2.0648741120561933,9.549610757800465,-0.013494438019678345,0.9356922285372796,-0.28844356114294095
2.062200563094484,9.364237628756815,-0.013241051597410493,0.918039061899231,-0.32127857826935635
2.0595746183468715,9.182385043186102,-0.013018395878716855,0.9004867938078809,-0.35537544829751194
2.056990205445329,9.004033081121381,-0.012825733136705857,0.8830328268393084,-0.3906361880234376
2.0544414043682035,8.829162332058406,-0.012662277634548866,0.8656746637904347,-0.4269644036131052
2.051922456565448,8.657753875200942,-0.01252720039300937,0.8484099047841915,-0.46426507878663015
2.0494277731739716,8.489789260250756,-0.012419633521754835,0.8312362447176719,-0.5024443646357897
2.046951942407669,8.32525048867386,-0.012338674141269407,0.8141514710512793,-0.5414093701701106
2.0444897362016206,8.164119995374783,-0.012283387919215606,0.797153461939484,-0.58106795266661
2.042036116185477,8.006380630710183,-0.012252812242217897,0.7802401847065187,-0.6213285068705401
2.039586239057132,7.852015642772205,-0.012245959041234638,0.7634096946732521,-0.6620997520586868
2.0371354614244166,7.701008659870418,-0.012261817285920589,0.7466601343446084,-0.7032905159323202
2.0346793441797613,7.553343673138926,-0.012299355160632694,0.7299897329702981,-0.7448095142530897
2.032213656470501,7.40900501919236,-0.012357521931968513,0.7133968064953593,-0.7865651250712115
2.029734379325812,7.267977362750713,-0.012435249514919334,0.6968797579211291,-0.8284651563202787
2.027237709000137,7.130245679148416,-0.012531453741836347,0.6804370781018575,-0.8704166054659066
2.024720060092412,6.995795236637498,-0.012645035335413496,0.6640673470073242,-0.9123254097950279
2.0221780685004958,6.864611578388004,-0.012774880583746784,0.647769235487616,-0.9540961858176944
2.0196085942709017,6.736680504080962,-0.012919861712195418,0.6315415075827953,-0.9956319561222877
2.017008724405362,6.611988050979917,-0.013078836943198972,0.6153830234276552,-1.0368338618765633
2.0143757756879075,6.490520474356124,-0.01325065023134573,0.5992927428102923,-1.0776008589993307
2.0117072975990946,6.372264227129797,-0.013434130656783217,0.5832697294529838,-1.117829395839123
2.0090010753878715,6.257205938574991,-0.013628091455448101,0.56731315609507,-1.1574130699852914
2.006255133376377,6.145332391918441,-0.013831328659496829,0.5514223104704316,-1.1962422616020354
2.0034677385788617,6.036630500642698,-0.014042619315657891,0.5355966022870002,-1.234203740415731
2.000637404723005,5.931087283280711,-0.014260719242908202,0.5198355713328705,-1.2711802431998285
1.997762896770335,5.82868983646209,-0.014484360283792626,0.5041388968533299,-1.3070500182897709
1.994843236042382,5.729425305940165,-0.01471224699573469,0.48850640836591597,-1.3416863333244755
1.9918777060708401,5.633280855292888,-0.014943052719686318,0.4729380981068623,-1.3749569420547363
1.9888658593035444,5.540243631948954,-0.01517541495327058,0.4574341353324945,-1.4067235056896665
1.9858075248138183,5.450300730142327,-0.015407929943990428,0.44199488273375953,-1.436840963882129
1.9827028171789314,5.363439150342792,-0.015639146404878384,0.4266209152615903,-1.4651568501025276
1.9795521467144566,5.279645754646072,-0.015867558239868556,0.411313041705599,-1.491510545847648
1.9763562312755858,5.198907217533623,-0.016091596148838698,0.3960723294188843,-1.5157324679235316
1.9731161098644763,5.121209971327993,-0.016309617962258875,0.38090013263740885,-1.537643182997778
1.9698331583150381,5.0465401455739745,-0.01651989753212134,0.36579812490276725,-1.5570524438399855
1.9665091073639722,4.974883499467641,-0.016720611978536856,0.3507683361605697,-1.5737581423111078
1.9631460634602211,4.9062253463345975,-0.016909827058976243,0.3358131951698746,-1.587545175446973
1.9597465327155204,4.840550469025974,-0.01708548038803054,0.32093557791636473,-1.5981842232367653
1.956313448457978,4.777843024957988,-0.01724536218739146,0.30613886276350416,-1.6054304404067052
1.9528502029207515,4.718086439373067,-0.01738709318487486,0.29142699308570696,-1.609022070391957
1.9493606836820643,4.661263285256521,-0.01750809920199757,0.27680454807975197,-1.6086789987593157
1.9458493155755945,4.607355148218119,-0.01760558186270048,0.26227682230428356,-1.6041012771656895
1.9423211089186867,4.556342474568911,-0.01767648470637627,0.24784991418780455,-1.5949676697668165
1.9387817150708615,4.508204400832856,-0.017717453771876182,0.23353082317273766,-1.5809343051648332
1.9352374905541854,4.462918563098395,-0.017724791394885177,0.21932755417188118,-1.5616335634187997
1.9316955712686221,4.420460885044541,-0.017694401460747584,0.20524922636665982,-1.536673396558969
1.9281639587661885,4.380805344336352,-0.017621723563587835,0.1913061807152403,-1.5056373829753442
1.9246516211852316,4.343923718631835,-0.017501652245980857,0.17751007632994437,-1.4680859661630798
1.9211686124204685,4.309785315063081,-0.01732843540165055,0.1638739593575977,-1.4235595479511347
1.9177262146346048,4.27835669131802,-0.017095542456987457,0.15041227809299873,-1.3715844243155622
1.9143371116730603,4.2496013831647765,-0.01679548715845795,0.1371408034394299,-1.3116830039204395
1.9110156049481044,4.223479663506982,-0.016419580091099555,0.12407639313853033,-1.2433903720496113
1.9077778899590505,4.199948373102785,-0.015957569799439374,0.11123651090343303,-1.1662800711677557
1.9046424225507497,4.178960883974202,-0.01539710428356945,0.09863838038239357,-1.0800029008902434
1.9016304221352172,4.160467282911721,-0.014722899871755348,0.08629763024240329,-0.9843433166500958
1.8987665890241996,4.144414889609688,-0.013915431238420749,0.07422630277793642,-0.8792978510975737
1.8960801622736372,4.130749236439616,-0.012948836267202493,0.06243022892279086,-0.765177127781159
1.8936065264811763,4.119415597049759,-0.011787521657407613,0.05090616497577813,-0.6427241791446625
1.8913897217132813,4.110360982101692,-0.01038052602154248,0.03963998450489225,-0.5132224818289732
1.8894865199687123,4.103536085812383,-0.008651491424148457,0.028608978388196538,-0.37853587937818634
1.8879736227506645,4.098895697762689,-0.006477480756328154,0.017794902108751252,-0.24099089364064744
1.8869632906653866,4.0963934478916,-0.003625840096452738,0.007227596602148823,-0.10301152464189925
