x,y,v_x,v_y,omega
2.375,32.48,0.0,2.5128205128205128,-2.612244897959184
2.3744631505929616,31.95787479879195,-0.005112851495604591,2.4598004510656515,-2.46649562720581
2.3729232737532446,31.446690491984402,-0.009552642215984708,2.4086215185300364,-2.332731274169528
2.370512905263597,30.94607128103736,-0.013403248161611373,2.3591804904894187,-2.2096606653210187
2.3673481554513325,30.455662222413963,-0.016737226240910456,2.311381972590561,-2.096157828301441
2.3635309098604593,29.975127664264456,-0.01961749367216462,2.265137628833326,-1.9912379096912187
2.3591507059440104,29.504149835115946,-0.022098734103540487,2.220365505914352,-1.8940370084523674
2.354286338067411,29.04242756589182,-0.024228579006927573,2.1769894390773175,-1.803795224089238
2.3490072339024497,28.589675129416733,-0.02604860351651527,2.134938527352122,-1.7198423555367788
2.343374637844252,28.145621183881524,-0.027595168466319625,2.0941466682212986,-1.64158579471488
2.337442631034338,27.710007808654524,-0.028900134485244144,2.054552143464388,-1.568500244228791
2.3312590126372563,27.282589622414054,-0.02999146929648585,2.0160972493019886,-1.5001189568590818
2.324866062974844,26.86313297490528,-0.030893765583630314,1.9787279650672993,-1.43602624907545
2.3183012057967063,26.451415204742364,-0.03162868373196715,1.9423936555318941,-1.3758510847374663
2.311597584220596,26.047223956622965,-0.03221533127860849,1.907046802748124,-1.3192615606531675
2.3047845626027885,25.65035655212737,-0.03267058889098628,1.8726427638765697,-1.265960154489386
2.297888164709186,25.26061940896355,-0.033009391048083384,1.839139551969359,-1.215679619018579
2.290931456982898,24.87782750411136,-0.03324496824989941,1.8064976370991048,-1.1681794259054468
2.2839348843872074,24.501803876830625,-0.03338905647096129,1.7746797655745468,-1.1232426780172153
2.276916565198692,24.132379167940883,-0.03345207865775859,1.743650795280159,-1.0806734222443213
2.2698925501969076,23.76939119216653,-0.03344330231161558,1.713377545427936,-1.0402943055680582
2.262877050914472,23.412684540678164,-0.03337097656872262,1.6838286592231777,-1.0019445260273798
2.2558826409499795,23.06211021125621,-0.03324245166453881,1.6549744781287437,-0.9654780376542117
2.24892043378587,22.717525263762944,-0.03306428323174537,1.6267869265690638,-0.9307619746353897
2.242000240077551,22.378792498837903,-0.032842323514147745,1.5992394060503619,-0.8976752651379075
2.235130706975108,22.045780157934615,-0.032581801271022004,1.5723066977904907,-0.8661074095793144
2.2283194416934853,21.718361642996015,-0.032287391887289886,1.545964873053298,-0.8359574017806769
2.2215731212517547,21.39641525422598,-0.03196327898633708,1.5201912104708746,-0.80713277452285
2.2148975900491523,21.079823944556537,-0.03161320865749452,1.4949641197142873,-0.7795487536339288
2.2083075506089065,20.76847622002127,-0.03114907172580038,1.4702523044310907,-0.7506161225038115
2.201815981316029,20.46226472552444,-0.030675397730173,1.4460476431577458,-0.7230594113741139
2.195424663390538,20.161084916261327,-0.03019429679831551,1.422331492681444,-0.6967964741453128
2.189134960532911,19.864836069902974,-0.02970763517908327,1.3990860916838113,-0.6717509974853295
2.1829478673447698,19.573421106891416,-0.02921706185083499,1.3762945084262583,-0.647852021352177
2.1768640524766316,19.28674642133282,-0.02872403213143238,1.3539405921318153,-0.6250335041589469
2.170883897094894,19.00472172174421,-0.028229828647020293,1.3320089277596698,-0.6032339279478006
2.165007529189952,18.72725988097025,-0.027735579971475147,1.3104847938971032,-0.5823959394690208
2.1592348541859745,18.45427679464156,-0.027242277209263966,1.2893541235189865,-0.5624660235246425
2.1535655822591453,18.185691247596345,-0.02675078876053667,1.2686034673878215,-0.5433942053425912
2.147999252724116,17.92142478773241,-0.026261873477839166,1.2482199598877817,-0.5251337791042084
2.142535255807126,17.661401606798208,-0.025776192398255335,1.228191287104613,-0.5076410600620423
2.137172852087994,17.405548427669345,-0.025294319212525725,1.2085056569798105,-0.4908751579614254
2.131911189861283,17.15379439769131,-0.024816749613293054,1.1891517713824096,-0.47479776972344145
2.126749320638879,16.90607098770086,-0.02434390964769875,1.1701187999551947,-0.45937298956256406
2.1216862129914698,16.662311896367115,-0.023876163184766912,1.151396355604293,-0.4445671349030827
2.1167207649045863,16.42245295951989,-0.02341381859507582,1.1329744715121295,-0.4303485866275366
2.1118518148055703,16.18643206415693,-0.022957134728886767,1.114843579563687,-0.41668764234040756
2.107078151400796,15.95418906684381,-0.022506326268964438,1.096994490085052,-0.4035563814636223
2.1023985224473667,15.72566571624073,-0.022061568525600275,1.0794183728014395,-0.3909285410989946
2.097811642570142,15.500805579508999,-0.021623001733683606,1.0621067389293488,-0.37877940169835467
2.0933162002230885,15.279553972367367,-0.021190734904919406,1.0450514243242839,-0.36708568167630695
2.0889108638834255,15.061857892584094,-0.0207648492823494,1.028244573611663,-0.3558254401846566
2.0845942875576737,14.847665956705281,-0.02034540143909342,1.0116786252341738,-0.34497798734272733
2.080365115670416,14.636928339833524,-0.019932426058602834,0.9953462973539777,-0.33452380128507725
2.076225078045289,14.429733495536734,-0.019496503704509935,0.9779379340440075,-0.3503895554059009
2.0721737829322313,14.22618223795768,-0.019087259276989853,0.9606454714707957,-0.3682057790237095
2.0682056228155905,14.026250568008361,-0.01870474183387625,0.9434656709036807,-0.38786075429937356
2.0643149909236147,13.82991515348844,-0.01834889523255939,0.9263954197622528,-0.4092458004402196
2.06049630237491,13.637153303146913,-0.018019567136058644,0.9094317263475229,-0.4322550356176238
2.056744013508322,13.447942941807295,-0.01771651730763332,0.8925717149821826,-0.4567851463262761
2.053052639540332,13.262262586472197,-0.01743942524465611,0.8758126215425609,-0.48273516327944166
2.0494167706838247,13.080091323326666,-0.01718789719827075,0.8591517893672622,-0.5100062429579076
2.045831086852756,12.901408785562474,-0.016961472621430714,0.8425866655297938,-0.5385014539476948
2.0422903710686606,12.726195131948042,-0.01675963008423831,0.8261147974647914,-0.5681255672130664
2.0387895216771508,12.554431026070567,-0.016581792692044423,0.8097338299397469,-0.5987848494568457
2.0353235634754436,12.386097616178414,-0.016427333038500944,0.7934415023664582,-0.630386858719467
2.0318876578455223,12.221176515552813,-0.01629557772265443,0.7772356464487931,-0.6628402413613733
2.028477111981742,12.05964978333828,-0.016185811456205835,0.7611141841658011,-0.6960545295601146
2.025087387296498,11.901499905761234,-0.01609728078421193,0.7450751260917684,-0.7299399384334945
2.0217141070829827,11.746709777665561,-0.016029197439745495,0.7291165700575085,-0.7644071618730013
2.0183530635100237,11.595262684292717,-0.01598074135033848,0.7132367001600718,-0.799367166137091
2.0150002240205436,11.447142283232136,-0.01595106331138077,0.6974337861311631,-0.8347309802111469
2.011651737202252,11.30233258646518,-0.015939287339011038,0.6817061830779501,-0.8704094818895094
2.008303938196855,11.160817942422561,-0.015944512712389194,0.6660523316136577,-0.9063131784741602
2.0049533537122364,11.022583017971183,-0.01596581571255404,0.6504707583994619,-0.9423519809136668
2.001596706700875,10.887612780241245,-0.016002251062315436,0.6349600771237679,-0.9784349701239726
1.9982309207671105,10.75589247819849,-0.016052853068775474,0.6195189899500895,-1.0144701541385934
1.9948531243658452,10.627407623859327,-0.016116636467083473,0.6041462894705135,-1.0503642146287133
1.9914606548559104,10.502143973038056,-0.016192596960867004,0.5888408612082597,-1.0860222412124623
1.988051062472622,10.380087505505564,-0.01627971145140428,0.5736016867202473,-1.1213474518361712
1.984622114286108,10.261224404427242,-0.016376937943965716,0.558427847359009,-1.156240897357515
1.9811717982148322,10.145541034934439,-0.016483215115803012,0.5433185287629126,-1.1906011482901429
1.9776983271674489,10.033023921668097,-0.016597461525945056,0.528273026154646,-1.2243239614808015
1.974200143390793,9.923659725115105,-0.016718574442206403,0.5132907505405196,-1.2573019242825687
1.9706759231075281,9.817435216537003,-0.016845428255552707,0.49837123591757665,-1.2894240735617246
1.9671245815338532,9.714337251266393,-0.01697687244611448,0.48351414761204814,-1.3205754866319224
1.963545278375858,9.614352740118505,-0.017111729058600547,0.46871929189165307,-1.3506368409500487
1.959937423912765,9.51746861863321,-0.017248789637524735,0.45398662701593623,-1.3794839391378613
1.9563006857865632,9.423671813825607,-0.017386811564395376,0.4393162759136012,-1.4069871956195739
1.952634996630686,9.332949208080763,-0.017524513729675048,0.4247085407039533,-1.4330110808998726
1.9489405626855898,9.24528759977915,-0.017660571461716065,0.4101639193114157,-1.4574135192676378
1.9452178735667163,9.160673660183381,-0.017793610622793336,0.39568312445781145,-1.4800452355254425
1.9414677133706293,9.079093886052853,-0.017922200768512964,0.38126710535675273,-1.5007490462545887
1.9376911733285893,9.00053454738023,-0.018044847250915232,0.36691707247774913,-1.5193590911901846
1.9338896662439038,8.92498162956172,-0.018159982127042076,0.352634525793752,-1.5357000005884471
1.930064942980704,8.852420769221197,-0.018265953712955068,0.33842128697314855,-1.5495859951469046
1.9262191113081317,8.782837182806627,-0.01836101459725762,0.32427953602274984,-1.5608199162730847
1.922354657446259,8.7162155869669,-0.01844330789676767,0.31021185292702547,-1.569192186557661
1.9184744707097956,8.652540109600054,-0.018510851498122236,0.29622126485245703,-1.5744797035839269
1.9145818717046195,8.591794190345027,-0.018561519979745797,0.28231129948114414,-1.57644467526247
1.910680644603119,8.533960469176204,-0.01859302384406604,0.2684860449838271,-1.5748334125390597
1.906775074111213,8.479020661667192,-0.018602885602659432,0.2547502170067774,-1.5693751067778825
1.902869987848736,8.426955419439643,-0.018588412135216576,0.24110923277941104,-1.5597806361057691
1.898970805004949,8.377744174340613,-0.01854666256751687,0.22756929197327105,-1.5457414700377483
1.89508359231685,8.331364965053542,-0.01847441065247257,0.2141374631417008,-1.526928778451937
1.891215128673145,8.287794245230543,-0.018368100239958267,0.20082177326779896,-1.5029929047410084
1.8873729800089445,8.247006672969444,-0.01822379180004562,0.18763129588552616,-1.4735634413507173
1.8835655866871885,8.208974882747846,-0.018037096978581368,0.17457623003447365,-1.4382502597183733
1.8798023663637373,8.173669243064932,-0.017803096578096804,0.16166795742185472,-1.396646010804557
1.8760938365712174,8.141057606460162,-0.017516234779237132,0.14891905786165624,-1.3483308468528865
1.8724517632084337,8.111105063879904,-0.01717017819965687,0.1363432524265051,-1.292880444103517
1.868889344243958,8.083773723346301,-0.016757621462014097,0.12395522884591442,-1.2298788548026354
1.8654214429847666,8.059022544488332,-0.016270009577903456,0.11177028408713505,-1.158938297134566
1.8620648934458162,8.036807276553304,-0.01569712888829413,0.09980369624645474,-1.0797286685413683
1.8588389136485781,8.017080568002406,-0.015026488228256276,0.08806971852399362,-0.9920201793418293
1.8557656841877042,7.99979233801929,-0.014242363780068776,0.07658009083899917,-0.8957425967648109
1.8528711840647032,7.9848905150320455,-0.013324304058035044,0.06534203284903066,-0.7910631310991827
1.850186431881245,7.9723222318411295,-0.01224476435585151,0.05435590230253559,-0.6784800045728026
1.8477493749403435,7.96203547381511,-0.010965301747973461,0.04361322175477644,-0.5589172788919397
1.8456078491381722,7.953980920975379,-0.009430182082229715,0.03309680529026542,-0.43378637452380026
1.8438244738209189,7.948113160099698,-0.007554344748754308,0.022786631620991052,-0.30495480146983756
1.8424858406693767,7.944389169644385,-0.005194542408788741,0.012679944143890868,-0.17454971141101225
1.8417260181707502,7.942757277339705,-0.0020418623400352957,0.002861887329265402,-0.04455635160584481
