x,y,v_x,v_y,omega
2.375,32.48,0.0,2.2051282051282053,-4.6938775510204085
2.374274340567409,32.04319475070546,-0.007256594325907802,2.162924287817143,-4.468179900924306
2.3721807905736414,31.61470382188945,-0.013678905611769685,2.121985000342998,-4.258120820472057
2.3688772743297757,31.194280858970256,-0.019356256826889157,2.0822446288489105,-4.062253847509457
2.364504895732801,30.781692159769843,-0.024367529142857544,2.0436423631552105,-3.8792939103079487
2.359189890030249,30.376715744381517,-0.028782527882664173,2.0061217907280664,-3.708096482069322
2.3530453224791104,29.979140519446936,-0.03266314762872112,1.9696304586177562,-3.547639796079802
2.346172570743642,29.588765524360888,-0.036064369725963094,1.9341194922426972,-3.397009616001059
2.338662621847695,29.20539924893725,-0.03903511923350496,1.8995432619936932,-3.2553861489915374
2.3305972095761636,28.828859013708712,-0.041619003481807346,1.8658590902916838,-3.1220327635157
2.3220498141794264,28.458970405374387,-0.04385495048556805,1.8330269930515466,-2.9962862330957853
2.313086542898472,28.095566761013256,-0.04577776232397199,1.8010094505597976,-2.877548275120171
2.303766907059854,27.738488695594985,-0.047418596062209474,1.7697712036229167,-2.765278192605152
2.294144509181236,27.387583668079735,-0.04880538272396939,1.7392790715295596,-2.6589864584018232
2.2842676515952194,27.04270558203397,-0.04996319313619735,1.7095017889280888,-2.558229107207671
2.2741798764736814,26.703714417223466,-0.05091455807918497,1.6804098591769765,-2.462602822020907
2.2639204457629507,26.370475889095744,-0.051679749028122744,1.6519754221002156,-2.3717406192560273
2.2535247683781,26.042861133446827,-0.05227702482038481,1.6241721343889812,-2.285308051324591
2.2430247810171102,25.72074641389322,-0.052722848789512076,1.5969750611470648,-2.2029998576333636
2.2324492881138487,25.40401285004941,-0.05303208024310045,1.5703605772910505,-2.1245370051075736
2.2218242657291007,25.092546164550825,-0.053218143604381436,1.5443062776947798,-2.0496640678665705
2.211173133561908,24.78623644726958,-0.053293178067547235,1.5187908951176872,-1.9781469028499725
2.2005169987331787,24.484977935249493,-0.0532681702197418,1.4937942250831937,-1.9097705842469763
2.189885990920943,24.188673214272473,-0.0530419079026151,1.4692529846869848,-1.8408666083087848
2.1793064898387744,23.897228409299075,-0.052753102919073334,1.445195065047017,-1.7751348395047808
2.1687903127868178,23.610548606314033,-0.052408667600490004,1.421602964803395,-1.7123913625672667
2.1583479608357057,23.32854230945147,-0.05201485191063104,1.3984600038221913,-1.6524649545777064
2.147988744824233,23.051121281671357,-0.05157730820409316,1.375750273978965,-1.595196068534854
2.137720899077835,22.77820039492049,-0.05110114925988896,1.353458593529701,-1.5404359093983042
2.1275516841178317,22.509697489091785,-0.05059100034014543,1.3315704647573168,-1.4880455931875498
2.117487479490441,22.245533239154696,-0.050051045933763534,1.3100720346136114,-1.4378953807791794
2.10753386772042,21.98563102988288,-0.049485071766446904,1.288950058104527,-1.38986397897578
2.0976957102847638,21.72991683765329,-0.048896502590114396,1.2681918641913825,-1.343837902237208
2.0879772164052546,21.47831911883388,-0.048288436204977706,1.247785324002722,-1.2997108891833442
2.078382005373226,21.23076870431651,-0.04766367411531078,1.2277188211709604,-1.2573833686102267
2.068913163044279,20.987198699786873,-0.04702474917415505,1.2079812241254124,-1.2167619703197026
2.0595732930736603,20.747544391355447,-0.04637395053203278,1.1885618601888222,-1.177759076556007
2.050364563403513,20.511743156202726,-0.0457133461694415,1.1694504913384045,-1.1402924102792142
2.0412887484603846,20.279734377918402,-0.04504480326184172,1.1506372915048437,-1.1042846568923925
2.032347267474352,20.051459366238532,-0.04437000659848302,1.132112825293865,-1.0696631163827066
2.0235412192892768,19.82686128090664,-0.043690475252268726,1.1138680280250288,-1.0363593831419275
2.0148714139963966,19.605885059404997,-0.043007577676532294,1.0958941869914354,-1.0043090510034822
2.00633840169017,19.388477348320635,-0.042322545385735856,1.0781829238521787,-0.9734514412752915
1.9979424986155563,19.17458643812774,-0.04163648536040043,1.0607261780767465,-0.9437293517637076
1.989683810949339,18.964162201183342,-0.04095039130177231,1.0435161913672275,-0.91508882497692
1.9815622564343025,18.7571560327476,-0.04026515384859202,1.026545492990215,-0.8874789338689091
1.9735775840637773,18.553520794853,-0.039581569856660725,1.0098068859557714,-0.8608515836397231
1.9657293919949592,18.353210762858843,-0.038900350831519236,0.9932934339857876,-0.8351613282465715
1.9580221791448766,18.156369007801487,-0.03817177766930661,0.9751241165877895,-0.8474463608892056
1.9504575735100194,17.963149217390075,-0.037474278679267045,0.9570737875263156,-0.861720614446179
1.9430293858149528,17.773527923627732,-0.0368075982713977,0.9391391500971212,-0.8778612686117149
1.9357314874979872,17.587482304328915,-0.03617138489825859,0.9213170428910433,-0.8957485401489469
1.9285578290698633,17.40499015657909,-0.035565199382979654,0.9036044346072447,-0.915265414621137
1.9215024568741925,17.226029871185638,-0.034988522573729516,0.8859984193272417,-0.9362973853428108
1.9145595283796997,17.050580408029468,-0.034440762371199224,0.8684962122344482,-0.9587321984786543
1.9077233261254165,16.878621272229335,-0.0339212601716314,0.8510951457668905,-0.9824596032378492
1.900988270431839,16.71013249103328,-0.03342929676414274,0.8337926661936539,-1.0073711061239317
1.8943489309836732,16.54509459135306,-0.03296409771751507,0.8165863306085581,-1.0333597282052336
1.8878000373830979,16.383488577858447,-0.032524838288238614,0.7994738043375501,-1.0603197643684332
1.8813364887664388,16.225295911548752,-0.032110647878353715,0.7824528587593909,-1.0881465435075435
1.8749533625717505,16.07049848871857,-0.03172061406852697,0.7655213695424344,-1.1167361885825964
1.868645922540019,15.919078620233957,-0.03135378624878837,0.7486773153036975,-1.145985375456033
1.862409626028498,15.771019011033584,-0.031009178866421686,0.73191877670004,-1.1757910893800323
1.8562401307110945,15.626302739767063,-0.030685774307614596,0.7152439359651789,-1.2060503779642766
1.8501333007376717,15.484913238479496,-0.030382525426611014,0.6986510769104908,-1.236660099400465
1.8440852124216869,15.346834272247229,-0.030098357733238074,0.6821385854121945,-1.2675166646567115
1.8380921595236854,15.212049918664746,-0.029832171246775417,0.6657049504126149,-1.2985157722812
1.8321506581968916,15.080544547076595,-0.029582842021164252,0.6493487654688943,-1.329552134369522
1.8262574516604266,14.952302797440822,-0.02934922334348517,0.6330687308888373,-1.3605191921533624
1.8204095146656347,14.827309558701874,-0.029130146604432416,0.6168636565006519,-1.3913088195590733
1.8146040578215776,14.705549946540678,-0.02892442183613925,0.6007324651113015,-1.421811012962716
1.8088385318470515,14.587009280357833,-0.0287308379091231,0.5846741967171538,-1.4519135652330892
1.8031106318185117,14.471673059332044,-0.028548162376273317,0.568688013540741,-1.48150172200612
1.7974183014861196,14.359526937380078,-0.028375140947647568,0.5527732059789111,-1.5104578179733135
1.7917597377338232,14.250556696826123,-0.02821049657531659,0.5369291995606248,-1.5386608907949717
1.786133395264038,14.144748220567326,-0.028052928122535698,0.5211555630273438,-1.5659862700679201
1.7805379915931794,14.042087462498035,-0.027901108586049182,0.5054520176655589,-1.592305138591402
1.7749725124511482,13.942560415927506,-0.027753682834262793,0.4898184480397386,-1.617484062989701
1.7694362176859972,13.84615307969403,-0.027609264817246043,0.4742549142950289,-1.6413844905751969
1.7639286477845801,13.752851421642273,-0.027466434196925918,0.45876166622256087,-1.6638622091847077
1.7584496311311621,13.662641339089387,-0.02732373233725363,0.4433391593063146,-1.6847667666152377
1.7529992921389992,13.575508615858844,-0.027179657584375454,0.42798807299910196,-1.7039408462516925
1.7475780604049946,13.491438875408324,-0.02703265975567024,0.4127093315061076,-1.7212195955604777
1.7421866810550672,13.410417529519016,-0.02688113374360411,0.3975041273869759,-1.7364299043786844
1.7368262264681813,13.33242972194827,-0.02672341212525295,0.3823739483205018,-1.7493896304435264
1.7314981095906123,13.257460266375457,-0.026557756650436276,0.3673206074076175,-1.7599067705010965
1.7262040990795882,13.185493577893162,-0.02638234845980563,0.3523462774153187,-1.76777857677801
1.7209463365478435,13.116513597213501,-0.026195276857641118,0.3374535293813051,-1.7727906208361393
1.7157273562190192,13.050503706675531,-0.025994526430603068,0.3226453759983902,-1.7747158102028529
1.7105501073499245,12.987446637059005,-0.025777962260344917,0.30792532016686053,-1.773313368164645
1.705417979831865,12.927324364139995,-0.025543312920249472,0.2932974090232305,-1.7683277944237568
1.7003348334530717,12.870117993877962,-0.02528815086768213,0.278766293597108,-1.7594878349307672
1.695305031393079,12.815807635121043,-0.025009869732243322,0.26433729397207,-1.7465055045223468
1.6903334786358033,12.764372258786928,-0.02470565784051547,0.2500164693690959,-1.7290752280031156
1.6854256661435767,12.715789542665998,-0.02437246708175217,0.23581069184019918,-1.7068731968348447
1.6805877218490126,12.670035701369862,-0.02400697586388637,0.22172772112117065,-1.6795570836125597
1.6758264698259757,12.627085301612503,-0.023605544366484998,0.2077762764524258,-1.6467663205726537
1.6711494994436387,12.586911064110993,-0.02316415945688564,0.19396609856269492,-1.608123239136661
1.666565246965801,12.549483655139984,-0.022678365321488845,0.18030799114740528,-1.5632354951822642
1.6620830930542407,12.514771473467775,-0.022143173794116098,0.16681382557469637,-1.5117003824252244
1.6577134811659695,12.482740442446264,-0.021552945088596485,0.15349648464042037,-1.4531118792349054
1.6534680642116129,12.453353822939793,-0.020901224454969457,0.14036971042430327,-1.3870715967003744
1.6493598905585203,12.426572071146222,-0.020180512075954834,0.12744780751140972,-1.3132052023849798
1.6454036462885941,12.402352776683738,-0.01938193062330895,0.11474513711342738,-1.2311863586703855
1.6416159797455765,12.380650730558713,-0.01849473480686785,0.10227532413682852,-1.140770634080504
1.6380159486317685,12.36141818824429,-0.017505576331210863,0.09005009900742172,-1.0418419515920414
1.6346256519550657,12.344605404994024,-0.016397390435816162,0.07807773349524216,-0.9344733415554285
1.6314711432411597,12.3301615164027,-0.015147696703245365,0.06636115241800394,-0.8190009619488703
1.6285837754134849,12.318035792050992,-0.013725981573501998,0.05489609109907918,-0.6961038388349909
1.6260022206691864,12.308179159375033,-0.012089565869483515,0.043670235660515616,-0.5668698986931966
1.6237756017273117,12.30054560726093,-0.010176623549264924,0.03266528548053322,-0.4328123047712241
1.6219686972360983,12.295092499318628,-0.007892421362868295,0.021865793942465888,-0.29578600502735775
1.620672120662694,12.29177742984167,-0.005073344371174264,0.01128490082710782,-0.15775726878417753
1.620031456685504,12.290542663950372,-0.0013332954007247658,0.0010627580858584996,-0.020440375133574717
