x,y,v_x,v_y,omega
2.375,32.48,0.0,3.0256410256410255,-4.938775510204081
2.3738841852275874,31.881922824896456,-0.01115814772412453,2.9551307253943753,-4.627400556721739
2.3706995749541058,31.297662669669716,-0.020687955010694453,2.8874708268730345,-4.345346820625544
2.3657490921137447,30.726668178562292,-0.028816873392914916,2.8224740842011986,-4.0890250519817375
2.3592936217856497,30.168423715516923,-0.03573782988803565,2.7599705462525175,-3.855367003564972
2.351558337119078,29.622446121300474,-0.04161501677768282,2.699805395911964,-3.64173904365856
2.342737974687442,29.088281867793384,-0.0465886075386757,2.6418371391589197,-3.4458718304535005
2.33300125203154,28.565504546433488,-0.05077861902034515,2.585936074440055,-3.265802735493371
2.3224945811131463,28.05371264010131,-0.05428809016358973,2.5319829888817074,-3.099828455971798
2.311345201079672,27.55252753723115,-0.05720571017115511,2.479868039819918,-2.946465820976337
2.299663829995323,27.06159175434243,-0.05960800067233571,2.4294897890672615,-2.8044192256116034
2.287546916458616,26.580567339025208,-0.06156113469473414,2.3807543641049476,-2.6725534551362267
2.2750785571427974,26.10913443005835,-0.06312245846344819,2.3335747255636483,-2.5498709144637903
2.2623321343995135,25.646989955067014,-0.06434176896939321,2.2878700243497128,-2.435492475194665
2.2493717185036686,25.193846449143784,-0.06526238998905516,2.2435650348825726,-2.3286413063763662
2.2362532713910226,24.749430980320426,-0.06592208113740322,2.2005896533510163,-2.228629176503025
2.223025682467149,24.31348416980234,-0.06635380810133719,2.1588784518298403,-2.1348448103742763
2.2097316619508174,23.885759296555136,-0.06658639706197783,2.118370280642207,-2.046743960996354
2.1964085130257547,23.46602147723142,-0.06664509218864655,2.079007912594975,-1.9638409180137684
2.1830888006308973,23.054046913599848,-0.06655203175992794,2.0407377237207256,-1.8857012234868824
2.1698009318777483,22.649622200629622,-0.06632665577156101,2.0035094059815544,-1.811935405700645
2.156569660730785,22.252543689225018,-0.06598605569807613,1.9672757080644714,-1.7421935740548269
2.14341652763254,21.862616898322955,-0.06554527528437215,1.931992200956138,-1.67616074446634
2.1303602431265305,21.479655971682472,-0.06501756977572326,1.8976170654486952,-1.6135527862997774
2.1174170231701996,21.103483175225943,-0.06441462978758462,1.8641108991166009,-1.5541128995699438
2.104600882689391,20.733928431251197,-0.06374677502050032,1.8314365406308573,-1.4976085457707327
2.0919238929672477,20.370828886232815,-0.0630231222009334,1.7995589095529734,-1.4438287677669637
2.0793964076527205,20.014028509278976,-0.062251730944341326,1.7684448599854155,-1.3925818442095776
2.067027261491594,19.663377718614903,-0.06143973066691897,1.738063046655311,-1.3436932322764001
2.0548239453052384,19.318733033731416,-0.060593431196641505,1.708383802179558,-1.297003759503521
2.0427927602519764,18.979956751072763,-0.05971841933597468,1.6793790244069566,-1.2523680313008574
2.0309389539889384,18.64691664134604,-0.05881964329440473,1.6510220728603269,-1.2096530256379932
2.0192668409967194,18.31948566671881,-0.05790148662778983,1.62328767341196,-1.1687368505042544
2.0077799090254933,17.99754171633544,-0.056967833084468136,1.5961518304217395,-1.1295076432217908
1.996480913361276,17.68096735872816,-0.05602212355770662,1.5695917456510198,-1.091862593629988
1.985371960388067,17.369649609829196,-0.05506740617438213,1.543585743338625,-1.0557070756523095
1.9744545817300534,17.06347971540637,-0.05410638040575349,1.5181132008896456,-1.0209538738755493
1.9637298000931103,16.762352946848978,-0.05314143596367823,1.49315448468429,-0.9875224935766727
1.9532097799558072,16.466170682601685,-0.0520587654093516,1.4686681577886116,-0.9519986026982912
1.9429049663265625,16.17483781453897,-0.05098937088309641,1.4446605228385287,-0.918099769586635
1.9328126098358007,15.888260314773255,-0.04993419402452145,1.4211144748186464,-0.8857323976371083
1.9229297893669446,15.606347498080094,-0.04889401066403983,1.3980136921129689,-0.854809302671429
1.9132534432188848,15.329011869735233,-0.047869450816558315,1.375342591335651,-0.8252492038706799
1.9037803965020121,15.056168982074919,-0.04686101635216849,1.3530862852674934,-0.7969762605092333
1.894507385204645,14.787737299183242,-0.04586909662150292,1.3312305436492953,-0.769919649893481
1.8854310773146357,14.523638069157716,-0.04489398227858941,1.3097617566059603,-0.7440131824172962
1.876548091335395,14.26379520344755,-0.04393587751381967,1.288666900495699,-0.7191949500929077
1.867855012495673,14.008135162798279,-0.04299491088339921,1.2679335059970163,-0.6954070053093874
1.859348406917452,13.756586849372308,-0.04207114489881265,1.2475496282626906,-0.6725950669180846
1.8510248339755753,13.509081504647558,-0.041164584519953286,1.2275038189848169,-0.6507082510510127
1.8428808570557573,13.265552612726236,-0.040275184678225925,1.2077851002284028,-0.6296988243495012
1.8349130528938553,13.025935808713083,-0.039402856940793825,1.1883829399031236,-0.6095219775207794
1.827118019658385,12.790168791847393,-0.038547475413909696,1.1692872287537948,-0.5901356173533849
1.8194923839198247,12.558191243096008,-0.03770888197169302,1.1504882587600465,-0.5715001755116959
1.812032806633998,12.329944746935535,-0.036886890886574535,1.1319767028446792,-0.553578432598353
1.804735988252467,12.105372717071234,-0.036081292928735575,1.1137435957983428,-0.5363353561233717
1.797598673060187,11.884420325857839,-0.035291858994063334,1.0957803163356028,-0.5197379511525249
1.7906176528294524,11.667034437203856,-0.034518343313283656,1.0780785702042077,-0.5037551225270147
1.7837897698692342,11.453163542755885,-0.03376048628889955,1.0606303742755188,-0.4883575476532019
1.777111919540219,11.242757701173367,-0.0330180170012517,1.04342804154967,-0.47351755895669256
1.77058105229806,11.035768480316985,-0.0322906554203367,1.0264641670141377,-0.45920903518066497
1.7641941753204375,10.832148902185665,-0.031578114355890044,1.009731614299079,-0.4454073007850732
1.757948353767389,10.63185339044805,-0.03088010117459651,0.9932235030770643,-0.4320890327722834
1.751846559193961,10.43501467771162,-0.03013784455968195,0.9751636242872307,-0.45456264503276883
1.7458890846898252,10.24177662951612,-0.029436900481676753,0.9572168576677627,-0.4787781429350015
1.7400677543107217,10.052116930352476,-0.028776403309357972,0.9393801339686766,-0.5046231942872819
1.7343745709902627,9.866013866452917,-0.028155429895231343,0.9216505050269045,-0.5319881031732282
1.728801727435667,9.683446302025231,-0.027573005650725287,0.9040251392499543,-0.5607655639062739
1.7233416158620618,9.504393656349361,-0.027028110085325935,0.8865013175087625,-0.5908504209395693
1.717986836668803,9.328835881655753,-0.026519681847262985,0.869076429427323,-0.6221394337345996
1.7127302061540863,9.156753441707089,-0.026046623299904283,0.8517479700593291,-0.6545310456039073
1.7075647633576208,8.988127291006684,-0.02560780466475271,0.8345135369447314,-0.6879251555481872
1.7024837761152618,8.822938854558029,-0.02520206775883613,0.8173708275418244,-0.7222228921055817
1.6974807464042467,8.66117000810052,-0.024828229351314176,0.8003176370332648,-0.7573263882210683
1.6925494150529885,8.502803058746462,-0.02448508416126954,0.7833518565073264,-0.7931385561261335
1.6876837658852732,8.347820725943855,-0.02417140751588142,0.7664714715187568,-0.829562861193104
1.6828780293651382,8.196206122688295,-0.023885957685469566,0.7496745610368509,-0.8665030936941504
1.678126685805669,8.047942736905423,-0.023627477909223808,0.7329592967918619,-0.9038631373515319
1.6734244682024695,7.903014412922769,-0.023394698122769484,0.716323943034667,-0.941546733512528
1.668766364750589,7.761405332946424,-0.02318633639603659,0.6997668567287696,-0.9794572397189737
1.664147621102268,7.623099998453714,-0.0230011000871709,0.6832864881983151,-1.0174973813665869
1.6595637424220093,7.488083211407794,-0.02283768671541777,0.6668813822609024,-1.0555689950624514
1.6550104952951683,7.3563400551937335,-0.02269478455299106,0.6505501798796871,-1.0935727621891127
1.650483909546582,7.227855875168196,-0.02257107293287424,0.6342916203756896,-1.1314079310697154
1.6459802800266696,7.10261625870578,-0.022465222266249443,0.6181045442484733,-1.1689720259993517
1.6414961684240676,6.980607014614776,-0.022375893759769054,0.6019878966615735,-1.2061605412622038
1.637028405166178,6.861814151782777,-0.022301738819126133,0.5859407316584039,-1.2428666180910743
1.6325740914721365,6.746223856898435,-0.022241398121290095,0.5699622171850167,-1.2789807023446083
1.628130601626678,6.633822471079107,-0.02219350033329338,0.5540516410082615,-1.3143901804772542
1.6236955855482973,6.524596465215101,-0.022156660450515044,0.5382084176317974,-1.3489789911576004
1.6192669717310526,6.4185324138190865,-0.02212947772193185,0.5224320963283372,-1.382627209652723
1.6148429706464884,6.315616967143782,-0.022110533123708816,0.5067223704247215,-1.4152106018412838
1.6104220787005499,6.215836821301586,-0.022098386335678767,0.49107908799724714,-1.4466001444497294
1.606003082850222,6.119178686086016,-0.02209157216759721,0.47550226415845365,-1.4766615078300507
1.6015850659961206,6.025629250155809,-0.022088596373418107,0.4599920951436155,-1.5052544973238235
1.5971674132805735,5.935175143197863,-0.022087930782054226,0.4445489744358334,-1.532232449000778
1.5927498194361716,5.847802894633972,-0.022088007661965003,0.4291735112030961,-1.557441575343798
1.588332297347554,5.76349888837775,-0.022087213224209354,0.4138665513591228,-1.5807202563101959
1.5839151880097333,5.6822493130816305,-0.02208388015399829,0.3986292016020765,-1.6018982711815843
1.5794991720899463,5.60404010723834,-0.022076279043872455,0.3834628568308299,-1.620795966795224
1.5750852833273732,5.528856898416638,-0.02206260858185926,0.36836923138618805,-1.6372233582351958
1.570674924036731,5.4566849358168135,-0.022040984324560635,0.3533503946120716,-1.650979159007092
1.5662698830185773,5.387509015228083,-0.022009425856976576,0.3384088112752344,-1.6618497393492864
1.5618723562222452,5.321313395359049,-0.02196584210634506,0.3235473874151187,-1.6696080139714224
1.55748497055822,5.2580817043967905,-0.021908014533904726,0.30876952220745446,-1.674012264625443
1.553110811317584,5.197796835536089,-0.02183357787245719,0.294079166399575,-1.6748049091849906
1.5487534537300416,5.140440830117509,-0.021739998002965052,0.2794808877862278,-1.671711238318645
1.544416999283673,5.085994746938699,-0.021624546460722118,0.2649799440018606,-1.6644381548171117
1.5401061175460278,5.034438516283753,-0.021484270915728194,0.2505823625475847,-1.6526729712426291
1.535826094378626,4.9857507772935,-0.021315960758291983,0.23629502735494717,-1.6360823518096022
1.531582887642831,4.939908697540652,-0.02111610659965579,0.22212577017352622,-1.6143115286175953
1.5273831917825482,4.896887774178797,-0.02088085200317235,0.2080834634450352,-1.5869839867874889
1.5232345130835707,4.8566616169559325,-0.020605934986601588,0.1941781087836028,-1.5537019066071571
1.5191452580246385,4.819201714950179,-0.020286615602721353,0.18042091127394355,-1.5140477859696695
1.515124838072359,4.7844771914323765,-0.019917583920074384,0.16682432390408983,-1.4675878602020056
1.5111837957299394,4.752454555267047,-0.019492839504121517,0.1534020377492048,-1.413878210792794
1.5073339589548271,4.723097463386143,-0.019005528247000185,0.1401688810598499,-1.3524748349208662
1.5035886347479952,4.6963665179447105,-0.018447713821319874,0.12714057335448992,-1.2829494560456496
1.4999628586580571,4.672219134702164,-0.017810047078060495,0.11433325907098396,-1.204913490965396
1.4964737265352734,4.650609536565792,-0.017081274149776376,0.10176272229273206,-1.1180532778906211
1.493140850325249,4.631488947356413,-0.016247487950468174,0.08944316980105974,-1.022180162484635
1.4899870044573365,4.6148060813310785,-0.015290970728656594,0.07738549045229418,-0.9172986986964705
1.4870390688975554,4.600508031117837,-0.01418838486915421,0.06559501168013905,-0.8036936956710028
1.484329438694271,4.588541621377608,-0.01290791716369177,0.05406908572213201,-0.6820297451261299
1.4818981793349453,4.5788551610990105,-0.011404676429562971,0.04279551706383917,-0.553442175587059
1.4797964298117767,4.571400197384179,-0.009612818802122268,0.03175412008445931,-0.4195752802524329
1.4780921565494656,4.566132171809013,-0.007429913820991092,0.02092613566719328,-0.2825001423677222
1.4768816342957254,4.563007171861841,-0.004675308716409842,0.010323863804524297,-0.14444168131356375
1.4763240399363866,4.5619636000392845,-0.0009006348769787301,0.00011185442102700643,-0.007326221483370976
