x,y,v_x,v_y,omega
2.375,32.48,0.0,2.564102564102564,-2.612244897959184
2.3744502697488428,31.947294464002784,-0.00523552620149615,2.5092834930137533,-2.4639137539690474
2.3728745915009997,31.42589708098206,-0.009770933301771308,2.4564058690883823,-2.3280231719400724
2.3704106687415094,30.915411764058298,-0.013694997740995451,2.405359053995057,-2.2032082499476435
2.367178841757038,30.415464765458545,-0.017084306873018387,2.3560409326692464,-2.088281773229519
2.3632844542312115,29.92570297609003,-0.020005098134850317,2.3083570613166122,-1.9822078752406833
2.3588198655542603,29.445792392729015,-0.022514794026590613,2.2622199230740265,-1.88408005090343
2.3538661669626397,28.975416731979305,-0.024663287798366344,2.2175482745422657,-1.7931027307875518
2.3484946492266965,28.51427617335144,-0.0264940239725235,2.1742665695326338,-1.7085757818752583
2.3427680612277597,28.0620862164238,-0.028044909350683572,2.1323044488258223,-1.6298814237473658
2.3367416919847797,27.61857663919502,-0.02934908343960087,2.091596286686388,-1.5564731462988082
2.3304643031761008,27.183490546517856,-0.030435571881152444,2.0520807864294506,-1.4878662923280328
2.3239789346986064,26.756583498991198,-0.03132984219022114,2.0137006185863515,-1.423630029991158
2.3173236021142776,26.3376227139355,-0.03205427766053003,1.9764020962298248,-1.3633804895546868
2.3105319017957022,25.9263863311324,-0.03262858251637776,1.940134882847305,-1.3067748787181928
2.3036335370727037,25.522662736906078,-0.03307012913122952,1.9048517288319406,-1.2535064230163302
2.2966547766028524,25.126249940890155,-0.03339425629592536,1.870508233224466,-1.2033000040051296
2.289618854460037,24.736955000481707,-0.03361452601660068,1.8370626278083677,-1.155908389306796
2.282546319993876,24.354593488551185,-0.033742945089697614,1.8044755810537718,-1.111108966084512
2.275455344307344,23.978989000468218,-0.033790156686793325,1.7727100197363723,-1.0687009038967825
2.268361989189097,23.609972696930438,-0.033765606344134676,1.7417309663377338,-1.0285026847361043
2.2612804434868914,23.247382879454978,-0.0336776860578196,1.7115053905713984,-0.9903499478638511
2.254223231191864,22.89106459571881,-0.033533859609108235,1.6820020735825763,-0.954093605191665
2.247201394897673,22.54086927222056,-0.033340771764140895,1.6531914835436303,-0.9195981897336727
2.240224657785359,22.196654371989116,-0.033104343591231655,1.6250456615177478,-0.8867404053087282
2.233301566848965,21.858283075287485,-0.03282985580299295,1.5975381165930158,-0.8554078504057784
2.226439619706056,21.52562398145804,-0.032522021748523894,1.5706437294017084,-0.8254978930991439
2.219645377020889,21.198550830230914,-0.032185051443542174,1.5443386632375697,-0.7969166772448469
2.2129245622975753,20.876942240973683,-0.031822707826110894,1.5186002820694102,-0.769578243010942
2.2062821505689203,20.560681468499855,-0.031438356256317496,1.4934070748242023,-0.743403747181631
2.1997318943331448,20.24965724705021,-0.030945036465356776,1.4687283675533709,-0.7158365421590468
2.1932859224983403,19.943762437385892,-0.030445171485159402,1.444555534011558,-0.6895788089947522
2.1869454149778775,19.64289275674812,-0.02994061442401023,1.4208699958719577,-0.6645524539592143
2.1807111857229917,19.34694773166852,-0.029432997527282893,1.397654052505194,-0.6406849223655542
2.174583726543401,19.055830519111005,-0.028923756564059058,1.3748908289949398,-0.6179087437251142
2.168563246097124,18.769447738145526,-0.0284141524481056,1.3525642278191543,-0.5961611192058793
2.162649704595559,18.487709311415383,-0.027905290423940292,1.330658883896506,-0.5753835470082007
2.1568428447048413,18.21052831572006,-0.0273981371067043,1.309160122725614,-0.555521481772737
2.151142219067674,17.937820841090037,-0.026893535628221107,1.28805392136985,-0.5365240245737621
2.1455472148201458,17.66950585777959,-0.026392219110143247,1.2673268720629571,-0.5183436404353361
2.140057075434514,17.40550509064873,-0.025894822657780397,1.2469661482309413,-0.5009359006454714
2.1346709201807768,17.14574290044638,-0.025401894044478728,1.2269594727438735,-0.4842592474404894
2.129387761466349,16.890146171544373,-0.024913903235783234,1.207295088227582,-0.4682747788935131
2.124206520283705,16.63864420570608,-0.024431250884636286,1.1879617292799718,-0.4529460520720342
2.119126039969934,16.391168621504434,-0.023954275913183696,1.1689485964500115,-0.43823890273362265
2.114145098459328,16.14765325903299,-0.02348326228306329,1.1502453318494632,-0.42412128000949756
2.1092624191899785,15.908034089579573,-0.023018445044073854,1.1318419962783146,-0.4105630946857735
2.104476680807584,15.672249129956104,-0.022560015740635986,1.1137290477547417,-0.3975360798342574
2.0997865257939594,15.440238361200173,-0.022108127246264247,1.0958973213493748,-0.38501366267090464
2.0951905681338405,15.211943651384153,-0.021662898088203136,1.0783380102317681,-0.3729708466323477
2.0906874001212636,14.987308682286159,-0.021224416317291866,1.0610426478443626,-0.3613841027609567
2.0862755983958996,14.766278879694276,-0.0207927429718892,1.044003091125953,-0.35023126957811973
2.081953729290035,14.548801347131207,-0.020367915179200665,1.0272115047127988,-0.33949146070511155
2.077720353558305,14.334824802800998,-0.01994994893251255,1.010660346051103,-0.32914497956215666
2.0735740305546417,14.124299519572865,-0.019538841578568313,0.9943423513596855,-0.3191732405400518
2.0695164240816903,13.9173143087161,-0.01910502959239721,0.9769453710856782,-0.33555028100991624
2.065547078442946,13.713970338415859,-0.01869826220516634,0.959663869869025,-0.35386132833726136
2.061660312160706,13.514243696366492,-0.018318559530452732,0.9424946258392433,-0.37399526805582484
2.0578504503685093,13.318111133702466,-0.01796583849047042,0.9254345423895711,-0.3958439922945193
2.05411184554935,13.12555003924069,-0.017639921691997698,0.9084806429606919,-0.41930216308582624
2.0504388964837537,12.93653841477563,-0.017340545599395615,0.8916300662303542,-0.44426698301068723
2.0468260655500603,12.751054851343806,-0.01706736805482797,0.8748800616917581,-0.4706379722792235
2.043267894509182,12.569078506377547,-0.01681997519163268,0.8582279856059343,-0.49831675136933734
2.0397590188968553,12.390589081670779,-0.016597887782907602,0.8416712973156625,-0.5272068283620217
2.0362941811379582,12.215566802082005,-0.016400567063730775,0.8252075559107583,-0.5572133901230465
2.032868242489756,12.043992394901508,-0.016227420062006555,0.8088344172368466,-0.588243096485574
2.029476193913928,11.875847069811226,-0.016077804469688414,0.7925496312420495,-0.6202038765870661
2.02611316597089,11.711112499366681,-0.015951033083050077,0.7763510396583839,-0.6530047265064282
2.022774437824208,11.549770799930755,-0.01584637783773414,0.7602365740171038,-0.6865555073334532
2.019455445437791,11.391804512988983,-0.015763073461476765,0.7442042539997814,-0.7207667427819795
2.016151789044046,11.237196586775394,-0.015700320764663937,0.7282521861296287,-0.7555494154303862
2.012859239957206,11.085930358136686,-0.015657289586194993,0.7123785628104463,-0.7908147606376661
2.0095737468026593,10.9379895345606,-0.015633121409487357,0.6965816617237136,-0.8264740571398042
2.006291441230276,10.79335817629185,-0.01562693166082755,0.6808598455977303,-0.8624384132789273
2.003008643177428,10.65202067845561,-0.015637811699630647,0.6652115623664562,-0.8986185477559753
1.9997218657456808,10.51396175310445,-0.015664830507485576,0.6496353457398293,-0.9349245637256649
1.9964278197539835,10.379166411099515,-0.015707036080106904,0.6341298162119469,-0.9712657149693992
1.9931234180306099,10.247619943730701,-0.015763456523453172,0.6186936825386542,-1.0075501627865175
1.9898057795061586,10.119307903973343,-0.015833100852272172,0.603325743721898,-1.043684722135846
1.9864722331706235,9.994216087270342,-0.015914959486157024,0.5880248915447722,-1.0795745954367562
1.983120321958923,9.872330511718733,-0.01600800443480095,0.5727901137086532,-1.1151230923007238
1.9797478066314187,9.753637397527932,-0.016111189160476998,0.557620497632314,-1.1502313333095537
1.9763526697188807,9.638123145603362,-0.016223448101789186,0.5425152349826198,-1.1847979357839256
1.9729331196051625,9.52577431509335,-0.01634369583838559,0.5274736270175063,-1.2187186792948597
1.9694875948256216,9.416577599718874,-0.01647082587152556,0.5124950908346652,-1.2518861484605521
1.9660147686651532,9.31051980268467,-0.01660370899007847,0.4975791666339445,-1.2841893503418276
1.9625135541467056,9.207587809945693,-0.016741191185614897,0.4827255261182042,-1.3155133035021627
1.958983109509484,9.107768561574744,-0.016882091073636384,0.4679339821765329,-1.345738595535157
1.955422844285843,9.011049020944562,-0.017025196770563824,0.4532045000156879,-1.37474090558789
1.9518324260973214,8.917416141400192,-0.01716926216773761,0.43853720993067524,-1.4023904881302638
1.9482117883036159,8.82685683005441,-0.017313002534219787,0.42393242193390435,-1.4285516139501346
1.9445611386537311,8.739357908289417,-0.017455089369445724,0.40939064249460855,-1.453081964110234
1.9408809691064142,8.654906068491456,-0.017594144414524508,0.39491259367643894,-1.4758319724134128
1.9371720670076091,8.573487826480289,-0.017728732716951762,0.3804992350013366,-1.4966441118290577
1.9334355278364614,8.49508946902192,-0.01785735462731373,0.3661517884116896,-1.5153521203965947
1.9296727697588798,8.419696995729986,-0.01797843658774757,0.35187176674957626,-1.5317801624310534
1.925885550259435,8.347296054568186,-0.018090320549823662,0.33766100621993234,-1.545741921540588
1.9220759851592168,8.277871870063265,-0.01819125183320472,0.323521703350747,-1.5570396232153798
1.9182465703702511,8.211409163226147,-0.018279365204565107,0.3094564570027572,-1.565462986835256
1.914400206787507,8.147892062060318,-0.018352668916807268,0.2954683160051511,-1.5707881102668901
1.9105402287793989,8.087304001415934,-0.018409026398509096,0.2815608329889911,-1.5727762953571103
1.906670436809668,8.029627610833902,-0.01844613521797457,0.2677381249351299,-1.5711728304142147
1.9027951348117287,7.974844588930125,-0.018461502857636945,0.2540049408151172,-1.5657057574222009
1.8989191730470547,7.922935562819312,-0.018452418710688537,0.24036673643073259,-1.5560846690258638
1.8950479973214744,7.8738799311065435,-0.01841592153293262,0.2268297560718262,-1.541999605837036
1.891187705622263,7.827655689140652,-0.018348761316699894,0.21340111979380533,-1.5231201620922266
1.8873451134985582,7.784239235614802,-0.01824735414715545,0.20008891378571741,-1.499094962567872
1.8835278298766103,7.743605160352331,-0.01810772796663346,0.18690227919018426,-1.46955175373591
1.879744345542896,7.705726014434397,-0.017925456163979857,0.17385149145680123,-1.4340984684937148
1.8760041373462082,7.67057206601433,-0.017695574280666045,0.16094801730574046,-1.3923257917787288
1.8723177924363312,7.638111048663259,-0.017412472480066884,0.14820452889495359,-1.3438119943763245
1.868697158856322,7.608307914521209,-0.017069752091451416,0.13563484388647504,-1.288131139223152
1.865155532008257,7.58112461270467,-0.01666002741392868,0.12325374484248233,-1.224866223802357
1.8617078916928937,7.55651992530548,-0.016174642256196605,0.11107661134026907,-1.1536294155563236
1.8583712128446432,7.534449409741374,-0.015603251536663929,0.09911877498456725,-1.074092226531074
1.8551648867756447,7.5148655171103265,-0.014933187215702555,0.0873944881682603,-0.9860290873733976
1.85211131192769,7.497717978679237,-0.01414847800291576,0.07591540165164536,-0.8893778429908208
1.8492367489223605,7.482954566990273,-0.013228312524031689,0.06468851919561741,-0.7843191198521684
1.846572592746739,7.470522320323006,-0.012144603434269175,0.053713830016436453,-0.6713712438586136
1.8441573131171478,7.460369219905061,-0.010858059704695092,0.042982364440178195,-0.5514853936773858
1.8420395034775572,7.452446039870889,-0.009311555910451144,0.03247649302813076,-0.42610482801023464
1.8402829502035953,7.446707496575151,-0.007417522889186866,0.02217630026462818,-0.29712677271570553
1.838976262026922,7.443110468084932,-0.005027126412463146,0.012081113927941966,-0.16669364942149098
1.8382582353163675,7.4416017965096195,-0.0018112232118659174,0.0022871867893115936,-0.03677872463677889
