x,y,v_x,v_y,omega
2.375,32.48,0.0,3.3846153846153846,-4.816326530612245
2.3736303392071947,31.778563858674758,-0.013044388502909786,3.29572881848212,-4.464931556813406
2.3697502852042023,31.095353980875515,-0.023908506763681024,3.2110319224630404,-4.152252248638945
2.3637808154015416,30.429523406891477,-0.03294358659499211,3.130211639289709,-3.8728043473641023
2.356075582687122,29.780287511772702,-0.04043958211376972,3.0529873618415055,-3.62201823310476
2.3469325507941736,29.146917661504954,-0.046636912104783844,2.979106450232264,-3.3960657756271067
2.336603423136127,28.528735726973718,-0.05173573225756638,2.9083405453033144,-3.1917236975263856
2.325301324078656,27.925109306724526,-0.055903306385015505,2.840482504689008,-3.0062649697058803
2.3132070871562873,27.33544754137362,-0.059279902399447124,2.775343831986273,-2.8373719119834684
2.300474426242238,26.759197426386287,-0.06198353487721495,2.712752501226417,-2.6830662305115514
2.287234206110714,26.195840548071285,-0.06411379970872357,2.652551101773618,-2.541652365744217
2.273597983228674,25.644890181597034,-0.06575498964403895,2.594595245600194,-2.4116713702815082
2.2596609524281597,25.105888700712125,-0.06697863702752632,2.538752191398945,-2.291863168068807
2.245504407767047,24.578405257427097,-0.06784559784021364,2.4848996494108593,-2.1811355231766756
2.231197804498382,24.062033696746738,-0.06840776662326216,2.43292473802112,-2.0785384088442718
2.2168004922386477,23.55639067704061,-0.06870949299325703,2.3827230687039007,-1.9832427450923527
2.2023631761083293,23.061113971105623,-0.0687887558669178,2.3341979402007427,-1.8945226873264722
2.1879291520262396,22.575860926633233,-0.06867814015298203,2.2872596262029683,-1.8117408145487626
2.1735353538737607,22.10030706781473,-0.06840565177538868,2.2418247434970726,-1.7343356955779956
2.1592132434486944,21.63414482233051,-0.06799539989190966,2.197815689685978,-1.6618114135950441
2.1449895686483336,21.17708236007287,-0.06746816963533687,2.1551601413391595,-1.5937287097933817
2.130887010884711,20.728842531723906,-0.06684190430392704,2.113790604841429,-1.5296974707586173
2.116924739129201,20.28916189681149,-0.06613211241521655,2.0736440133720886,-1.469370335101686
2.1031188850423295,19.85778983214484,-0.06535221222165433,2.0346613644055145,-1.412437235635939
2.0894829512369046,19.43448771262552,-0.0645138240204845,1.9967873929213573,-1.358620726178602
2.0760281627449837,19.019028157370016,-0.06362701875971527,1.9599702761786801,-1.3076719685415052
2.0627637701296444,18.611194334892097,-0.06270052995780055,1.9241613664681543,-1.2593672767521467
2.049697311335629,18.21077932179638,-0.06174193474710965,1.8893149487291627,-1.21350513302743
2.0368348382563024,17.817585510046236,-0.06075780886552411,1.8553880203198017,-1.1699036043039464
2.0241811130660308,17.431424058402847,-0.059753859613255335,1.8223400905696319,-1.1283980998372192
2.0117397785931077,17.05211438409909,-0.05873504012886586,1.7901329980375744,-1.0888394200140032
1.9995135063614016,16.67948369122204,-0.05770564779214617,1.758730743648644,-1.0510920544708569
1.9875041253866663,16.313366532638447,-0.05666940911009366,1.7280993380998435,-1.0150326941934567
1.975712734357942,15.953604402616104,-0.055629553068234486,1.6982066621129361,-0.9805489277365316
1.964139799450801,15.600045357575436,-0.054588874618823106,1.6690223382743974,-0.9475380962564791
1.9527852396953644,15.252543662655466,-0.05354978971866778,1.640517613344358,-0.9159062858511535
1.9416485015480134,14.910959462000125,-0.05251438311324663,1.6126652500398306,-0.8855674388862866
1.9307286240834163,14.575158470868356,-0.05148444988291522,1.585439427405577,-0.8564425686629861
1.9200242960261074,14.245011687847793,-0.05046153161526546,1.5588156489807505,-0.8284590640332912
1.9095339056727942,13.920395125609268,-0.0494469479400983,1.5327706580528038,-0.801550072472387
1.8992555846132102,13.601189558780547,-0.04844182405593992,1.507282359363595,-0.7756539517254268
1.889187246034784,13.287280287644133,-0.04744711478621316,1.4823297466974994,-0.7507137815121887
1.879339941326997,12.978558558831107,-0.046336739573662876,1.457877194378936,-0.7230618355815703
1.869723300169778,12.674919605600184,-0.04525031906651926,1.433922360201297,-0.6967110153229312
1.8603322948810503,12.37626081830987,-0.04418782654041114,1.4104470425635889,-0.6715843924744842
1.8511619121777336,12.082483319790931,-0.04314915158641378,1.3874338957120196,-0.647610450639576
1.8422071694010071,11.793491790916896,-0.042134112953839016,1.3648663792788014,-0.624722644314561
1.8334631282198373,11.509194306399724,-0.041142469723968886,1.3427287113609263,-0.6028589986255831
1.8249249061407065,11.229502180097516,-0.040173931029658,1.3210058248505914,-0.5819617455846053
1.8165876861093413,10.95432981917886,-0.03922816450715314,1.299683326755663,-0.5619769931496611
1.808446724453693,10.683594586540902,-0.038304803641878916,1.2787474602725022,-0.5428544237903461
1.8004973573856786,10.417216670925818,-0.03740345414873342,1.2581850693949572,-0.5245470196248402
1.7927350062516023,10.155118964223771,-0.036523699509135726,1.23798356586263,-0.5070108115159433
1.7851551816971618,9.897226945489962,-0.03566510577125087,1.2181308982689014,-0.49020464979647693
1.7777534868920364,9.643468571239417,-0.034827225706132864,1.1986155231648523,-0.4740899945438806
1.770525619940822,9.393774171616126,-0.03400960240067193,1.1794263780093432,-0.45863072354419304
1.7634673755911665,9.148076352063175,-0.03321177235795151,1.160552855828284,-0.4437929562805115
1.7565746463360785,8.906309900148152,-0.0324332681666948,1.14198478145766,-0.42954489245366045
1.7498434229952347,8.668411697223288,-0.031673620793723725,1.1237123892553444,-0.4158566636959144
1.7432697948495002,8.434320634622974,-0.03093236154660412,1.1057263021762,-0.40270019727460454
1.7368499493935905,8.203977534122547,-0.030209023747773765,1.0880175121135816,-0.39004909070336047
1.73058017176366,7.977325072401715,-0.029503144156326797,1.0705773614181657,-0.37787849628640563
1.724456843889484,7.7543077092740305,-0.028814264169158107,1.0533975255121506,-0.36616501471730856
1.7184764434146493,7.534871619460304,-0.028141930829267872,1.0364699965233415,-0.35488659693926294
1.7126355424226867,7.318964627699053,-0.02748569766561492,1.0197870678695435,-0.34402245355052535
1.7069308060022752,7.106536147001197,-0.02684512538592336,1.0033413197290721,-0.3335529711071329
1.7013589906804236,6.897537119869142,-0.026219782441234706,0.9871256053381071,-0.3234596347363694
1.695922187738406,6.69206219497196,-0.025559293197028814,0.969778441301709,-0.3408301518954647
1.6906202924459124,6.4902182037017795,-0.024934947683862174,0.9525452850809555,-0.3600966383537468
1.685445761382872,6.291981537279661,-0.024346300535570076,0.9354229665582554,-0.38114806337830903
1.6803911529871995,6.097329239640519,-0.023792827042262172,0.9184084395287931,-0.40387639042174006
1.6754491434259555,5.906238981950409,-0.02327393068387217,0.9014987765675098,-0.4281763363290908
1.6706125409499657,5.718689038158811,-0.02278895003984083,0.8846911643048461,-0.45394513807003956
1.6658742988581878,5.53465826150191,-0.02233716511994844,0.8679828990941895,-0.4810823260565005
1.6612275271890558,5.354126061876098,-0.02191780315749985,0.8513713830564075,-0.5094895031306523
1.6566655032477562,5.177072384003804,-0.021530043902496066,0.8348541204892378,-0.5390701283267457
1.6521816810708414,5.00347768631611,-0.02117302444907316,0.8184287146316718,-0.5697293045221159
1.6477696999227145,4.83332292047832,-0.020845843628326078,0.8020928647758364,-0.6013735690985701
1.6434233919123034,4.666589511486123,-0.02054756599463652,0.7858443637212787,-0.633910686734636
1.6391367888126362,4.503259338260644,-0.020277225430766262,0.7696810955690105,-0.667249443441901
1.6349041281610108,4.343314714671102,-0.020033828394236747,0.7536010338552167,-0.7012994409446073
1.6307198587130047,4.186738370913449,-0.019816356824868837,0.7376022400271971,-0.7359708904804992
1.6265786453196616,4.033513435172566,-0.019623770730780404,0.7216828622669362,-0.7711744050722615
1.6224753732938306,3.8836234154941103,-0.01945501046761022,0.7058411346707227,-0.806820789282294
1.6184051523287923,3.7370521817900517,-0.019308998723230348,0.690075376796511,-0.8428208254184857
1.6143633200299945,3.5937839478990163,-0.01918464221770116,0.6743839935942877,-0.8790850551044641
1.6103454451189387,3.4538032536190606,-0.019080833125686834,0.6587654757386346,-0.9155235550637729
1.606347330367016,3.317094946625865,-0.01899645022595726,0.643218400387029,-0.9520457058927837
1.6023650153163984,3.183644164184038,-0.018930359779924903,0.6277414323922792,-0.9885599525109617
1.5983947788449773,3.053436314552542,-0.01888141613837033,0.6123333260029338,-1.0249735548784222
1.5944331416328295,2.9264570579776112,-0.01884846207256297,0.5969929270916421,-1.0611923274584738
1.5904768685888113,2.8026922871573596,-0.018830328822845622,0.5817191759583841,-1.0971203657759694
1.5865229712977027,2.6821281070515752,-0.018825835854380444,0.5665111107633792,-1.1326597582796643
1.5825687105508521,2.564750813897806,-0.018833790306102716,0.5513678716534649,-1.167710281557364
1.578611599026642,2.450546873280313,-0.018852986114944785,0.5362887056559955,-1.202169076775513
1.5746494041913062,2.3395028970816973,-0.018882202793016476,0.5212729724260454,-1.2359303050193722
1.5706801514958273,2.2316056191276203,-0.018920203830593292,0.5063201509461323,-1.268884778995842
1.5667021279509135,2.1268418693125035,-0.01896573469239436,0.4914298472930713,-1.3009195683288526
1.5627138861695047,2.0251985459682906,-0.019017520368641155,0.4766018036042015,-1.331917575428656
1.5587142489750514,1.9266625862083337,-0.0190742624356767,0.46183590839540284,-1.36175707865468
1.5547023146841008,1.8312209339441488,-0.019134635573376912,0.4471322084063753,-1.3903112392226278
1.5506774631836993,1.7388605052331165,-0.019197283478066075,0.432490922174898,-1.4174475680397176
1.5466393629380026,1.649568150569742,-0.019260814099995343,0.41791245557154294,-1.4430273484021292
1.5425879790745398,1.5633306136809502,-0.019323794123461076,0.40339741955982383,-1.4669050102783443
1.5385235827190922,1.4801344863263353,-0.019384742595086588,0.3889466504841309,-1.488927451764695
1.5344467617695154,1.3999661585364649,-0.01944212359135812,0.37456123322892115,-1.5089333032845922
1.530358433323445,1.3228117636455465,-0.019494337799790228,0.3602425276369743,-1.526752130283096
1.526259858003269,1.2486571173884684,-0.019539712868552144,0.3459921986209124,-1.5422035706492927
1.5221526564546641,1.1774876502361913,-0.01957649235625524,0.3318122504483807,-1.5550964040336048
1.5180388283332493,1.1092883320381546,-0.0196028230857901,0.3177050657234077,-1.5652275518377783
1.5139207741386818,1.0440435879273018,-0.019616740671997188,0.3036734496180314,-1.5723810092635044
1.5098013203083598,0.9817372043259311,-0.019616152950117264,0.2897206799188369,-1.5763267148774094
1.5056837480460512,0.9223522237747197,-0.019598820976629974,0.2758505634260211,-1.5768193693609576
1.5015718264374693,0.8658708272040201,-0.019562337200341225,0.26206749915208305,-1.573597224443883
1.4974698504999315,0.8122742021928708,-0.019504100300019644,0.24837654857313957,-1.5663808768926921
1.4933826849341885,0.761542395745888,-0.019421286040389014,0.23478351282668175,-1.5548721229100189
1.4893158145048842,0.7136541502052616,-0.019310813286318264,0.2212950161316544,-1.53875295839967
1.4852754021902932,0.6685867211741332,-0.01916930399549893,0.20791859368861534,-1.5176848546173263
1.4812683565415021,0.6263156768645892,-0.018993035516798176,0.19466278068800588,-1.4913085030292468
1.4773024101239218,0.586814679259664,-0.018777882745870743,0.18153719650177128,-1.4592443166914897
1.473386211558247,0.5500552491350597,-0.018519246451034886,0.16855261420873166,-1.4210941106936268
1.4695294346623125,0.5160065196764876,-0.018211962081673368,0.15572099968244246,-1.3764445782537302
1.465742909731833,0.4846349876576923,-0.017850180113368627,0.14305549573465484,-1.3248734538266558
1.4620387844363063,0.45590427760253505,-0.017427203653553245,0.13057031431449323,-1.2659596351119262
1.4584307257211333,0.42977494391177373,-0.016935260300475253,0.11828048274037087,-1.1992990427572767
1.4549341804359195,0.4062043495161305,-0.016365170987276852,0.1062013686466893,-1.1245286248043076
1.4515667226638365,0.3851466777609076,-0.01570585541351445,0.09434788616496934,-1.0413615799331468
1.4483485323073657,0.366553155939215,-0.01494357655287308,0.08273327404160553,-0.9496373061776442
1.4453030761550558,0.3503725890365743,-0.014060767754839694,0.071367363126368,-0.8493890986713224
1.442458105428384,0.3365523063714946,-0.013034191546795878,0.060254376541074205,-0.7409297926612587
1.4398471534992647,0.3250395793384868,-0.011832017301959931,0.04939064282088453,-0.6249479171695747
1.4375118396310873,0.315783412882233,-0.010409067156872186,0.03876332342916277,-0.502591566697968
1.4355055422689253,0.3087362404045919,-0.00869852676847867,0.028352604929313317,-0.3754939541517027
1.4338997354842817,0.30385425580742265,-0.0065948711805086805,0.018142486472307,-0.24567290361672015
1.4327972095881654,0.30109304284662386,-0.0039053754491720685,0.008154779821031176,-0.11523868964125597
