x,y,v_x,v_y,omega
2.375,32.48,0.0,3.128205128205128,-4.571428571428571
2.374034853653044,31.8924615290413,-0.010159435231119649,3.0564103555706557,-4.287999056229502
2.371278343052585,31.31829463605421,-0.018856465826341443,2.987451675872391,-4.030779454371214
2.366989211599254,30.756977659422784,-0.026292286313983414,2.9211480781425894,-3.7966177944932333
2.361390829448791,30.208021803594978,-0.032638052111940485,2.857334614781678,-3.5828112960967258
2.35467643121702,29.67096826837683,-0.03803982401196966,2.7958604927778152,-3.3870333562039314
2.3470134994678924,29.145385713059454,-0.0426226154525281,2.736587457931356,-3.2072738146827544
2.338547447435397,28.630868004979558,-0.04649372173163659,2.679388416593897,-3.0417898266416095
2.3294047241253875,28.127032211485734,-0.049745471005304964,2.6241462517621197,-2.8890652605293496
2.319695441208068,27.63351680160492,-0.052457507071739254,2.5707527996148776,-2.7477769884268537
2.309515602384996,27.149980029480513,-0.05469869106586288,2.5191079595894204,-2.616766777796079
2.29894900104071,26.676098476256335,-0.056528691505566116,2.4691189164545713,-2.4950177584057194
2.288068840103834,26.211565730780002,-0.057999318356289575,2.420699456980485,-2.3816346436766183
2.276939118492377,25.7560911924987,-0.059155645974835296,2.373769367033211,-2.2758270464996744
2.265615820804849,25.309398982371736,-0.06003696126230087,2.3282538974611566,-2.176895356193449
2.2541479406597134,24.871226949643304,-0.060677566581233536,2.2840832891539216,-2.084218743542311
2.2425783629841334,24.441325763993646,-0.061107461582767704,2.2411923492635397,-1.9972449407022983
2.2309446263776413,24.019458083985498,-0.06135292374872585,2.1995200718748706,-1.9154815066674344
2.219279583245876,23.605397793898277,-0.06143700395407137,2.159009297464284,-1.8384883403823915
2.2076119725707084,23.198929302036312,-0.061379950521374585,2.1196064063458837,-1.765871245105349
2.195966917842352,22.799846894442297,-0.06119957293500558,2.0812610420121875,-1.697276381308995
2.1843663607358046,22.407954138669236,-0.06091155450233663,2.043925860862114,-1.6323854728470752
2.1728294394957386,22.023063332884107,-0.06052972170888606,2.0075563052971632,-1.570911653552845
2.1613728196423145,21.6449949961112,-0.0600662767482067,1.9721103975755159,-1.5125958598530884
2.1500109834782326,21.273577395886512,-0.05953199866318539,1.9375485521580487,-1.4572036901510468
2.138756483926422,20.908646109997186,-0.058936417671661294,1.903833404571688,-1.4045226642684026
2.1276201674270174,20.55004361933186,-0.05828796653259535,1.8709296550633312,-1.3543598266308503
2.116611369946216,20.19761892917556,-0.057594112212684845,1.8388039255292679,-1.306539645526605
2.105738089577515,19.851227216553553,-0.056861470615747596,1.8074246283866287,-1.2609021679784258
2.095007138730529,19.510729501466894,-0.056095906720946234,1.7767618462097854,-1.2173013958024042
2.0844242784899922,19.17599234007343,-0.05530262212681011,1.7467872210898236,-1.1756038534875168
2.073994337376018,18.846887538054613,-0.054486231704494105,1.7174738527924855,-1.1356873227867443
2.063721316436538,18.523291882574583,-0.05365083081635234,1.6887962048920568,-1.0974397225004222
2.053608482346023,18.205086891385797,-0.05280005434696586,1.6607300181477829,-1.060758114967505
2.0436584499644566,17.89215857776735,-0.05193712861688772,1.6332522304674382,-1.0255478233526067
2.033873255621417,17.58439723010018,-0.0510649170993155,1.606340902871186,-0.9917216460017535
2.0242544222274104,17.281697204989143,-0.050185960732337345,1.5799751509291904,-0.9591991560002573
2.0148030171743185,16.983956732936903,-0.04930251351073472,1.5541350811996806,-0.9279060756537569
2.0055197038656836,16.691077735660013,-0.04841657394858042,1.528801732241263,-0.8977737169712032
1.9964047876127349,16.402965654214665,-0.047529912924562004,1.5039570198150394,-0.8687384803921397
1.98745825654127,16.119529287168962,-0.04664409835401632,1.4795836859291898,-0.840741404999854
1.9786865897225672,15.840682245357627,-0.04568923657969817,1.4556483331374876,-0.811621293327692
1.9700950681269815,15.566341107152994,-0.04474783284751808,1.4321531216481218,-0.7837732369522108
1.9616810845413082,15.29642368169042,-0.043820415422727785,1.4090829358526376,-0.7571270613635847
1.9534419416129425,15.030850587354664,-0.042907404875859236,1.3864233203132053,-0.7316171948751542
1.9453748710823238,14.76954512980259,-0.042009127025389635,1.3641604433928134,-0.7071823185793494
1.9374770506958463,14.512433186669671,-0.04112582441121439,1.3422810632695101,-0.6837650464810469
1.9297456190621882,14.259443098524553,-0.040257666469398885,1.3207724961528016,-0.6613116329058255
1.9221776886845872,14.010505565669103,-0.039404758557978106,1.2996225865361355,-0.6397717045881317
1.914770357374855,13.765553550411472,-0.03856714996552164,1.2788196793336735,-0.6190980151163717
1.90752071823138,13.52452218446734,-0.03774484101842289,1.258352593762443,-0.5992462196528615
1.9004258683426656,13.28734868116986,-0.03693778938909743,1.238210598842628,-0.5801746680602236
1.8934829163596552,13.053972252191876,-0.03614591569522261,1.2183833903993182,-0.5618442147555663
1.8866889890639977,12.824334028505373,-0.03536910846959252,1.1988610694586115,-0.5442180437825029
1.8800412370451507,12.598376985322538,-0.03460722857090276,1.179634121939662,-0.5272615077412929
1.873536839586638,12.376045870780814,-0.03386011309765108,1.1606933995521695,-0.5109419793513075
1.8671730088506426,12.157287138150839,-0.03312757886019627,1.1420301018159904,-0.49522871453954664
1.8609469934402494,11.942048881361341,-0.03240942545973385,1.123635759126106,-0.4800927260557472
1.8548560814099204,11.730280773649106,-0.03170543801741363,1.1055022167921502,-0.4655066667101781
1.848897602787031,11.521934009155071,-0.03101538959194765,1.0876216199871531,-0.4514447214158073
1.8430689316604192,11.316961247299503,-0.0303390433197543,1.0699863995451295,-0.43788250729326944
1.8373674878857935,11.115316559780304,-0.029676154307885772,1.052589258551706,-0.42479698116594966
1.8317907384524146,10.916955380048659,-0.02902647130662878,1.0354231596761374,-0.4121663538344071
1.8263361985506434,10.72183445512572,-0.02838973818569873,1.0184813131968913,-0.39997001057504517
1.8210014323756467,10.52991179963275,-0.027765695235319028,1.001757165676477,-0.3881884373580826
1.8157840536987324,10.341146651915267,-0.027154080311148247,0.9852443892444119,-0.37680315232507894
1.8106868612807188,10.155706662641322,-0.026500576720573547,0.9667554978497604,-0.40920696032677895
1.8057096525174878,9.973769447118507,-0.02589109447132971,0.9483730866009307,-0.4429961998404162
1.8008441851706736,9.7953150351428,-0.025324351284612415,0.9300944078801998,-0.4780653951588172
1.7960824633084065,9.620323968332059,-0.024799036739252222,0.9119168217065584,-0.5143109264323347
1.7914167422818084,9.44877727998178,-0.024313816172305408,0.8938377925069119,-0.5516307983945681
1.786839532997958,9.280656475498862,-0.02386733418401371,0.8758548862606254,-0.5899244118096988
1.7823436055620987,9.11594351334281,-0.023458217772401604,0.8579657680136088,-0.6290923366546204
1.7779219923573262,8.95462078640423,-0.023085079119938408,0.8401681997609062,-0.6690360860366028
1.7735679906259971,8.79667110375048,-0.0227465180519471,0.8224600386996372,-0.7096578898268479
1.7692751646136042,8.642077672667583,-0.022441124183767473,0.8048392358571882,-0.7508604669615655
1.7650373473328962,8.490824080926384,-0.022167478771053482,0.7873038351028004,-0.792546795324644
1.7608486420035234,8.342894279198969,-0.021924156274977357,0.769851972554213,-0.8346198780790116
1.7567034232205079,8.198272563548809,-0.02170972565150005,0.7524818763948322,-0.8769825052567036
1.7525963379033496,8.056943557914796,-0.02152275137122062,0.7351918671210925,-0.9195370093496608
1.748522306076591,7.918892196505084,-0.021361794173606664,0.7179803582443108,-0.9621850135634885
1.744476521532221,7.7841037060116065,-0.021225411556602056,0.7008458574765,-1.0048271713037824
1.740454452424375,7.652563587549977,-0.021112157999672292,0.6837869684353984,-1.047362895358044
1.736451841847458,7.524257598222118,-0.021020584915244375,0.6668023929104938,-1.0896900751144505
1.7324647084500922,7.399171732190396,-0.020949240320185553,0.649890933739199,-1.1317047800204834
1.7284893471392118,7.277292201141854,-0.020896668215397773,0.6330514983507269,-1.1733009473283
1.7245223299312644,7.158605414009283,-0.020861407657731156,0.6162831030447654,-1.2143700519983562
1.7205605070108825,7.043097955802146,-0.02084199150418314,0.5995848780829797,-1.254800756436866
1.7166010080616352,6.930756565384296,-0.020836944803685857,0.5829560736838758,-1.2944785375250474
1.712641243938656,6.821568112016866,-0.020844782806620374,0.5663960670259073,-1.333285288157988
1.7086789087591643,6.7155195704632895,-0.02086400855645032,0.5499043703801779,-1.371098890248138
1.7047119824942643,6.612597994428437,-0.02089311002144549,0.5334806405130121,-1.407792755863683
1.7007387341540872,6.5127904880752645,-0.020930556717260854,0.5171246895203792,-1.443235332867555
1.6967577256684598,6.416084175329129,-0.02097479576302386,0.5008364972810656,-1.477289571103093
1.692767816577053,6.32246616664175,-0.021024247304418608,0.48461622574398555,-1.5098123448450884
1.6887681696565806,6.231923522842806,-0.02107729922686894,0.46846423529751574,-1.5406538269128132
1.6847582576283675,6.1444432156565085,-0.021132301070109882,0.4523811035056144,-1.569656809544338
1.680737871107722,6.060012084402459,-0.021187557041949197,0.43636764653701005,-1.5966559668890732
1.67670712797745,5.978616788333738,-0.021241318013547707,0.42042494366003313,-1.6214770538330208
1.6726664843918972,5.900243753989521,-0.02129177236068898,0.4045543652264757,-1.6439360358953397
1.6686167476456317,5.824879116853875,-0.021337035494738244,0.38875760462241243,-1.663838145223429
1.6645590911728863,5.7525086565163015,-0.021375137902584187,0.3730367147204782,-1.680976858410009
1.6604950719809901,5.683117724422626,-0.021404011485794943,0.3573941494234766,-1.6951327931684073
1.656426650864208,5.6166911631883,-0.021421473954014787,0.3418328109378476,-1.7060725231354228
1.6523562157950915,5.55321321632162,-0.02142521098405544,0.3263561034482563,-1.713547313667231
1.6482866089505315,5.492667427076718,-0.021412755800787355,0.31096799386651036,-1.7172917870970774
1.6442211579019255,5.435036525033219,-0.021381465763486564,0.2956730802755844,-1.7170225344730328
1.6401637115872818,5.380302298895195,-0.02132849544329053,0.2804766685457342,-1.7124367036597503
1.6361186817938431,5.328445453939171,-0.021250765540273706,0.2653848573071346,-1.7032106128702216
1.6320910910224393,5.279445452556281,-0.02114492679029411,0.2504046309338045,-1.688998467112999
1.6280866277943402,5.233280336484846,-0.02100731771601151,0.2355439592918338,-1.669431296958426
1.6241117107220724,5.189926529707073,-0.02083391462365014,0.22081190152682845,-1.6441163006403352
1.6201735630367007,5.149358621725504,-0.02062027153815749,0.20621870880546217,-1.612636860767414
1.6162802998098245,5.111549132251689,-0.020361446639487395,0.19177591723470902,-1.574553638588611
1.612441030935099,5.076468260545344,-0.020051909936569474,0.17749641651631007,-1.5294073396524024
1.608665984217414,5.044083626195917,-0.019685423933797734,0.16339447137239976,-1.476724018692557
1.6049666549500659,5.014360013687895,-0.019254884143553242,0.1494856602910062,-1.4160241782686873
1.601355991625908,4.987259141500278,-0.018752098216003953,0.13578667852601398,-1.3468374458676309
1.5978486327271821,4.9627394887892855,-0.018167469139003363,0.12231492895813606,-1.2687253041766655
1.5944612181772029,4.9407562298180245,-0.017489526123937702,0.10908779705515302,-1.1813151594259133
1.5912128131194807,4.921261348243668,-0.016704211325769526,0.09612148267490751,-1.0843497702620097
1.588125504549791,4.904204027270563,-0.01579377361833193,0.08342926441042141,-0.9777561758681537
1.5852252682325148,4.889531427480371,-0.01473502972141779,0.07101915443368798,-0.8617364911456915
1.582543263122689,4.87718994669196,-0.013496603013590246,0.058891169654859785,-0.7368768361148267
1.5801178114078054,4.867126953071363,-0.012034467669395005,0.04703507898302045,-0.6042566170405205
1.5779975167222167,4.859292699974642,-0.010284423757854304,0.035430743087721,-0.4655157930970589
1.576246460078561,4.853641505798933,-0.008147751438519922,0.024055511393441097,-0.32280798258374466
1.5749541230213397,4.850129848236616,-0.005455796532230831,0.012909305052011105,-0.178553654209887
1.574262000189056,4.848703332500424,-0.0018297069654934573,0.0021066500658098106,-0.03495465305231013
