x,y,v_x,v_y,omega
2.375,32.48,0.0,3.948717948717949,-3.959183673469388
2.3736611323447954,31.66308674486033,-0.012751120525758138,3.8314082907074516,-3.6257182994825063
2.369901677542046,30.870139333760275,-0.023053210928999146,3.7204718150073606,-3.3349463616179427
2.3641881862620417,30.099875437798826,-0.03136099173770857,3.615374813196913,-3.079906881732233
2.3569012735209633,29.35111847709985,-0.038038177224940906,3.51564386012666,-2.854965312007472
2.348352644715993,28.622785882418146,-0.04337733520335023,3.4208570416038593,-2.6555287987840073
2.338798445843571,27.913879030831293,-0.04761503501019168,3.3306367830328365,-2.477828943734999
2.3284498003906653,27.223474556794745,-0.050943493112720124,3.2446439220771537,-2.3187546133951855
2.317481176521613,26.5507168049162,-0.05351959135444663,3.162572762480429,-2.175722225161373
2.3060370691179073,25.894811239098935,-0.05547190772846124,3.084146911969684,-2.046574350314355
2.2942373644313387,25.25501865916476,-0.056906232143621935,3.009115754070083,-1.9294998926846725
2.2821816685505096,24.630650104027772,-0.057909919102368416,2.9372514377107737,-1.8229708348004954
2.269952816183642,24.021062342236164,-0.05855534153446539,2.8683462936378814,-1.7256917987346934
2.257619727526171,23.425653867827197,-0.05890264567954738,2.8022106054951115,-1.6365595869165994
2.2452397440052785,22.843861333085243,-0.059001959281330646,2.738670677761585,-1.5546305455191034
2.2328605454486894,22.275156360773945,-0.05889516982904333,2.6775671537745858,-1.4790940969237207
2.220521729513141,21.719042687332383,-0.05861736289046052,2.6187535456688824,-1.4092511655239301
2.2082561174183857,21.17505359582858,-0.05819799039292912,2.562094944843528,-1.344496506381273
2.196090836976148,20.6427496034891,-0.05766182334266991,2.5074668869610006,-1.2843041631252172
2.184048223695954,20.121716373627766,-0.057029731706791376,2.454754349813636,-1.2282154474439604
2.172146572728899,19.611562825978197,-0.05631932512230481,2.4038508658965556,-1.1758289602836922
2.1604007680774187,19.111919422948823,-0.05554548108227209,2.354657734383169,-1.1267922738183906
2.1488228104757012,18.622436612286457,-0.05472078179122393,2.307083319544149,-1.0807949703000577
2.1374222613431355,18.142783409152667,-0.05385587661416757,2.261042424587176,-1.0375627942145649
2.1262066170111185,17.672646102763206,-0.052959783690752674,2.2164557315029283,-0.9968527216244669
2.1151816248513358,17.211727074576636,-0.05204014164051186,2.173249298845371,-0.9584487881003876
2.104351550859293,16.75974371659531,-0.051103420188466836,2.131354110500591,-0.9221585464456293
2.093719406567941,16.31642743970077,-0.05015509687202578,2.0907056694473876,-0.8878100491979555
2.0832871418023657,15.881522763120643,-0.04919980565726832,2.0512436313157236,-0.8552492699474054
2.0730558086748436,15.454786477143227,-0.048241462223893604,2.0129114732311106,-0.8243378928416074
2.063025701310459,15.03598687208245,-0.04728336981786183,1.9756561940143704,-0.7949514120369129
2.053196475047609,14.624903027269074,-0.04632830887594812,1.9394280423034884,-0.7669774928994171
2.0435672482439853,14.22132415452015,-0.04537861306332708,1.9041802695910095,-0.7403145549374617
2.0341366893120534,13.825048991131634,-0.04443623390745433,1.8698689055377304,-0.7148705431279743
2.0249030911887744,13.43588523795992,-0.043502795838056545,1.8364525532405067,-0.690561859776028
2.0158644350963413,13.053649038616989,-0.042579643137497486,1.8038922024064343,-0.6673124335523484
2.007018445161122,12.678164496208812,-0.041667880055066144,1.7721510586238411,-0.6450529060716907
1.9983626352164372,12.309263224404898,-0.04076840513241114,1.7411943871277298,-0.6237199194533203
1.9898943489127392,11.946783929944495,-0.039881940617092056,1.7109893696380112,-0.6032554908612195
1.9816107940894074,11.59057202396679,-0.03900905770035307,1.681504973006809,-0.5836064621509547
1.9735090722200412,11.24047925980338,-0.03815019819837357,1.6527118285494622,-0.5647240145288563
1.965586203623309,10.89636339509488,-0.03730569319907803,1.6245821210552938,-0.5465632396192147
1.9578391490302693,10.558087876293065,-0.03647577911558401,1.5970894865810306,-0.5290827595868366
1.9502648280135662,10.225521543788549,-0.03566061151968427,1.5702089182238934,-0.5122443900164911
1.9428601347114312,9.898538356063817,-0.03486027707207777,1.543916679154493,-0.49601284014095726
1.9356219512179211,9.577017131414962,-0.03407480381849206,1.5181902222631842,-0.480355445762969
1.9285471589584926,9.260841305914266,-0.033304170080827956,1.4930081158386792,-0.4652419308558773
1.9216421741577354,8.949899417289394,-0.03245758992638441,1.4683432043982012,-0.44804424212321536
1.91491256998034,8.644084132336001,-0.031633878429762216,1.4441833189674549,-0.4316585140421771
1.908353597009513,8.343291339668994,-0.030832530816208806,1.4205099445278606,-0.41603659300389195
1.9019606136802494,8.047420724490603,-0.03005302470058824,1.3973054381234746,-0.4011337233807203
1.8957290894253762,7.756375590854521,-0.029294825345821167,1.3745529774582652,-0.3869082698227643
1.8896546068013536,7.470062694346883,-0.028557390121062162,1.3522365130906755,-0.3733214652658912
1.8837328627501955,7.1883920844592915,-0.027840172270919745,1.3303407239340115,-0.3603371819976755
1.8779596691321434,6.911276955987436,-0.02714262409148088,1.3088509757979576,-0.3479217234290735
1.8723309526449998,6.6386335088419415,-0.02646419959560111,1.287753282730545,-0.3360436344837594
1.8668427542299164,6.37038081570638,-0.025804356738525366,1.2670342709414864,-0.32467352874885536
1.8614912280495328,6.106440697021267,-0.02516255926512885,1.246681145107219,-0.3137839307345548
1.8562726401123686,5.846737602813082,-0.02453827823167235,1.2266816568754983,-0.3033491317695301
1.8511833666070294,5.59119850092382,-0.0239309932477487,1.2070240754031738,-0.2933450582171822
1.846219892000838,5.339752771230106,-0.02334019347788556,1.1876971597750476,-0.2837491508374486
1.8413788069497836,5.092332105471442,-0.022765378436918605,1.168690133164605,-0.27454025424237294
1.8366568060600004,4.848870412335206,-0.022206058608634956,1.1499926586090858,-0.26569851550298434
1.8320506855352072,4.609303727471648,-0.021661755913204326,1.1315948162819505,-0.2572052910619832
1.827557340739546,4.373570128135729,-0.021132004045475435,1.1134870821553908,-0.24904306119280417
1.8231737637009306,4.141609652174214,-0.02061634870324151,1.0956603079542642,-0.24119535132214742
1.8188970405762797,3.913364221096387,-0.020114347722005946,1.0781057023107525,-0.23364665960117745
1.814724349096761,3.6887775669849496,-0.019625571130552095,1.060814813036275,-0.2263823901712912
1.8106529560083855,3.4677951630205968,-0.019149601139691653,1.0437795104337482,-0.21938879162451935
1.806680214520854,3.2503641574092264,-0.018686032074893794,1.0269919715792992,-0.21265290020701247
1.8028035617754754,3.0364333105150614,-0.01823447026204688,1.0104446655079993,-0.20616248735734236
1.799020516341154,2.8259529350161863,-0.017794533874346024,0.9941303392431983,-0.19990601121009988
1.7953322954964968,2.619008503226624,-0.017331378931913548,0.9767690111335725,-0.21923162860244488
1.7917380814639792,2.415698008748379,-0.016899230901586123,0.9595214124687458,-0.2404184616939432
1.7882313847229843,2.2159978993091585,-0.016497880917413835,0.9423843917142967,-0.26335834061767205
1.7848057689913144,2.0198852717376496,-0.016127030812775944,0.9253549184905391,-0.2879459917563302
1.7814548691314274,1.8273378470478043,-0.015786301186147135,0.908430078555614,-0.3140788068982385
1.7781724074314247,1.6383339465355355,-0.015475238813879138,0.8916070691802708,-0.34165661942393605
1.7749522083929952,1.4528524688073183,-0.015193323456878875,0.8748831948979925,-0.37058148664107865
1.7717882121490895,1.2708728676633072,-0.014939974104126175,0.8582558636164082,-0.4007574774065407
1.7686744866254658,1.0923751307603737,-0.014714554692290587,0.8417225830781848,-0.4320904641899166
1.765605238552364,0.9173397589826742,-0.014516379337249051,0.8252809576618164,-0.4644879187420351
1.762574823425398,0.745747746449112,-0.014344717110047157,0.8089286855149573,-0.49785871053557434
1.7595777545082332,0.5775805610884461,-0.014198796386760498,0.7926635560152064,-0.5321129071422797
1.756608710963752,0.412820125713516,-0.014077808798774245,0.7764834475555615,-0.5671615757024548
1.7536625451951264,0.2514487995264929,-0.013980912807184423,0.7603863256541611,-0.6029165846270675
1.7507342894735296,0.09344935998680626,-0.013907236922309336,0.7443702413904475,-0.6392904046506498
1.7478191619250878,-0.06119501502730884,-0.013855882586660442,0.7284333301725475,-0.6761959083237894
1.7449125719460894,-0.21250076483399738,-0.013825926737134606,0.7125738108435247,-0.7135461669968997
1.742010125112429,-0.36048396341197986,-0.01381642405962938,0.6967899851372448,-0.7512542443015611
1.7391076276467619,-0.505160336788677,-0.013826408946724215,0.6810802374979701,-0.7892329850813834
1.7362010905048746,-0.646545280430523,-0.01385489716648661,0.6654430352815105,-0.8273947986602659
1.7332867331413722,-0.7846538767178686,-0.013900887247824758,0.6498769293598767,-0.8656514352612921
1.7303609870139165,-0.919500912592035,-0.01396336158508669,0.6343805551559776,-0.9039137543032959
1.7274204988849968,-1.0511008974681175,-0.014041287261767664,0.6189526341400653,-0.9420914832033187
1.7244621339805404,-1.1794680815145,-0.014133616590196341,0.6035919758254567,-0.9800929652005653
1.7214829790656767,-1.3046164744084763,-0.014239287360886912,0.5882974803076618,-1.017824894589798
1.7184803454996418,-1.4265598646876327,-0.014357222791825046,0.5730681413985625,-1.0551920376080697
1.7154517723342537,-1.5453118398281447,-0.014486331164251588,0.5579030504158583,-1.092096937056918
1.7123950295236234,-1.6608858071950792,-0.014625505127465055,0.5428014006978089,-1.1284395985613391
1.709308121316914,-1.773295016025429,-0.014773620650720876,0.5277624929245552,-1.1641171561658052
1.7061892899110722,-1.8825525806232335,-0.01492953559539298,0.5127857413402224,-1.1990235147454111
1.70303701944667,-1.988671504967371,-0.015092087875103343,0.4978706809848686,-1.2330489664664697
1.6998500404374142,-2.091664708957339,-0.015260093165428298,0.48301697606243316,-1.2660797782659095
1.6966273347326588,-2.1915450565508934,-0.015432342117954637,0.4682244295904906,-1.2979977470342505
1.6933681411225683,-2.288325386080416,-0.015607597025765927,0.4534929945001968,-1.328679718886275
1.6900719617075937,-2.3820185430729097,-0.015784587878753534,0.4388227863807039,-1.357997068593097
1.6867385691679075,-2.472637415942536,-0.015962007737306903,0.424214098091914,-1.3858151349397534
1.6833680150846062,-2.560194974975012,-0.016138507341752907,0.40966741650311733,-1.4119926074803724
1.679960639483196,-2.6447043150814196,-0.016312688862153542,0.3951834416531126,-1.4363808599141805
1.6765170817914328,-2.7261787028653472,-0.016483098678449062,0.38076310867000884,-1.4588232251388
1.6730382934284664,-2.8046316286234685,-0.01664821906408696,0.3664076128359247,-1.479154207010233
1.6695255522709305,-2.8800768639856713,-0.016806458626731326,0.35211843823265787,-1.497198624036771
1.665980479274764,-2.9525285259981615,-0.01695614133676026,0.33789739045770417,-1.512770680781874
1.6624050575699552,-3.0220011485612943,-0.017095493947133843,0.32374663395311365,-1.5256729638317073
1.6588016543900725,-3.0885097622528477,-0.017222631575556688,0.30966873453789595,-1.5356953610635895
1.6551730462507663,-3.152069983695192,-0.017335541179740746,0.2956667077701679,-1.542613906021858
1.6515224478532575,-3.2126981157574477,-0.017432062606057546,0.2817440737751439,-1.5461895540365633
1.6478535452628524,-3.270411260013425,-0.01750986682637238,0.2679049191389121,-1.5461669041392316
1.644170534002622,-3.325227442990119,-0.017566430890106472,0.2541539663534021,-1.542272892054422
1.6404781628144893,-3.377165757817963,-0.017599008996873566,0.24049665105462523,-1.5342154963556118
1.6367817839831833,-3.42624652289755,-0.017604598920325964,0.22693920684619048,-1.5216825248752848
1.633087411307296,-3.47249145907238,-0.01757990275479083,0.21348875672361062,-1.5043405854656509
1.6294017870591402,-3.5159238864555107,-0.01752128056098016,0.2001534088300263,-1.4818343997838301
1.6257324596389897,-3.5565689413643966,-0.01742469486902188,0.18694235220695016,-1.4537866989976242
1.6220878741615374,-3.59445381256581,-0.017285643011477992,0.1738659449493396,-1.4197990577568347
1.6184774790157404,-3.629607993911023,-0.017099072662779723,0.16093578214790832,-1.379454193728661
1.614911852684796,-3.662063546992833,-0.016859273346212424,0.14816472339315548,-1.332320506507209
1.6114028570866235,-3.691855362029578,-0.016559732350671114,0.13556684838534133,-1.2779599796288066
1.6079638268744674,-3.7190213968970696,-0.016192936336527734,0.12315729320980048,-1.2159410528901706
1.6046098093165093,-3.7436028620155426,-0.015750088024978372,0.11095189839471914,-1.1458587085621192
1.601357877863388,-3.7656443016329177,-0.015220687719035604,0.09896657415174019,-1.0673647772381674
1.598227556448096,-3.7851934997216645,-0.01459189718850652,0.08721626478873744,-0.9802121975996468
1.5952414143697378,-3.802301113762489,-0.013847551176811542,0.07571339274292024,-0.8843171853338556
1.5924259287740004,-3.817019921647656,-0.012966597354018776,0.06446572997292922,-0.7798418567485601
1.5898127725026905,-3.829403580401653,-0.011920605229886723,0.05347387720802015,-0.6672945883970046
1.587440788229999,-3.83950489282217,-0.010669721176696135,0.04272909822549216,-0.5476328521594697
1.5853591080726779,-3.8473738554656194,-0.009155804131125284,0.03221340314067814,-0.4223306676258752
1.5836323687448255,-3.853056386658345,-0.007289332324611752,0.02190594155194991,-0.29334430607266837
1.5823506771925988,-3.8565960738389293,-0.004917253887069793,0.011805364929838774,-0.1628947973810609
1.5816561920167276,-3.8580469071489816,-0.0016968906450395894,0.002012095165912076,-0.03302608394460457
