x,y,v_x,v_y,omega
2.375,32.48,0.0,3.7948717948717947,-6.653061224489796
2.3728733164802893,31.69459380238038,-0.020254128759150763,3.6851872300769473,-6.112703085591014
2.3668847629796472,30.93160680380638,-0.036779714104106805,3.581355613484962,-5.639001876724351
2.3577475519132265,30.189862178718673,-0.05024134367132732,3.4828789111598546,-5.2214408361792755
2.3460488173242053,29.468281387818514,-0.06117517622411466,3.3893190974130887,-4.851453845529198
2.332273716487041,28.765872604726116,-0.07001626032030367,3.3002883606097604,-4.522014510180778
2.3168244670404143,28.08172098329731,-0.07711944869518873,3.2154413672836375,-4.227321844129051
2.300035490962196,27.414980388412488,-0.0827755615735565,3.1344690601908582,-3.962557478292795
2.2821855387950665,26.764866307068065,-0.08722398287529719,3.0570936192798253,-3.723696449849281
2.263507452836697,26.130649723611906,-0.09066255006155631,2.98306431839788,-3.507358555094854
2.244196071060532,25.511651791559068,-0.09325537161620263,2.9121540821053244,-3.310690703078065
2.224414657367021,24.90723917024394,-0.09513904451247561,2.8441565970863887,-3.131273166311679
2.204300156841864,24.316819921377263,-0.09642762715568969,2.778883868310536,-2.9670443982485817
2.1839675090254476,23.73983988093942,-0.09721663776255826,2.7161641358593673,-2.816240381192356
2.163513202151149,23.175779437516876,-0.09758628484981015,2.655840087212501,-2.677345422556607
2.143018212874126,22.624150660409512,-0.09760408921707418,2.597767313810028,-2.54905202789578
2.1225504462838742,22.084494730476756,-0.09732702116627681,2.541812971263841,-2.4302280128344655
2.102166767851195,21.55637963437767,-0.09680324962114405,2.487854610632177,-2.3198894201739226
2.081914700836594,21.039398089052348,-0.09607357908934429,2.4357791543709255,-2.2171781167981828
2.061833848415118,20.533165668325704,-0.09517263444852041,2.385481995406617,-2.121343181889492
2.04195708847546,20.037319107642098,-0.09412984116727195,2.336866201580106,-2.0317253811372806
2.0223115800651894,19.551514766349097,-0.0929702389305436,2.289841810734193,-1.9477441641290811
2.0029196132736584,19.075427229786865,-0.0917151590840374,2.244325204144205,-1.8688867336120518
1.9837993285817188,18.6087480358167,-0.09038279036300528,2.2002385479526034,-1.7946988230282195
1.964965327063901,18.15118451242554,-0.08898865266383194,2.1575092938679474,-1.7247768880836971
1.9464291890721988,17.702458714740754,-0.08754599487618946,2.1160697317014567,-1.6587614732215141
1.9281999159803287,17.26230645123516,-0.08606612980828779,2.0758565873994477,-1.5963315578597765
1.9102843070816562,16.830476390139342,-0.08455871684573443,2.0368106611321335,-1.5371997225302916
1.892687281701502,16.40672923814132,-0.08303200106049724,1.9988765007537765,-1.4811080034556665
1.8754121549171652,15.990836984370908,-0.08149301593318703,1.9620021065834774,-1.4278243270666313
1.8584608739068642,15.582582203460507,-0.0799477555934868,1.9261386639917637,-1.3771394346001877
1.841834220816183,15.181757412164416,-0.07840132146062137,1.8912403007329244,-1.3288642221046132
1.8255319870930076,14.78816447462064,-0.07685804733152526,1.8572638663506484,-1.2828274335940575
1.8095531234635989,14.401614051865621,-0.07532160628189097,1.8241687313161938,-1.238873655283766
1.7938958690745466,14.02192509167389,-0.07379510218527327,1.7919166038431587,-1.1968615672249958
1.7785578627846625,13.648924355200673,-0.07228114819457473,1.7604713625684163,-1.1566624155870964
1.7635362391384906,13.282445977263382,-0.07078193414992026,1.729798903501028,-1.1181586745750631
1.7488277111737158,12.922331057414148,-0.06929928456222145,1.6998669998250255,-1.0812428717422289
1.7344286418958161,12.568427279235802,-0.06783470856063151,1.6706451733020697,-1.045816554435103
1.7203351059845835,12.220588555542324,-0.06638944297491765,1.6421045761596211,-1.0117893784323637
1.706542943070234,11.878674697385968,-0.06496448954269779,1.6142178824723614,-0.9790783026273813
1.6930478037248355,11.54255110497045,-0.06356064708014228,1.5869591881516247,-0.9476068759466798
1.679845189151985,11.21208847874561,-0.062178539327957694,1.5603039187516239,-0.9173046046714242
1.6669304854193572,10.887162549116365,-0.06081863907802288,1.5342287443840508,-0.8881063899975252
1.654298992961034,10.567653823339942,-0.059481289096483606,1.5087115011056857,-0.8599520270832673
1.6419459519761257,10.25344734831198,-0.05816672028359428,1.4837311182082402,-0.8327857580334078
1.6298828701142543,9.94443471859432,-0.05671977363899343,1.4592463076742308,-0.8021068469610839
1.6181197406517782,9.640511486198669,-0.05531003076554038,1.4352606675224566,-0.7728710802091437
1.6066488219380437,9.341574745494619,-0.05393681412716697,1.4117559106113426,-0.7449931386039482
1.5954625194701517,9.04752534063255,-0.052599399852757724,1.3887146118845528,-0.718393706267564
1.5845533945300563,8.758267689859842,-0.05129702814815174,1.3661201573793278,-0.6929989812582268
1.5739141707921442,8.47370962016829,-0.05002891221291456,1.3439566968259462,-0.6687402314132384
1.5635377391941163,8.19376221154939,-0.04879424586354151,1.3222090995445006,-0.6455533907387867
1.5534171613245367,7.918339650193101,-0.04759221003721771,1.3008629133725353,-0.6233786922190229
1.5435456715463336,7.647359090018917,-0.046421978326621205,1.279904326381592,-0.6021603333793604
1.5339166780460647,7.380740521976769,-0.04528272167593842,1.2593201311626827,-0.5818461713450872
1.5245237629732595,7.1184066505992405,-0.04417361235077802,1.2390976914804488,-0.5623874444934508
1.515360681812069,6.860282777326876,-0.043093827279606874,1.2192249111135058,-0.5437385181118081
1.5064213621083193,6.606296690164939,-0.04204255085134189,1.1996902047144729,-0.5258566517517184
1.4976999016584642,6.356378559263472,-0.04101897724251587,1.1804824705375914,-0.5087017862137477
1.489190566252537,6.110460838043064,-0.04002231233774298,1.161591064894867,-0.4922363483143378
1.4808877870506976,5.868478169516692,-0.03905177529882449,1.1430057782134284,-0.47642507177791077
1.4727861576621106,5.630367297483648,-0.03810659983057505,1.1247168125774598,-0.4612348327674924
1.4648804309854588,5.396066982295004,-0.0371860351851577,1.106714760647714,-0.4466344987181998
1.457165515862185,5.165517920911654,-0.03628934694125841,1.0889905858603746,-0.43259478927226114
1.449636473586435,4.93866267099574,-0.03541581758969332,1.0715356038149948,-0.4190881482338196
1.44228851430946,4.715445578794476,-0.034564746952926495,1.0543414647684715,-0.40608862556837655
1.435116993370851,4.4958127105921335,-0.03373545246239844,1.0374001371586035,-0.393571768566864
1.4281174075842815,4.279711787521368,-0.03292726931445318,1.0207038920867817,-0.38151452137935093
1.421285391501355,4.0670921235393,-0.032139550522943115,1.0042452886948314,-0.36989513219943604
1.4146167136736016,3.8579045663868605,-0.03137166688423131,0.9880171603760284,-0.3586930674484922
1.4081138735005263,3.652244023935868,-0.030560144287916105,0.9706546724905653,-0.37514777144242645
1.401777152551873,3.4502175673784237,-0.02978957903258994,0.953406818532713,-0.39353295006617284
1.3955980179919076,3.2518014594943168,-0.02905932153851015,0.9362703994111553,-0.41373566370432063
1.3895680808266477,3.0569726216343547,-0.02836865146396356,0.9192423421123036,-0.4356460740152582
1.383679110015406,2.865708607798208,-0.027716784833577424,0.9023196944224241,-0.4591571958591299
1.3779230451487794,2.677987579776385,-0.02710288056286423,0.8854996200711159,-0.4841646572907664
1.372292007815259,2.493788283269719,-0.02652604642304612,0.8687793942780673,-0.5105664666360245
1.366778311769761,2.313090024903328,-0.02598534448645801,0.8521563996875499,-0.5382627856986948
1.361374472009304,2.1358726500549885,-0.02547979608932257,0.8356281226775871,-0.5671557081671872
1.3560732128536583,1.9621165214203593,-0.02500838634539708,0.8191921500331765,-0.5971490423056602
1.3508674751220986,1.7918024982394591,-0.024570068240887043,0.8028461659753825,-0.6281480970231484
1.345750422491307,1.6249119161102819,-0.024163766338079113,0.78658794954058,-0.6600594704165011
1.3407154471140128,1.4614265673163231,-0.023788380112343306,0.7704153723066355,-0.6927908398784625
1.3357561745730475,1.3013286815952583,-0.02344278694446818,0.7543263964654101,-0.726250752850795
1.33086646824117,1.1446009072758052,-0.02312584478770016,0.7383190732436755,-0.7603484172837153
1.326040433113196,0.9912262927090936,-0.022836394526336734,0.7223915416773985,-0.794993490836725
1.3212724191737044,0.8411882679194882,-0.0225732620402499,0.7065420277474046,-0.8300958678217605
1.3165570243608151,0.6944706263977984,-0.022335259987267635,0.6907688438877287,-0.865565462846948
1.3118890971842982,0.5510575069570258,-0.022121189312893023,0.6750703888815499,-0.9013119900675448
1.3072637390545359,0.41093337556728926,-0.02192984049436769,0.6594451481635429,-0.9372447368892027
1.3026763063776532,0.2740830070821758,-0.02175999452356163,0.6438916945518376,-0.973272330896745
1.2981224124714696,0.1404914667632795,-0.021610423630566384,0.628408689437623,-1.009302498698358
1.2935979293568092,0.010144091503413222,-0.02147989174715252,0.6129948844658599,-1.0452418152795564
1.289098989479187,-0.11697352935890137,-0.021367154706391087,0.5976491237466758,-1.0809954423525021
1.284621987416988,-0.24087557374991064,-0.021270960171695958,0.5823703466439113,-1.1164668540632392
1.2801635816340056,-0.3615760072230074,-0.021190047285278787,0.5671575911951211,-1.1515575482811324
1.2757206963366914,-0.4790886041122491,-0.021123146022475323,0.552009998226226,-1.186166741540338
1.2712905234997036,-0.5934269696305918,-0.021068976234551118,0.5369268162341669,-1.220191045531686
1.266870525127447,-0.7046045630830449,-0.021026246358369142,0.5219074071224992,-1.2535241228544194
1.2624584358243214,-0.8126347223841606,-0.02099365176663793,0.506951252888116,-1.2860563195307864
1.2580522657524595,-0.9175306900915174,-0.020969872727284036,0.4920579633724503,-1.3176742715632461
1.2536503040629488,-1.019305641192446,-0.020953571934724004,0.4772272852078354,-1.3482604825759124
1.2492511228950207,-1.1179727129107704,-0.020943391569353324,0.46245911210951157,-1.3776928693324333
1.2448535820476359,-1.2135450368343328,-0.02093794983431239,0.44775349668633746,-1.4058442716679405
1.2404568344394409,-1.3060357737031367,-0.020935836910401646,0.43311066396892345,-1.4325819231228594
1.2360603324864705,-1.395458151242579,-0.02093561026074425,0.41853102688290794,-1.4577668783364797
1.2316638355424367,-1.481825505477687,-0.020935789206244934,0.4040152039276687,-1.4812533930711842
1.2272674185642938,-1.5651513260225727,-0.020934848680831862,0.38956403935696055,-1.5028882526282155
1.2228714821863393,-1.6454493059058066,-0.02093121206159152,0.3751786261976275,-1.5225100444328132
1.2184767644098264,-1.7227333965674916,-0.020923242952816595,0.36086033248506244,-1.5399483707834276
1.214084354142446,-1.7970178687479361,-0.020909235784140962,0.34661083113822644,-1.5550229982822563
1.2096957068537508,-1.8683173800812014,-0.02088740506057545,0.3324321339404695,-1.5675429414456488
1.2053126626494852,-1.9366470503087214,-0.02085587307528654,0.3183266301311379,-1.5773054796540509
1.2009374671109907,-2.002022545137237,-0.02081265586275601,0.30429713014043897,-1.5840951092614535
1.1965727952969545,-2.0644601698775844,-0.020755647128065883,0.2903469150057545,-1.5876824368049864
1.192221779365971,-2.123976974110562,-0.02068259983368099,0.27647979197496525,-1.5878230255032004
1.1878880403529417,-2.180590868722021,-0.02059110505231216,0.2627001567056175,-1.5842562165715808
1.1835757247250984,-2.2343207567142755,-0.020478567593815215,0.24901306226824216,-1.5767039607133182
1.1792895464618447,-2.2851866792061486,-0.020342177770506273,0.23542429479721733,-1.5648697154865088
1.1750348355582374,-2.3332099779360504,-0.020178878454325287,0.22194045501135415,-1.5484374940356957
1.1708175940631087,-2.378413475312364,-0.019985326261185436,0.20856904381071042,-1.5270711941359503
1.1666445610588974,-2.420821672509234,-0.019757845207493817,0.19531854854044,-1.500414399704641
1.1625232884186212,-2.460460965125499,-0.019492370414183703,0.1821985239954113,-1.4680909385198682
1.1584622298132639,-2.497359874275851,-0.019184378208267145,0.16921965838892078,-1.4297066118875232
1.154470846416389,-2.5315492883231343,-0.018828797000064245,0.15639380872806558,-1.3848527006913498
1.150559734269053,-2.563062706302695,-0.01841989011742156,0.14373398155343517,-1.333112118352441
1.146740780666471,-2.591936467773621,-0.01795109657383661,0.13125422293156278,-1.2740694480039154
1.1430273607629422,-2.618209944531962,-0.017414807269293706,0.11896936524308103,-1.2073265870955152
1.139434591762201,-2.641925656474392,-0.016802040356813163,0.10689455801814071,-1.1325263206066198
1.1359796720056115,-2.6631292564331304,-0.01610195732499235,0.09504448920792415,-1.0493867718660526
1.1326823482565065,-2.6818693080302936,-0.015301125999815849,0.08343219266980077,-0.9577500734611871
1.1295655800294375,-2.698196761494927,-0.014382380924651203,0.07206736413621695,-0.8576481102971699
1.1266565105132855,-2.7121640287356286,-0.013323043038700572,0.060954228632352836,-0.7493854648970337
1.1239879194497424,-2.7238236015289843,-0.01209210994742448,0.050089321780556945,-0.6336324414513044
1.1216004476690722,-2.733226304031895,-0.010645716535149702,0.03946022586619521,-0.5115065441868423
1.1195461214070983,-2.7404196216359225,-0.008919295483649803,0.02904756083885416,-0.38459888448301327
1.1178943696105397,-2.7454472893803086,-0.006811674007384494,0.018834989107713723,-0.25488137734824856
1.1167443294327715,-2.748353199080981,-0.0041410895904081795,0.008840341374879282,-0.12443183702442911
