x,y,v_x,v_y,omega
2.375,32.48,0.0,3.435897435897436,-5.673469387755102
2.3738165109674907,31.868833910800806,-0.013149878138990908,3.354836888538038,-5.309187177941664
2.370441421485581,31.271957104783144,-0.024351116104450628,3.2771276227692767,-4.979950399703254
2.36520055214226,30.688786561601663,-0.03388076548800608,3.202545079247215,-4.6813851414139975
2.358373707268213,30.11877777390931,-0.04197306644584547,3.130885895112228,-4.409764259876095
2.3502017232040635,29.561421175849357,-0.04882675648915097,3.061965194442827,-4.1618981730930535
2.340892325197613,29.016239018870692,-0.054610999138075836,2.9956143275423486,-3.9350463270336578
2.3306250154304884,28.48278262228116,-0.059470220496646874,2.9316789678968886,-3.726844995062791
2.319555168798282,27.960629940426834,-0.06352807541675691,2.870017497151178,-3.535248072668911
2.307817477625621,27.449383399496252,-0.06689071539058711,2.81049962429973,-3.3584782799077235
2.295528858875425,26.948667965570376,-0.06964949294492534,2.7530051970988927,-3.194986749627482
2.2827909157151502,26.458129412297993,-0.07188320883590252,2.697423172594237,-3.0434194102103875
2.26969202813984,25.97743276192705,-0.07365998644532709,2.6436507204162494,-2.902588902236064
2.256309133687585,25.50626087769786,-0.07503884080194807,2.591592437685892,-2.771451024334257
2.242709248340393,25.04431318905083,-0.07607099638906797,2.5411596583921914,-2.6490849028835664
2.2289507688930588,24.591304533903248,-0.07680099747020387,2.492269843247591,-2.534676236620884
2.2150845909437398,24.14696410454544,-0.07726764641111972,2.4448460385058697,-2.427503090669428
2.2011550708650103,23.71103448560202,-0.07750479890809545,2.398816394198771,-2.32692381247522
2.18720085538333,23.283270774079657,-0.07754203977723934,2.3541137338274973,-2.2323667203289657
2.1732555985172435,22.863439772841268,-0.07740525873483671,2.3106751688212577,-2.1433212778535857
2.1593485824343017,22.45131924995718,-0.0771171421867394,2.268441752113061,-2.059330518360099
2.145505256152516,22.046697257324023,-0.076697594277542,2.2273581660331527,-1.9799845238632845
2.1317477038298094,21.649371502743108,-0.07616409819697835,2.1873724404214543,-1.9049147967796378
2.1180950525711486,21.259148770335408,-0.07553202689925616,2.148435697441861,-1.83378938944553
2.10456382817098,20.875844384759656,-0.07481491088039297,2.1105019200665036,-1.7663086788027098
2.0911682659443644,20.4992817152092,-0.07402466941533638,2.0735277416052424,-1.7022016918549745
2.077920582740272,20.129291715604808,-0.0731718106301383,2.037472253999108,-1.6412229025593932
2.06483121533947,19.76571249778501,-0.0722656049343222,2.0022968328875517,-1.5831494332789842
2.0519090296884595,19.40838893483147,-0.07131423563246547,1.9679649777072878,-1.5277786042715977
2.0391615047864082,19.057172291961482,-0.07032492994587736,1.9344421652926111,-1.4749257833073546
2.0265948945047145,18.71191988267852,-0.06930407318405558,1.9016957156292027,-1.4244224947048094
2.0142143701626614,18.372494748100543,-0.06825730839431234,1.8696946685705182,-1.3761147531050253
2.002024146294629,18.038765357587636,-0.06718962347271372,1.838409670461759,-1.3298615923666244
1.990027591713477,17.710605328969976,-0.0661054274289747,1.8078128697344567,-1.285533764229375
1.9782273276921043,17.3878931668365,-0.06500861725294475,1.7778778206375325,-1.2430125849944045
1.9666253148432495,17.07051201748667,-0.06390263662321868,1.7485793943605452,-1.2021889115166207
1.955222930070093,16.7583494392747,-0.06279052752296715,1.7198936968835903,-1.1629622303905247
1.9440210347819025,16.451297187189,-0.061674975679149265,1.6917979929575255,-1.125239846409464
1.9330200354154665,16.149251010611696,-0.060558350614580855,1.6642706356791634,-1.088936158252573
1.9222199371706625,15.852110463294377,-0.05944274099435208,1.6372910011799309,-1.053972010954661
1.9116203917541421,15.559778724668707,-0.05832998585587546,1.6108394279941722,-1.020274116084871
1.9012207398261478,15.27216243168483,-0.05722170223295178,1.5848971607155702,-0.9877745317356847
1.8910200487596862,14.98917152043753,-0.056119309616619054,1.5594462975877694,-0.9564101954345239
1.8810171462468168,14.71071907690084,-0.0550240516374865,1.5344697417087927,-0.9261225039606844
1.871210650222055,14.436721196146763,-0.053937015304313995,1.5099511555587435,-0.896856934801556
1.8615989955165153,14.167096849473644,-0.052859148090569553,1.4858749185870355,-0.8685627046315618
1.8521860176008489,13.901769505954121,-0.05172949541683654,1.4622066760743335,-0.8394545265248973
1.8429745214280722,13.640665167836882,-0.050620462058459194,1.4389526363394374,-0.8115681308468062
1.8339607898054815,13.383710517564786,-0.04953211152588175,1.4160990333505052,-0.7848385805786624
1.8251411002941182,13.130834663368901,-0.04846443860037519,1.393632679937102,-0.7592050414633594
1.8165117367602672,12.881969037844428,-0.04741737844241679,1.3715409370014777,-0.7346104812510832
1.8080689993819785,12.637047301893322,-0.046390814649680194,1.3498116846774653,-0.7110013939474518
1.7998092132888102,12.396005253695932,-0.04538458638552255,1.3284332952935214,-0.6883275467441565
1.7917287359925136,12.15878074239875,-0.04439849468443999,1.3073946080084944,-0.6665417475494527
1.7838239637483624,11.925313586228022,-0.04343230802835084,1.2866849049995994,-0.645599631246598
1.7760913369709241,11.69554549475978,-0.042485767276519364,1.2662938890919824,-0.6254594629958238
1.768527344814035,11.469419995095961,-0.0415585900222473,1.2462116627282283,-0.6060819570624214
1.7611285290123464,11.24688236171383,-0.04065047444095981,1.2264287081843306,-0.5874301098024585
1.753891487070844,11.027879549772095,-0.039761102686844026,1.206935868946063,-0.569469045570622
1.7468128748790512,10.81236013167197,-0.03889014388863058,1.1877243321664575,-0.5521658744335681
1.7398894088180352,10.600274236685173,-0.03803725678932738,1.168785612131257,-0.5354895606785549
1.7331178674207297,10.391573493473526,-0.03720209206962157,1.150111534664838,-0.519410801202467
1.726495092639348,10.186210975336408,-0.03638429439017412,1.1316942224142414,-0.5039019129518594
1.7200179907676665,9.984141148033299,-0.035583504184067534,1.1135260809536496,-0.48893672866143456
1.7136835330606552,9.785319820038435,-0.03479935922716571,1.0955997856559536,-0.4744905002073982
1.707488756089216,9.58970409509402,-0.03403149601104964,1.077908269281996,-0.4605398089542576
1.7014307618635807,9.39725232693689,-0.033279550940454074,1.0604447102416905,-0.4470624825295834
1.6955067177552163,9.207924076081529,-0.03254316137470561,1.043202521484545,-0.43403751751170994
1.6897138562437464,9.021680068549706,-0.031821966530514355,1.0261753399801536,-0.4214450075608924
1.6840494745124592,8.83848215644381,-0.031115608261566337,1.0093570167520376,-0.4092660765655831
1.6785109339133375,8.658293280267355,-0.030423731728673672,0.9927416074307894,-0.3974828164126987
1.673101594830529,8.481299642109661,-0.029680035858088795,0.973854372099138,-0.43526570057342784
1.6678216763756777,8.307696456138153,-0.028985724751370782,0.9550699164731695,-0.47423289097909427
1.662662440336265,8.137465451292812,-0.028339120130991678,0.9363856929195176,-0.5142817852603737
1.657615451006752,7.970588806040489,-0.02773853908582016,0.9177992543285028,-0.5553112003323305
1.6526725758169736,7.807049130502595,-0.027182296356162244,0.899308251648089,-0.5972211466207807
1.647825985575781,7.6468294489943105,-0.02666870632375344,0.8809104317772873,-0.6399126032638531
1.6430681543815329,7.489913182910527,-0.026196084723448605,0.8626036358203182,-0.6832872932883634
1.638391859248237,7.33628413389318,-0.025762750090950488,0.844385797705755,-0.7272474577352884
1.633790179493782,7.185926467213644,-0.02536702495855019,0.8262549431779733,-0.771695627674812
1.6292564959347478,7.038824695302186,-0.02500723680849886,0.8082091891715621,-0.8165343930085743
1.6247844899307688,6.894963661354279,-0.02468171879126644,0.7902467435829714,-0.861666166904267
1.6203681423203358,6.754328522940625,-0.024388810213544058,0.7723659054576313,-0.9069929446448418
1.6160017322892621,6.616904735544075,-0.02412685679838528,0.7545650656151464,-0.952416055600494
1.611679836212848,6.482678035942108,-0.023894210717328522,0.7368427077400274,-0.997835906945309
1.6073973265130383,6.351634425348131,-0.02368923039166732,0.7191974099708485,-1.0431517176409564
1.60314937057264,6.22376015221834,-0.023510280057202317,0.7016278470268251,-1.0882612410959231
1.5989314297499515,6.099041694623331,-0.02335572908378134,0.6841327929176968,-1.1330604747792505
1.594739258539021,5.977465742074582,-0.02322395103766969,0.6667111242906177,-1.177443354921257
1.5905689039232185,5.859019176685528,-0.023113322471245777,0.6493618244766487,-1.2213014342689352
1.5864167049729492,5.743689053534766,-0.023022221420635244,0.6320839883095903,-1.2645235406792872
1.582279292742206,5.631462580084769,-0.022949025587621692,0.6148768278014997,-1.3069954141285898
1.5781535905233506,5.522327094493107,-0.02289211017743841,0.5977396787725231,-1.3485993194884918
1.574036814525091,5.416270042634267,-0.022849845358778733,0.5806720085479204,-1.389213632170439
1.569926475045218,5.313278953628217,-0.022820593306478308,0.5636734248526476,-1.4287123934684018
1.5658203782173696,5.213341413646624,-0.022802704780724263,0.5467436860539395,-1.4669648321376325
1.5617166284200743,5.116445037738487,-0.02279451518922283,0.5298827129253513,-1.5038348484373503
1.5576136314467102,5.022577439383319,-0.02279434007037988,0.5130906021320699,-1.539180456543609
1.5535100985470298,4.9317261974413675,-0.02280046992606732,0.49636764166739716,-1.57285318091481
1.5494050514647233,4.843878820125894,-0.02281116432178378,0.4797143285045154,-1.6046974018817268
1.545297828611385,4.7590227055715175,-0.02282464515975448,0.4631313887663219,-1.6345496454600663
1.5411880925355232,4.677145098514199,-0.022839089016487145,0.4466198007594562,-1.6622378121820514
1.5370758388662238,4.598233042531852,-0.022852618420171642,0.43018082126662527,-1.6875803396669657
1.5329614069351905,4.52227332721894,-0.02286329192464386,0.41381601554352,-1.7103852937767
1.5288454923086368,4.449252429583055,-0.02286909281484117,0.39752729152187743,-1.7304493836445134
1.524729161492536,4.3791564488562145,-0.02286791625294344,0.38131693877635925,-1.7475568967888202
1.5206138691118514,4.311971033808412,-0.022857554643553487,0.36518767286587855,-1.76147855216907
1.5165014779076569,4.247681301537206,-0.022835680958607683,0.34914268570307266,-1.7719702717567072
1.5123942819469756,4.186271746587433,-0.022799829715627794,0.33318570262774505,-1.7787718754875388
1.5082950335007503,4.127726139135007,-0.022747375242431114,0.3173210468436508,-1.7816057110690986
1.5042069741186208,4.072027410857508,-0.022675506781231123,0.3015537117952105,-1.7801752401090623
1.5001338705195422,4.019157527027783,-0.022581199875195173,0.28588944186839205,-1.7741636169682349
1.4960800560315346,3.969097343330798,-0.022461183324890725,0.27033482143143256,-1.76323231889657
1.4920504784625899,3.9218264459593897,-0.02231190077449532,0.2548973715842222,-1.747019918692977
1.4880507554848055,3.8773229737553514,-0.02212946564533114,0.23958565290508893,-1.7251411391517752
1.4840872388921305,3.83556342162753,-0.021909607606613164,0.22440937073738648,-1.6971863988875333
1.4801670894926322,3.7965224253491705,-0.02164760794336593,0.20937947679993751,-1.6627221617669514
1.476298364990773,3.7601725293402986,-0.021338219855071994,0.1945082566319561,-1.6212925512604455
1.4724901241222668,3.7264839415137345,-0.02097556757277431,0.17980938588540357,-1.5724229060092147
1.4687525517194686,3.6954242831912403,-0.02055301468053975,0.1652979288089645,-1.5156262592481173
1.4650971116328066,3.6669583481522956,-0.020062986282368682,0.1509902382904046,-1.4504141525984364
1.4615367380480384,3.6410478939322317,-0.01949672021505712,0.13690369748809786,-1.3763137719556187
1.4580860815960945,3.6176515015124835,-0.01884390702876485,0.12305621828688208,-1.2928941237865719
1.4547618361712447,3.596724557252898,-0.018092153247345172,0.10946538459741707,-1.1998047804919154
1.4515831878163914,3.5782194327369368,-0.017226161806579144,0.09614711002436285,-1.0968313414253572
1.4485724519527907,3.562085959927728,-0.01622645890009569,0.08311369896682784,-0.983971470475376
1.445756005246621,3.5482723079666947,-0.015067393390678262,0.07037132282241956,-0.8615326349217153
1.4431656832898683,3.5367263343700195,-0.013713961684353272,0.05791727269620521,-0.7302446971176954
1.440840926973133,3.5273973486019656,-0.012116664057147602,0.0457381247266124,-0.5913636723283949
1.4388321878029793,3.520237888940052,-0.01020266005567136,0.033811427072420124,-0.4467160711403442
1.4372067201486103,3.5152043897525402,-0.00785809165953936,0.022116341677695044,-0.29860547477639265
1.4360602584391864,3.512253836112688,-0.004880371778502363,0.010667587654000187,-0.1494995183259453
1.4355531936558394,3.5113244752189026,-0.0007536813697971295,-0.0003413555008312877,-0.0015171744059285786
