x,y,v_x,v_y,omega
2.375,32.48,0.0,2.358974358974359,-4.326530612244898
2.3743477451571953,32.03610371869946,-0.006865840450575532,2.313618075768168,-4.1159995162028675
2.372466813617939,31.600695262731815,-0.012933438910015796,2.269628829154386,-3.920264343186868
2.3695006519249904,31.1735215726482,-0.018289315752604274,2.2269363296205027,-3.737941381362358
2.3655772373663337,30.754342458977277,-0.023009784864833918,2.1854753932313282,-3.5678024734972995
2.360810889925722,30.342929680325792,-0.027162293457394043,2.1451854346790222,-3.4087548591282726
2.3553038483089184,29.93906611156949,-0.030806565666856495,2.1060100259136365,-3.259823970913986
2.3491476442792822,29.54254499066561,-0.03399558201352197,2.0678965099166593,-3.1201387008588326
2.3424243039990005,29.1531692344176,-0.036776420936810876,2.030795661115036,-2.9889187402640354
2.335207400532882,28.77075081499232,-0.03919098396970104,1.9946613854668669,-2.865463667723495
2.3275629779302984,28.395110190198018,-0.04127662237328506,1.959450454473138,-2.7491435161272957
2.3195503642018833,28.026075781529713,-0.043066680031083125,1.9251222683511282,-2.639390595434683
2.3112228879288943,27.66348349481865,-0.04459096494774885,1.8916386443969155,-2.535692385203796
2.302628511088196,27.30717627901629,-0.045876159691176935,1.858963627206861,-2.4375853412727926
2.2938103888678643,26.95700371922619,-0.04694617947021347,1.8270633179520883,-2.3446494859407894
2.2848073657259396,26.612821660589407,-0.04782248518162309,1.7959057203298334,-2.2565036715650324
2.2756544156584257,26.274491860046933,-0.0485243576343139,1.765460601169907,-2.1728014245136342
2.266383033552045,25.94188166335882,-0.04906913822232421,1.7356993639680893,-2.093227290556815
2.257021583570007,25.6148637050649,-0.04947244053597418,1.7065949338626911,-2.0174936145740765
2.2475956097283056,25.293315629334323,-0.049748336745089196,1.678121652774946,-1.9453376973244296
2.23812811314401,24.977119829878163,-0.04990952203697272,1.6502551836056711,-1.8765192803130493
2.228639799857452,24.666163207295693,-0.049967459926795195,1.6229724225256166,-1.810818316766381
2.2191493026322675,24.360336942396376,-0.04993251086461965,1.5962514185198016,-1.748032992622603
2.2096733797083306,24.059536284189175,-0.04981404622945412,1.5700712994507329,-1.6879779664379506
2.2002270931124444,23.76366035136185,-0.049620549516717946,1.5444122039947739,-1.6304828013510038
2.190823968811444,23.4726119461885,-0.04935970628328581,1.5192552188826136,-1.5753905658592338
2.181476140714849,23.186297379905277,-0.04903848420718667,1.4945823209408033,-1.5225565832459593
2.172200208063515,22.90462934376172,-0.04860291212264245,1.4703443753071317,-1.4694109239221254
2.163010362262862,22.627523570826607,-0.04813230683160537,1.446558497694076,-1.4186159236478577
2.153912847573244,22.35489566318585,-0.04763100569068453,1.423208951156006,-1.3700403575724402
2.1449131241063686,22.08666414624961,-0.04710292553958311,1.4002807008044067,-1.3235617130653239
2.136015943860834,21.82275033914425,-0.046551603360783934,1.3777593739888794,-1.2790655187534674
2.12722541942544,21.56307823241143,-0.04598023280125875,1.3556312231986671,-1.236444732197769
2.118545086093774,21.307574372518378,-0.04539169700575103,1.3338830914650477,-1.1955991804804438
2.1099779580531366,21.056167752722974,-0.04478859815885239,1.312502380065513,-1.1564350485933355
2.101526579239753,20.808789709873594,-0.04417328408729151,1.2914770183490316,-1.1188644110622559
2.0931930693892578,20.565373826756215,-0.043547872233709324,1.270795435518123,-1.0828048027239037
2.0849791657556493,20.325855839631263,-0.04291427127795735,1.2504465342181934,-1.0481788249978041
2.0768862609223997,20.090173550629743,-0.04227420065098603,1.2304196657978015,-1.0149137843729956
2.068915437085438,19.858266744702988,-0.04162920815913453,1.210704607115404,-0.9829413601638983
2.061067497148622,19.630077110843036,-0.04098068591261626,1.1912915387788272,-0.9521972988871518
2.053342992937497,19.405548167311277,-0.0403298847308054,1.1721710247133676,-0.9226211328757294
2.04574225080614,19.184625190632012,-0.039677927178213016,1.1533339929631365,-0.8941559209822635
2.0382653948842036,18.967255148124888,-0.039025819368489735,1.134771717638153,-0.8667480094336691
2.030912368186579,18.753386633766212,-0.03837446165913791,1.1164758019268337,-0.8403468110868365
2.023682951786031,18.542969807183663,-0.03772465834662878,1.0984381621000048,-0.8149046015029594
2.016576782229392,18.33595633560251,-0.03707712646009674,1.0806510124384532,-0.7903763304082896
2.0095933673602357,18.132299338573826,-0.03643250374154804,1.0631068510213812,-0.766719447243734
2.0027321006951038,17.931953335326583,-0.03579135589142198,1.0457984463180106,-0.7438937396265063
1.9959922744861451,17.734874194596117,-0.035154183150244565,1.028718824529017,-0.7218611836555506
1.9893730915902814,17.54101908679115,-0.03452142627990075,1.0118612576285435,-0.7005858050900241
1.982873676253537,17.35034643837062,-0.033893472001619275,0.9952192520612333,-0.6800335505179564
1.976497450559862,17.163024554578207,-0.033224693194960055,0.9765900510167647,-0.703629271521925
1.9702448153354288,16.979231537873247,-0.0325925196938095,0.9580732827197019,-0.7288507851402521
1.9641088912291196,16.7989463078126,-0.03199615510944622,0.9396659810765763,-0.7555837933929895
1.9580829558984663,16.622148336131303,-0.03143474310795656,0.9213652997791956,-0.7837162527239547
1.9521604548450935,16.44881762435059,-0.030907373243335548,0.9031685084388407,-0.8131381259974146
1.9463350111906634,16.278934682081307,-0.030413086276980156,0.8850729891325472,-0.8437411385478445
1.9406004344877292,16.11248050594503,-0.02995087901706589,0.8670762333545812,-0.8754185372592856
1.9349507286538472,15.949436559036279,-0.029519708708006492,0.849175839369096,-0.9080648516477977
1.9293800991118668,15.789784750849737,-0.029118496997050776,0.8313695099629254,-0.9415756559097922
1.9238829592144528,15.633507417596206,-0.028746133502043573,0.8136550506005594,-0.9758473308803861
1.9184539360266215,15.480587302830426,-0.028401479001444296,0.7960303679866135,-1.010776824818988
1.9130878755363254,15.331007538312463,-0.028083368264830582,0.7784934690445701,-1.0462614119037061
1.9077798473599341,15.184751625022418,-0.027790612539289807,0.7610424603243153,-1.0821984472713624
1.9025251490067938,15.04180341424538,-0.027522001704291036,0.7436755478550483,-1.1184851173853025
1.8973193097649297,14.902147088640014,-0.02727630610480645,0.7263910374645861,-1.1550181844481844
1.8921580942683625,14.765767143199735,-0.02705227806958495,0.7091873355909896,-1.191693723500735
1.8870375058054905,14.632648366009892,-0.026848653118540646,0.6920629506178785,-1.228406850759316
1.881953789427513,14.502775818697959,-0.026664150860171723,0.6750164947708827,-1.2650514416441496
1.8769034349160068,14.376134816465871,-0.026497475576735017,0.6580466866194956,-1.3015198368353664
1.8718831796695217,14.252710907584571,-0.02634731649152881,0.6411523542362842,-1.3377025345647555
1.8668900115704679,14.132489852220086,-0.026212347709038228,0.624332439074098,-1.3734878672064164
1.8619211718957005,14.015457600448027,-0.02609122781482602,0.6075860006317748,-1.4087616600687722
1.856974158337096,13.901600269298953,-0.02598259911785354,0.5909122219900361,-1.4434068701132032
1.8520467282021333,13.790904118660258,-0.02588508651333284,0.5743104163120025,-1.4773032021309376
1.8471369018691453,13.683355525840977,-0.02579729593917372,0.557780034417267,-1.5103266997005376
1.842242966577539,13.578940958583612,-0.025717812393523134,0.5413206735549806,-1.5423493080251065
1.837363480640057,13.477646946281471,-0.025645197474711025,0.5249320875201997,-1.5732384055145396
1.8324972781721478,13.37946004913054,-0.025577986398015316,0.5086141982790897,-1.602856300739324
1.8276434744429237,13.284366824911213,-0.025514684435920806,0.4923671092927526,-1.6310596911473887
1.8228014719631274,13.192353793056515,-0.025453762719830905,0.4761911207566977,-1.6576990797178397
1.8179709674382676,13.103407395619296,-0.025393653331326593,0.46008674700349317,-1.682618145545274
1.8131519597298065,13.017513954700714,-0.025332743599841598,0.4440547363500083,-1.7056530642355308
1.8083447589842985,12.934659625845228,-0.02526936951076726,0.42809609370773827,-1.7266317739915356
1.803549997110025,12.854830346843112,-0.02520180811316303,0.41221210631454214,-1.7453731834390205
1.798768639803374,12.778011781309402,-0.025128268798955296,0.39640437298767917,-1.7616863176766342
1.7940020003534884,12.704189256328327,-0.02504688330510288,0.38067483733941937,-1.7753693998628266
1.7892517554842566,12.633347693364808,-0.024955694265757836,0.3650258254344746,-1.786208867058555
1.7845199635284084,12.565471531550749,-0.02485264211159274,0.3494600883977321,-1.7939783212962166
1.7798090852705712,12.50054464235615,-0.0247355500761665,0.3339808504927803,-1.798437420322134
1.7751220078463055,12.43855023455788,-0.024602107021369425,0.3185918631732216,-1.7993307177083135
1.770462072144844,12.379470748330196,-0.02444984773085484,0.30329746553925996,-1.7963864698322267
1.7658331042381379,12.323287737213349,-0.024276130234473097,0.28810265148018305,-1.7893154387053891
1.7612394514532645,12.269981736690081,-0.02407810960629864,0.2730131435015829,-1.77780973640746
1.7566860238276796,12.219532118145906,-0.023852707505121855,0.25803547275290023,-1.761541781271083
1.752178341850122,12.17191692715636,-0.023596576469168115,0.2431770639791815,-1.7401634712865346
1.7477225916147154,12.127112705406404,-0.023306057587743748,0.2284463228624609,-1.713305731196719
1.743325688834465,12.085094296214642,-0.02297712957278714,0.21385272126133326,-1.6805786631472972
1.738995353625127,12.045834634772223,-0.02260534631498122,0.1994068728693886,-1.6415726359217109
1.7347401986654316,12.009304526053327,-0.022185758523915407,0.18512058732950018,-1.5958607975118069
1.7305698344009515,11.97547241625404,-0.021712812681138335,0.17100688424193589,-1.5430037067538949
1.7264949966068612,11.94430416804299,-0.02118021673033857,0.15707993903226086,-1.48255707210637
1.7225277042156169,11.915762856478874,-0.020580755809074792,0.14335491953736923,-1.414083979452358
1.7186814594217896,11.889808611890267,-0.019906031494370802,0.12984765507954724,-1.337173495586585
1.714971508609548,11.866398548969293,-0.01914608231869787,0.11657405987806273,-1.2514681221230666
1.7114151930392194,11.845486837858225,-0.01828881842160324,0.10354921497530888,-1.156703121500303
1.7080324346864766,11.827024991348836,-0.01731916423884743,0.09078601143929588,-1.0527609008312557
1.7048464285381983,11.810962456335968,-0.01621774258513461,0.07829330448561551,-0.9397426495288458
1.7018846534254752,11.797247592135825,-0.014958837548793695,0.06607368709483107,-0.8180558000848496
1.6991803792923938,11.785829061540603,-0.013507205957325463,0.05412137180224298,-0.6885073221824314
1.6967749654881472,11.77665749566226,-0.011812939350534185,0.04242142691716316,-0.5523771834963899
1.694721499044637,11.769686927575215,-0.009802496896940831,0.030952973999082686,-0.41142488980532066
1.6930910645733475,11.764874729890941,-0.007359971221896607,0.01970173846694402,-0.26776548269356903
1.691985954784156,11.762176744683735,-0.00427276340117388,0.008698105819438667,-0.12356007655577123
