x,y,v_x,v_y,omega
2.375,32.48,0.0,2.0,-4.6938775510204085
2.374498024034675,32.123115822939646,-0.005577510725830772,1.9653797451149932,-4.501715180685859
2.373042991847461,31.77238661815097,-0.010589513576549879,1.9316114192036478,-4.32051137895294
2.370732042636655,31.427662467328478,-0.015087699876851294,1.8986569232684722,-4.149416740524532
2.3676534744961315,31.088800090270045,-0.019118612795629562,1.866480599603027,-3.9876622560099193
2.3638876191754123,30.755662425018123,-0.022724224101250703,1.8350490143071996,-3.834550445459391
2.359507619600162,30.428118244878476,-0.025942437845972652,1.8043307650222082,-3.6894476101012015
2.3545801223621443,30.106041808097405,-0.02880753146533824,1.7742963103230363,-3.551777042778474
2.349165895653305,29.78931253656757,-0.031350543077318896,1.744917817786242,-3.421013063106789
2.3433203816626134,29.47781472042645,-0.0335996123748111,1.7161690282262099,-3.2966757643521687
2.3370941912263814,29.171437245827565,-0.0355802813611017,1.6880251339836256,-3.178326376355835
2.3305335474829723,28.870073343516502,-0.0373157602323303,1.6604626694726419,-3.0655631632074094
2.3236806843987625,28.5736203561425,-0.03882716292555798,1.6334594124607351,-2.958017786346112
2.3165742052778526,28.281979522491014,-0.04013371619566014,1.6069942947779907,-2.8553520737904585
2.3092494057220945,27.995055777040513,-0.041252945534987845,1.5810473213386589,-2.7572551446129876
2.3017385649530695,27.71275756343378,-0.04220084078751368,1.555599496513932,-2.663440844870561
2.2940712089295108,27.43499666061516,-0.04299200391869057,1.5306327570263045,-2.573645457201145
2.286274348280424,27.161688020524572,-0.043639781071164674,1.5061299106468882,-2.4876256513900366
2.278372693716088,26.89274961635995,-0.0441563807547901,1.4820745800711583,-2.405156647543275
2.270385172161444,26.628106356425967,-0.04459385874125928,1.4584060858619505,-2.3244305118471766
2.2623276220141912,26.36768577485461,-0.04493447622821363,1.435155931597595,-2.247120093734524
2.2542167281261607,26.111413849537087,-0.0451865669721241,1.412309905263782,-2.17304219590267
2.2460677376732305,25.859219060414695,-0.04535777139376647,1.3898544183183483,-2.1020253217454803
2.237894579493599,25.61103228045063,-0.04545509726880399,1.3677764701712736,-2.0339088052168464
2.2297099730178456,25.366786672771184,-0.04548497468401443,1.3460636151558811,-1.9685420144821693
2.221525527769918,25.12641759354694,-0.045453305848513294,1.324703931780183,-1.9057836223167142
2.2133518343180625,24.889862500220566,-0.04536551028321519,1.303685994068391,-1.8455009369582345
2.2051985474657334,24.657060864720496,-0.04522656585377519,1.2829988448212724,-1.7875692877818041
2.197074462393379,24.427954091328928,-0.04504104606127329,1.2626319706405713,-1.7318714607487133
2.188987584391463,24.20248543889931,-0.04481315396001813,1.242575278577418,-1.678297179098338
2.180945192762158,23.980599947142345,-0.044546753032256386,1.222819074277739,-1.6267426252105022
2.172953899410941,23.762244366721507,-0.04424539531460012,1.2033540415093553,-1.5771099999732452
2.1650197025990234,23.547367092918734,-0.04391234704003964,1.1841712229658983,-1.5293071163533696
2.157148036282541,23.335918102649124,-0.04355061203198982,1.1652620022520161,-1.4832470241900986
2.149343815424038,23.127848894619795,-0.043162953062486104,1.1466180869627356,-1.438847663520336
2.141611477625562,22.923112432443183,-0.04275191136502663,1.1282314927773727,-1.3960315440015019
2.1339550214001104,22.721663090528658,-0.04231982447332028,1.1100945284951762,-1.3547254482282824
2.126378041368906,22.52345660258895,-0.04186884254006313,1.092199781946003,-1.314860156946012
2.118883760645588,22.328450012609473,-0.04140094327458029,1.0745401067148468,-1.2763701943485268
2.1114750606446693,22.136601628138976,-0.04091794562451957,1.0571086096240416,-1.239193591814584
2.1041545085301503,21.947870975769877,-0.04042152231457975,1.0398986389214868,-1.203271668586437
2.096924382500848,21.762218758685485,-0.0399132113443337,1.0229037731273443,-1.1685488280287262
2.0897866950914903,21.579606816159437,-0.039394426537420354,1.0061178104953923,-1.134972368227126
2.082743214652818,21.399998084900474,-0.03886646722560267,0.9895347590486114,-1.102492305795618
2.07579717865535,21.22359509066487,-0.03831171052403998,0.970498510235905,-1.1226057143326913
2.06894864933238,21.05060854955721,-0.03778305973118435,0.9515741687380901,-1.1442663768051735
2.0621929686460154,20.881018574382857,-0.037280059006197984,0.932758888754703,-1.1673565227649942
2.0555255673979524,20.7148057793344,-0.0368021770833914,0.9140499451170159,-1.1917602654097588
2.048941978249687,20.551951258563836,-0.036348813452890795,0.8954447301114856,-1.2173633513328745
2.0424378476770344,20.392436565288374,-0.03591930402102738,0.876940750726983,-1.244052912432018
2.0360089469498375,20.2362436913537,-0.035512926281161275,0.8585356263249636,-1.2717172189387278
2.0296511822225103,20.083355047178312,-0.035128904022472554,0.8402270867349036,-1.3002454325156658
2.0233606038163816,19.933753442001912,-0.034766411601183954,0.822012970780646,-1.3295273583441662
2.017133414770662,19.78742206435944,-0.03442457779569672,0.8038912252468366,-1.3594531950927602
2.0109659787352716,19.644344462700367,-0.03410248926419864,0.785859904298419,-1.389913281617076
2.0048548272756563,19.504504526070185,-0.033799193620414905,0.7679171693702536,-1.4207978391924465
1.9987966666571926,19.36788646476751,-0.03351370214029203,0.7500612895484036,-1.4519967080222451
1.992788384174711,19.23447479088589,-0.03324499210950509,0.7322906424695338,-1.4833990766969372
1.9868270540911697,19.104254298644307,-0.03299200881873027,0.7146037157702942,-1.5148932032005604
1.9809099432485302,18.97721004440377,-0.032753667210597685,0.6969991091245841,-1.5463661259723653
1.9750345164134573,18.85332732626036,-0.032528853179101154,0.6794755369133063,-1.5777033634311977
1.969198441420632,18.732591663096073,-0.03231642451895659,0.6620318315787452,-1.6087886002585883
1.9633995941772222,18.614988772958817,-0.03211521151893099,0.644666947724141,-1.6395033586132834
1.9576360635934664,18.500504550631074,-0.03192401718946683,0.6273799670285324,-1.6697266523152705
1.9519061565064284,18.389125044233317,-0.03174161711095556,0.6101701040576393,-1.699334621891866
1.946208402666818,18.280836430692407,-0.03156675888471628,0.5930367130636175,-1.7282001482234204
1.940541559862429,18.17562498988747,-0.03139816116405192,0.5759792958801114,-1.7561924423639723
1.9349046192562787,18.07347707726517,-0.03123451223761751,0.5589975110343304,-1.7831766089464152
1.9292968110230433,17.974379094692726,-0.031074468131665152,0.5420911842150551,-1.8090131804181433
1.9237176103739642,17.878317459290447,-0.030916650191434265,0.5252603202547099,-1.833557619200195
1.918166744068192,17.785278569955068,-0.030759642094924336,0.5085051168050283,-1.8566597847330735
1.9126441975176542,17.695248771250768,-0.030601986244383643,0.49182597990946914,-1.8781633622836744
1.9071502226031884,17.60821431430579,-0.030442179471903218,0.47522354170134684,-1.8979052503657758
1.9016853463320398,17.524161314309076,-0.030278667985303154,0.45869868048438867,-1.915714903707867
1.8962503804811748,17.443075704152136,-0.030109841468753402,0.44225254348159465,-1.9314136289382873
1.890846432387486,17.364943183707688,-0.029934026238899115,0.42588657256786605,-1.9448138306214242
1.8854749170652834,17.28974916417686,-0.02974947734112958,0.4096025333302137,-1.9557182060723257
1.8801375708539658,17.217478706873003,-0.02955436945128785,0.39340254782374023,-1.9639188886442367
1.8748364668251467,17.14811645574217,-0.02934678642447878,0.37728913140774134,-1.9691965411261674
1.8695740322096648,17.08164656285119,-0.029124709303099384,0.36126523404760497,-1.9713194037894566
1.8643530681421296,17.018052606006883,-0.028886002558403675,0.34533428644470915,-1.9700423058825303
1.8591767720657533,16.957317497610468,-0.028628398290221513,0.32950025129319566,-1.9651056555534447
1.8540487631958196,16.89942338380876,-0.028349478042373758,0.31376767983692755,-1.9562344320713916
1.8489731115101518,16.844351532992327,-0.02804665179838216,0.2981417736789644,-1.943137216935268
1.8439543708251889,16.792082212732456,-0.027717133590092827,0.28262845143073934,-1.9255053185676503
1.8389976166356585,16.742594554375003,-0.02735791296024572,0.26723441920759944,-1.9030120709982237
1.834108489557948,16.69586640476927,-0.026965721236536046,0.2519672430783746,-1.8753124233217309
1.8292932454433006,16.651874165073167,-0.02653699114843377,0.23683542021162676,-1.8420429880466285
1.8245588135497726,16.6105926173461,-0.026067807668545436,0.22184844342242666,-1.8028227885895975
1.8199128646331646,16.57199474086378,-0.025553846960430362,0.20701685082558122,-1.7572550469731654
1.8153638915180097,16.536051521972375,-0.02499029876351556,0.19235224796781644,-1.70493049240071
1.8109213057679088,16.502731764124057,-0.024371765126494287,0.17786728368013233,-1.6454328620780987
1.8065955556908986,16.47200190887037,-0.02369212461806194,0.16357555247194172,-1.578347520279211
1.8023982734044028,16.443825884475586,-0.022944345231891684,0.14949138524788322,-1.503274448968765
1.7983424625339008,16.41816500689502,-0.0221202199959062,0.13562947675842274,-1.4198472563476852
1.7944427440788528,16.39497796838569,-0.02120998506018308,0.12200428445635997,-1.3277602601878866
1.790715687180755,16.374220961527424,-0.020201758252017154,0.10862912507993153,-1.2268059894495411
1.7871802656596085,16.35584799874562,-0.01908070309405342,0.0955149058290054,-1.1169252820756947
1.7838585027813378,16.339811493648053,-0.017827773331177754,0.08266848414395742,-0.9982708794731479
1.7807763998789299,16.32606315771572,-0.016417814473353033,0.07009080399308591,-0.8712818923941308
1.7779652972883384,16.314555209651196,-0.014816658755442408,0.05777528561272115,-0.7367592061048279
1.7754639099821892,16.30524175406941,-0.01297653353510491,0.045707554184896554,-0.5959197697347985
1.7733214858450066,16.298079896497317,-0.010828179100256694,0.033868641060592834,-0.45039270549892296
1.7716031211680625,16.29302958430513,-0.008264761754678279,0.022245938852600164,-0.3021103896046635
1.7704005061186348,16.290049665145446,-0.005097627683407232,0.010864274032789336,-0.15305640486511193
1.769865203611728,16.289079485676538,-0.000850177948890289,-8.450215603175888e-05,-0.004928025122125562
