x,y,v_x,v_y,omega
2.375,32.48,0.0,2.3076923076923075,-3.7142857142857144
2.3743169588658635,32.000248919400235,-0.006505153658444389,2.2613656027816043,-3.5214764950793613
2.372351813575502,31.53006902305949,-0.012210515773565501,2.216538171892183,-3.343276026875952
2.3692628132619746,31.069153966265795,-0.017208534831458268,2.1731290356667934,-3.1782222419757984
2.3651900122427736,30.61721376806535,-0.021580046303790554,2.131063328146969,-3.025028049816038
2.360257539055464,30.17397359294477,-0.02539588881344461,2.0902716730014257,-2.8825573025400058
2.3545755522903797,29.73917265482549,-0.028718270854025302,2.05068964242027,-2.74980447635883
2.3482419311244396,29.312563227432015,-0.03160193072635798,2.0122572851366396,-2.625877429349276
2.34134374034916,28.89390974766568,-0.03409512427630364,1.9749187126379963,-2.5099827178726972
2.3339585030939523,28.482988000698548,-0.036240468630435584,1.9386217346680354,-2.40141304996156
2.3261553090586014,28.079584377201776,-0.038075665039572985,1.9033175367297648,-2.299536530590801
2.3179957816437935,27.683495194519274,-0.03963411986336149,1.8689603935797794,-2.203787415086534
2.309534923716735,27.294526074752007,-0.04094547944195564,1.8355074137275458,-2.113658136329268
2.3008218587220766,26.912491373678925,-0.04203609193574565,1.8029183107779903,-2.028692411410108
2.2919004813293915,26.537213655244237,-0.04292940704220708,1.771155198123796,-1.9484792659436838
2.282810029704292,26.1685232070172,-0.04364632272064423,1.740182404038474,-1.8726478408411642
2.273585589726348,25.80625759260303,-0.0442054865931085,1.7099663046678975,-1.8008628681801568
2.2642585399934543,25.450261237470336,-0.04462355848207054,1.6804751727863034,-1.7328207208018738
2.254856945200686,25.10038504507652,-0.04491543954429266,1.6516790404881392,-1.66824595515163
2.2454059044226513,24.75648604052989,-0.045094472627466894,1.6235495742416872,-1.6068882792377823
2.235927859929769,24.418427039335427,-0.04517261778093492,1.5960599609436517,-1.5485198878806574
2.2264428714044633,24.086076339038037,-0.04516060626959641,1.569184803793426,-1.4929331160290424
2.2169688597712907,23.759307431809177,-0.045068075951094966,1.542900026957618,-1.4399383681372848
2.2075218242976575,23.43799873622556,-0.044903690464457004,1.5171827881244397,-1.389362287663586
2.1981160361441923,23.122033346665937,-0.04467524433045142,1.4920113981576744,-1.3410461358667796
2.1887781872110494,22.811301550261398,-0.044256650270906854,1.4673390437903144,-1.2912828626425283
2.179531894304639,22.505697704094366,-0.04380328217109623,1.4431737768480786,-1.2438875263508666
2.1703839677390824,22.205117287017806,-0.04331982797706709,1.4194968619762844,-1.1987186292569911
2.161340284650437,21.909459618329517,-0.04281048715288653,1.3962904588645781,-1.1556447330196058
2.1524058862552993,21.61862767548071,-0.04227902137223402,1.3735375682669229,-1.114543630253302
2.1435850650447676,21.332527922709488,-0.04172879968044942,1.3512219819351927,-1.0753015934380545
2.134881443007456,21.05107014981238,-0.041162838770137516,1.3293282361325105,-1.0378126931142087
2.1262980418485835,20.7741673203338,-0.04058383893341082,1.3078415684253855,-1.001978178228229
2.1178373460612043,20.501735428513427,-0.03999421618448315,1.286747877482937,-0.9677059123048863
2.109501359608294,20.233693364385783,-0.0393961309860929,1.266033685637469,-0.9349098598313655
2.101291656888865,19.96996278647555,-0.038791513960852904,1.2456861039838159,-0.9035096178615453
2.0932094285860603,19.710468001576615,-0.03818208892300051,1.225692799815553,-0.8734299883959761
2.0852555229288914,19.455135851143446,-0.03756939352622774,1.206041966214645,-0.8446005875748268
2.0774304828408434,19.20389560386,-0.036954797788512066,1.186722293627674,-0.8169554881457626
2.0697345793969806,18.956678853985046,-0.03633952072446608,1.1677229432766432,-0.7904328920436972
2.0621678419655565,18.713419425103098,-0.035724645289096246,1.1490335222657218,-0.764974830250937
2.054730085369783,18.47405327893818,-0.03511113181350951,1.130644060257315,-0.7405268873998438
2.0474209343696415,18.238518428912982,-0.03449983009260145,1.1125449876016922,-0.7170379488405031
2.0402398457319113,18.006754858159315,-0.033891490266733444,1.0947271148141977,-0.6944599681270782
2.033186128128433,17.778704441707017,-0.03328677262353855,1.0771816133029193,-0.6727477530820913
2.0262589600776,17.55431087259815,-0.03268625643201378,1.059899997257711,-0.651858768780882
2.0194574061218225,17.333519591691125,-0.03209044790872026,1.04287410661873,-0.6317529559616417
2.01278043141388,17.11627772093599,-0.03149978740501811,1.026096091049248,-0.6123925635120278
2.006226914867417,16.902533999917253,-0.030914655894629987,1.009558394843493,-0.5937419938134824
1.9997956610110892,16.69223872547458,-0.030335380832301532,0.9932537427057323,-0.5757676598407949
1.993489863493048,16.48548895531804,-0.029719833625234466,0.9757916873565758,-0.5860383372212403
1.9873103949450943,16.282393727493236,-0.029132247783848614,0.9584485776415719,-0.598403668098706
1.981251376643208,16.082928417155564,-0.028572688424591448,0.9412210446219598,-0.6127449709131206
1.975306927871499,15.887069092767195,-0.028041109401210566,0.9241058543148997,-0.6289468947057631
1.9694711882942455,15.694792488357997,-0.027537362763108864,0.9070999019631699,-0.6468971618931368
1.963738338419839,15.506075976942832,-0.027061207469333264,0.8902002067526906,-0.6664863196379872
1.9581026183073706,15.320897545003199,-0.026612317411317993,0.8734039069580869,-0.6876074988213859
1.952558344655903,15.139235767945191,-0.026190288793136524,0.8567082554991368,-0.7101561796507196
1.9470999264066593,14.961069786448963,-0.025794646913944563,0.8401106158935079,-0.7340299629627678
1.941721878979379,14.786379283627806,-0.02542485239348722,0.8236084585937039,-0.759128346298943
1.9364188372558764,14.615144462917108,-0.025080306877967053,0.8071993576986405,-0.7853525038412321
1.931185567416369,14.44734602661531,-0.024760358260197873,0.7908809880327794,-0.81260506930241
1.9260169777273468,14.282965155000099,-0.024464305444775073,0.7746511225882979,-0.8407899208626074
1.9209081283736205,14.121983485943847,-0.024191402685951623,0.7585076303283848,-0.8698119672361535
1.9158542404216812,13.964383094952357,-0.023940863522994377,0.7424484743524737,-0.8995769339375641
1.9108507039965934,13.810146475550503,-0.02371186433498408,0.7264717104270807,-0.9299911487933219
1.9058930857503196,13.659256519937323,-0.0235035475342901,0.7105754858889393,-0.9609613257163453
1.9009771356956155,13.511696499831295,-0.023315024415273018,0.6947580389303838,-0.9923943457223371
1.8960987934764393,13.367450047424157,-0.023145377672120476,0.6790176982804461,-1.0241970341210511
1.8912541941431733,13.22650113635832,-0.02299366359707826,0.6633528832989739,-1.0562759327603461
1.8864396734988744,13.08883406263887,-0.02285891396767323,0.6477621045053078,-1.0885370661360774
1.8816517730812437,12.954433425386203,-0.022740137628809557,0.6322439645677357,-1.1208857001057144
1.876887244844072,12.823284107329147,-0.022636321772824725,0.6167971597851588,-1.153226091857322
1.8721430556015686,12.695371254931388,-0.022546432917685454,0.6014204820982503,-1.1854612296874236
1.8674163912992643,12.570680258035306,-0.022469417580450804,0.5861128216739587,-1.217492561030505
1.8627046611761282,12.449196728897505,-0.02240420263989304,0.5708731701146321,-1.2492197070587718
1.8580055018841755,12.330906480478568,-0.022349695378703995,0.5557006243514414,-1.2805401620326098
1.8533167816342537,12.215795503836077,-0.02230478319197985,0.5405943912913228,-1.3113489754295862
1.848636604439911,12.10384994445425,-0.02226833294461843,0.5255537932975024,-1.341538414712674
1.8439633145353647,11.995056077325433,-0.022239189955822494,0.5105782745960071,-1.3709976064171085
1.8392955010486818,11.889400280577817,-0.02221617658401408,0.4956674087146159,-1.3996121530411525
1.8346320030174548,11.786869007419732,-0.0221980903800539,0.48082090707668407,-1.427263723021501
1.8299719148416318,11.687448756143183,-0.022183701770639417,0.46603862889043257,-1.4538296108633113
1.825314592276877,11.591126037897727,-0.022171751227025107,0.451320592494867,-1.4791822642846761
1.8206596590820414,11.497887341909362,-0.022160945866649108,0.436666988346713,-1.503188775036216
1.8160070144462377,11.407719097777782,-0.022149955426719076,0.42207819385881473,-1.5257103298840378
1.8113568413348236,11.320607634438016,-0.022137407539130786,0.40755479032944664,-1.546601618121787
1.806709615909585,11.236539135318864,-0.022121882225045,0.3930975822338934,-1.5657101919387406
1.8020661181969069,11.15549958916997,-0.0221019055147461,0.37870761918415474,-1.582875776064829
1.7974274441990732,11.077474735961236,-0.022075942083671137,0.3643862208990208,-1.5979295234106852
1.7927950196685756,11.002450007182656,-0.02204238677821149,0.3501350055636581,-1.6106932140224908
1.7881706157940096,10.930410459789222,-0.021999554884322075,0.3359559219928523,-1.620978395722468
1.7835563670796133,10.861340702945647,-0.021945670967070452,0.32185128604118685,-1.6285854665136996
1.7789547917398323,10.79522481663069,-0.021878856078462672,0.3078238217203153,-1.633302701489243
1.7743688149769499,10.732046261064859,-0.02179711309184517,0.29387670747806505,-1.6349052310248458
1.7698017955659244,10.671787775834321,-0.02169830987030138,0.28001362805085606,-1.6331539830603108
1.7652575562391881,10.614431267508401,-0.02158015990814189,0.26623883219602024,-1.6277946111587838
1.7607404184498798,10.559957684504987,-0.021440199990031966,0.25255719640791513,-1.6185564430271062
1.756255242201783,10.508346877973647,-0.02127576427755572,0.23897429436674236,-1.6051515030785692
1.7518074717788834,10.459577447580724,-0.02108395403577495,0.2254964712801579,-1.5872736899931832
1.7474031884038717,10.413626571356229,-0.020861601916717282,0.2121309213340756,-1.564598229752122
1.743049171129822,10.370469819291898,-0.020605229264709098,0.19888576499287236,-1.5367815815038728
1.7387529676654052,10.330080951302158,-0.020310994205926036,0.18577012062371306,-1.5034620551733158
1.7345229774200477,10.292431701678918,-0.019974627178431986,0.1727941615023604,-1.464261516015797
1.7303685499422607,10.257491554580607,-0.019591348800490637,0.15996914419584998,-1.4187887157308374
1.7263001032913543,10.225227518806651,-0.019155762160524257,0.14730738698467866,-1.3666450189985073
1.7223292690199117,10.195603915670738,-0.018661707091308852,0.13482216669069824,-1.307433606682575
1.7184690738190231,10.168582201875214,-0.0181020567266786,0.12252748850478021,-1.2407736460946006
1.714734173237216,10.14412086059971,-0.017468425004816508,0.11043766650003685,-1.166321416994999
1.7111411614068248,10.122175408917137,-0.016750735284623848,0.09856663523873707,-1.0838009018636743
1.7077089942319736,10.102698587320258,-0.015936571142528767,0.08692690377916215,-0.9930466816857799
1.7044595848275972,10.085640813687693,-0.015010185089627816,0.0755280831976504,-0.894061622380832
1.7014186635470114,10.070950988805428,-0.013950969963568845,0.06437501091916713,-0.7870897651579929
1.6986170483164513,10.058577710077962,-0.012731079851291663,0.053465738866240745,-0.6726992920151604
1.6960925611705808,10.048470839683326,-0.011311654871285012,0.042790169654102504,-0.5518592569788552
1.6938930051209653,10.040583108363968,-0.009636497982195534,0.0323310810064453,-0.42597634283784014
1.6920810738643792,10.034870885046406,-0.007619990175766556,0.022071045827489644,-0.2968397005766815
1.6907436728571867,10.031291983470794,-0.005117162273686047,0.012013731083085552,-0.16641790940704468
1.6900166293450505,10.029793266492597,-0.0018070616514206913,0.0022597639473713686,-0.03649270936273302
