x,y,v_x,v_y,omega
2.375,32.48,0.0,2.8205128205128203,-4.816326530612245
2.3741002257804626,31.949839741365643,-0.009471307574079435,2.76012148090143,-4.543698053884054
2.3715200420563844,31.430947878270807,-0.01768852110042712,2.7018981306231415,-4.293868466618913
2.367482746924211,30.922924714246523,-0.02480932239613428,2.6457141222640668,-4.064337729994676
2.362183728190857,30.425393972959377,-0.030969822165486324,2.591451575495391,-3.8529325402901553
2.3557942512079864,29.938000868821522,-0.036287830285785166,2.5390021522714985,-3.657757370559665
2.348464677636439,29.460410393113374,-0.04086557573050367,2.4882660130774097,-3.4771537676487068
2.3403272099450163,28.99230578434429,-0.044791978916049,2.439150921333998,-3.3096663548582526
2.3314982389407883,28.533387157165176,-0.048144557970561094,2.3915714700250943,-3.1540143120996165
2.3220803577022626,28.08337026857012,-0.05099103401391965,2.3454484099228705,-3.0090673536228616
2.3121640941321853,27.641985403653923,-0.053390687776368344,2.3007080628792087,-2.873825416591002
2.3018294053551,27.208976366031813,-0.055395509877162345,2.2572818068272142,-2.747401425228885
2.2911469698945863,26.784099560329086,-0.05705117918087658,2.215105621622551,-2.6290066148251494
2.2801793076228942,26.367123156027624,-0.05839789736324958,2.1741196868138606,-2.5179379948267693
2.2689817526085054,25.957826323501468,-0.05947110278821318,2.1342680239877914,-2.413567606138794
2.2576032999824545,25.555998534352632,-0.060302082749164355,2.0954981775789046,-2.3153332886957148
2.2460873446353666,25.161438919224114,-0.06091849985175818,2.0577609290370926,-2.2227307245893617
2.2344723268125057,24.773955677160103,-0.06134484565204378,2.021010040057736,-2.135306561971065
2.2227922973891694,24.39336553133656,-0.061602832488336895,1.9852020212427348,-2.052652457490564
2.211077413699993,24.019493226623553,-0.06171173266088931,1.9502959231047128,-1.9743999016699907
2.19935437519602,23.652171064984884,-0.0616886726440888,1.9162531467760346,-1.9002157134982494
2.1876468068586874,23.291238475186205,-0.061548888801515676,1.8830372721574016,-1.8297981085839174
2.1759755971661807,22.93654161368378,-0.06130595006697582,1.850613901552364,-1.7628732601486494
2.1643591964492477,22.587932993912222,-0.06097195221653315,1.8189505170956,-1.6991922845555458
2.15281388066126,22.245271141490317,-0.060557687657019243,1.7880163505034055,-1.6385285934104779
2.1413539848971097,21.90842027312562,-0.060072794070881425,1.7577822638618192,-1.5806755629205598
2.1299921104076422,21.577249997227682,-0.05952588476561613,1.7282206403270133,-1.5254444784428793
2.1187393083544968,21.25163503444049,-0.05892466316223107,1.699305283748719,-1.4726627182513865
2.1076052431208265,20.931454956481645,-0.05827602350798383,1.6710113263443704,-1.4221721456882768
2.0965983376252595,20.61659394183195,-0.057586139603248494,1.6433151436524196,-1.3738276832097909
2.085725902770171,20.30694054695732,-0.05686054308189168,1.6161942760804917,-1.3274960455173521
2.0749942528830814,20.0023874918679,-0.056104192571683045,1.5896273564397674,-1.2830546120920834
2.0644088087751733,19.70283145892844,-0.05532153487998216,1.5635940429229591,-1.2403904221136313
2.053974189838028,19.40817290393187,-0.05451655919522704,1.538074957040916,-1.199399277016963
2.04369429642405,19.118315878535057,-0.053692845162439204,1.513051626083453,-1.159984937884862
2.0335723836037474,18.833167863234255,-0.05285360557759021,1.4885064297144526,-1.122058406540325
2.0236185878816113,18.552642027848563,-0.051923191497523134,1.4643971006612806,-1.0830306323135448
2.0138413751956734,18.27665452950687,-0.05099483677550951,1.4407344608301988,-1.0457185012365575
2.0042402002371635,18.00512196378138,-0.050070162787750276,1.4175030731223357,-1.0100268015958458
1.9948142291836208,17.737963794653997,-0.049150585144278405,1.3946881808501275,-0.9758666045434496
1.9855623766963915,17.475102228840008,-0.04823733577392641,1.372275669823458,-0.9431547833803827
1.97648333894801,17.21646209707567,-0.04733148263008784,1.3502520329590415,-0.9118135745415631
1.9675756231060753,16.961970741908978,-0.046433947285015924,1.3286043372166714,-0.8817701762448802
1.9588375736523878,16.711557911568462,-0.04554552064853679,1.307320192683485,-0.8529563811978758
1.9502673958739516,16.465155659517432,-0.04466687701921285,1.2863877236431513,-0.825308240136189
1.941863176825221,16.22269824933063,-0.04379858665163481,1.2657955414810715,-0.7987657533047243
1.933622904028108,15.984122064557429,-0.04294112700218606,1.2455327192894716,-0.7732725872909317
1.9255444821471936,15.749365523260387,-0.04209489279691273,1.2255887680478184,-0.7487758148843651
1.91762574785186,15.518368996940723,-0.041260205048705346,1.2059536142644236,-0.7252256758719267
1.90986448305426,15.29107473358302,-0.04043731913655788,1.1866175789745628,-0.7025753568874757
1.9022584266918254,15.067426784570532,-0.039626432046963096,1.1675713579989955,-0.6807807886208801
1.8948052852050645,14.847370935240043,-0.03882768886630891,1.1488060033745586,-0.6598004588578364
1.8875027418454546,14.63085463886128,-0.038041188603268855,1.1303129058755674,-0.639595239970226
1.880348464934055,14.417826953840738,-0.03726698941146506,1.1120837785511914,-0.6201282296094823
1.8733401151788425,14.208238483963441,-0.0365051132749815,1.0941106412098283,-0.6013646034742256
1.8664753521475324,14.002041321498758,-0.03575555021249362,1.0763858057868385,-0.5832714791298526
1.8597518399826192,13.799188993008006,-0.03501826204974944,1.058901862536881,-0.5658177899532458
1.8531672524364378,13.59963640770233,-0.034293185804793125,1.0416516669965377,-0.5489741683615107
1.8467192772960521,13.403339808209296,-0.033580236725580706,1.0246283276669994,-0.5327128375607257
1.8404056202606562,13.210256723615753,-0.03287931101542945,1.0078251943703038,-0.5170075111200684
1.83422400832778,13.02034592466315,-0.032190288278002195,0.9912358472360437,-0.5018332997391644
1.8281777622146884,12.83377411666682,-0.031454407649280036,0.9726779211463912,-0.5304597656561997
1.822267192455854,12.650717940692871,-0.030762116127922755,0.9542291943688499,-0.5605838255254799
1.816484130489736,12.471156919436993,-0.03011222035753356,0.935886818850911,-0.5920958168425612
1.8108206379593996,12.295071105968525,-0.029503490488109255,0.9176480597645293,-0.6248881412961745
1.8052690132208626,12.122441062554543,-0.02893466465438812,0.8995102919615805,-0.6588550244619419
1.7998217970416839,11.953247840120131,-0.02840445302117773,0.8814709968217214,-0.6938922789951345
1.7944717775694023,11.78747295827079,-0.027911541423889897,0.8635277594871402,-0.7298970703105315
1.7892119946443281,11.625098385803767,-0.027454594629523814,0.8456782664815046,-0.7667676837307141
1.7840357435266787,11.466106521635258,-0.02703225924046838,0.8279203037133449,-0.804403292069533
1.7789365781040662,11.310480176070108,-0.02664316626071584,0.8102517548671782,-0.8427037225946985
1.7739083136418685,11.158202552339777,-0.026285933341366717,0.7926706001889273,-0.8815692222820654
1.768945029136073,11.00925722833264,-0.025959166719635066,0.7751749156756763,-0.9209002202337112
1.7640410693257316,10.86362813843851,-0.025661462862907734,0.757762872683564,-0.96059708608177
1.7591910464202147,10.721299555426256,-0.025391409826744413,0.7404327379717337,-1.0005598831394835
1.7543898415950392,10.582256072269487,-0.025147588332998707,0.7231828742047747,-1.0406881149893084
1.7496326063091152,10.44648258383063,-0.024928572571464108,0.7060117409411063,-1.080880464114283
1.7449147634958968,10.313964268307892,-0.024732930725570177,0.6889178961403414,-1.1210345210822665
1.740232008681102,10.184686568342812,-0.024559225219638776,0.6718999982289351,-1.1610465026820553
1.7355803110804446,10.058635171677867,-0.024406012682019494,0.65495680877049,-1.2008109572846843
1.7309559147322262,9.935795991244138,-0.024271843615015498,0.638087195795077,-1.2402204555612728
1.72635533972171,9.81615514454776,-0.0241552617588398,0.6212901378510057,-1.2791652645294977
1.7217753835569989,9.699698932210897,-0.024054803132855376,0.6045647288528079,-1.3175330027231538
1.7172131227597434,9.586413815507836,-0.023968994732993208,0.5879101838109783,-1.3552082740824845
1.7126659147384617,9.476286392719256,-0.023896352859445098,0.5713258455424852,-1.3920722779466437
1.7081314000176895,9.369303374107457,-0.02383538104341942,0.5548111924764595,-1.4280023922939515
1.7036075049026596,9.265451555291918,-0.02378456753584455,0.5383658476870885,-1.4628717271217364
1.6990924446668947,9.164717788777587,-0.023742382314310372,0.5219895893058867,-1.4965486445881224
1.6945847273591066,9.067088953357118,-0.023707273557142944,0.5056823624885135,-1.528896242257972
1.6900831583362859,8.972551921072647,-0.023677663525181473,0.48944429313751353,-1.559771795512338
1.6855868456420637,8.881093521381434,-0.02365194378241803,0.47327570361208565,-1.5890261549079279
1.6810952063635156,8.792700502122777,-0.023628469675984833,0.45717713068954735,-1.6165030940296345
1.6766079741158353,8.7073594868296,-0.023605553983806427,0.4411493460807283,-1.6420386031943157
1.6721252078230662,8.625056927866833,-0.023581459624290826,0.4251933798431167,-1.6654601242807465
1.6676473019846556,8.545779054809053,-0.02355439130634825,0.40931054708086767,-1.686585722042162
1.663174998642518,8.469511817391325,-0.023522485979309685,0.39350247836890223,-1.705223187595873
1.6587094012920551,8.396240822279463,-0.02348380192029849,0.37777115438755027,-1.7211690705122518
1.654251991013945,8.325951262809014,-0.023436306270334703,0.36211894530140626,-1.7342076372355182
1.6498046451424022,8.25862784073706,-0.02337786079853688,0.34654865545601826,-1.744109755739468
1.645369658831296,8.194254678939675,-0.02330620563415884,0.331063573990145,-1.7506317097545467
1.6409497699337594,8.132815223874797,-0.023218940655699623,0.3156675319559267,-1.7535139511794524
1.6365481876762633,8.074292136523098,-0.023113504160050008,0.30036496648300176,-1.7524798072511831
1.6321686256882963,8.01866717043091,-0.022987148344866086,0.28516099238215026,-1.7472341709090142
1.6278153400494144,7.965921035430302,-0.022836911011785196,0.27006148130843527,-1.7374622203134735
1.6234931731451867,7.916033245635049,-0.022659582716928015,0.25507314811528436,-1.7228282392256051
1.6192076042960828,7.86898195045897,-0.022451668326269505,0.24020364321186638,-1.702974647611312
1.614964808360256,7.82474374775488,-0.022209341524541237,0.22546164841011965,-1.6775214067410733
1.6107717238472352,7.783293478848833,-0.021928390191465377,0.21085697165355083,-1.6460660428413247
1.606636132571134,7.744604006427959,-0.021604149556970126,0.19640063277671105,-1.6081846488176674
1.60256675361099,7.708645978200554,-0.02123141844454523,0.18210492751175955,-1.5634343896486005
1.5985733554828871,7.675387582374668,-0.02080435132495916,0.16798344960281336,-1.5113582736043256
1.59466689221049,7.644794305844375,-0.02031631470027145,0.15405104018976187,-1.4514932829770288
1.5908596718122319,7.61682871325803,-0.01975968949192175,0.14032361861386763,-1.3833834100579545
1.587165570264143,7.5914502757399305,-0.019125589961646098,0.12681782894507088,-1.3065997311995887
1.5836003113120927,7.568615292753623,-0.0184034516388815,0.11355041301605258,-1.220770345900317
1.5801818442904607,7.548276969569471,-0.017580411746720585,0.1005371994487153,-1.1256236652797418
1.5769308710071976,7.53038573400902,-0.01664035965604798,0.08779159592445177,-1.0210487443344487
1.5738716028972255,7.514889892210967,-0.015562462554184536,0.07532252826559024,-0.907175164877544
1.5710328777106435,7.501736715381867,-0.014318855199312242,0.06313196467230103,-0.7844705337929592
1.5684498438827346,7.490873978441126,-0.01287097456814921,0.05121263470392831,-0.6538430802385008
1.566166564545962,7.4822517657735155,-0.011163544766298867,0.03954749863933777,-0.5167175040414542
1.564240222243734,7.475823899926713,-0.009113742625574552,0.028114247116464756,-0.3750265300896235
1.5627486351581212,7.471547364019184,-0.00658717406508561,0.01690192033121784,-0.23104315179692528
1.561807444581433,7.4693750778425105,-0.0033200951632130133,0.005964249949565872,-0.08699623488633232
