x,y,v_x,v_y,omega
2.375,32.48,0.0,3.641025641025641,-5.3061224489795915
2.373368558643433,31.726035692639318,-0.015537536729208372,3.53958681002843,-4.891767350120569
2.3687646035313445,30.992833265742608,-0.0283096548144925,3.4432934461307334,-4.526452306769003
2.3617189459169823,30.27935541959079,-0.03879184627466992,3.3517336600770538,-4.2027453959241505
2.352671833080475,29.584646540891804,-0.04737113312064224,3.264541375151385,-3.914537742969055
2.3419896307331367,28.907823795759697,-0.05436412733019695,3.181389530868689,-3.6567765844287705
2.329978137342611,28.248069513912824,-0.06003104781766333,3.1019845819586664,-3.4252582438865584
2.3168932754250937,27.604624623833498,-0.06458668473012175,3.0260619902253905,-3.2164662281570577
2.3029497246963846,26.97678295350256,-0.06820903649567872,2.9533824891168665,-3.0274436385836774
2.2883279293404715,26.36388625154631,-0.07104615737016223,2.8837289580855017,-2.8556919132194953
2.2731798128937606,25.765319813593862,-0.07322161831279671,2.8169037843187956,-2.699089938344799
2.257633459963324,25.180508621295978,-0.07483888578659972,2.75272661851819,-2.5558290358506195
2.241796967628138,24.608913918826033,-0.07598485073898215,2.6910324526241602,-2.4243604102813228
2.2257616262487656,24.050030165177034,-0.07673268620742292,2.631669963080579,-2.3033524377071974
2.209604556178498,23.50338231117893,-0.07714417160464714,2.5745000749965907,-2.1916557756761583
2.1933909010869517,22.968523358597164,-0.0772715911719846,2.519394711496435,-2.0882747237580546
2.177175658481351,22.445032165451906,-0.07715929078612137,2.4662356994107912,-1.9923436063637414
2.1610052122101044,21.932511467195155,-0.07684495941622348,2.4149138077963475,-1.9031072114052812
2.1449186192618193,21.430586087880904,-0.07636068771030147,2.3653278999584137,-1.8199045201380166
2.1289486932796713,20.938901319173112,-0.07573384545301208,2.3173841829729542,-1.742155119958082
2.1131229193259595,20.457121448117846,-0.07498781124900684,2.270995541362897,-1.6693478139216167
2.097464228118917,19.984928417183134,-0.07414258119901555,2.226080943729607,-1.6010310364143747
2.0819916528885014,19.52202060223845,-0.07321527813827873,2.1825649128864377,-1.5368047598094643
2.0667208879008605,19.06811169598078,-0.07222057888687373,2.140377051472316,-1.4763136366909893
2.051664764381199,18.62292968587475,-0.07117107368133156,2.0994516162041195,-1.4192411697729501
2.036833656864518,18.18621591700808,-0.07007756933467378,2.0597271349070487,-1.365304739664156
2.0222358307998025,17.757724231408332,-0.06894934556738004,2.0211460612810126,-1.314251351162904
2.007877740428321,17.337220176353732,-0.06779437225625402,1.9836544630485289,-1.265853983386504
1.9937642844738053,16.924480275064113,-0.06661949397722894,1.9472017397097499,-1.2199084489741223
1.979899025960083,16.51929135389928,-0.06543058710583963,1.9117403666219914,-1.1762306838013434
1.9662843814614435,16.121449920837293,-0.0642326938335847,1.877225662539801,-1.134654401859157
1.952921784253434,15.73076159056912,-0.06303013671888527,1.8436155781094594,-1.095029060767373
1.939811825135472,15.347040552040148,-0.061826616785517284,1.810870503118841,-1.0572180922779504
1.9269543741162147,14.970109074703043,-0.06062529768359866,1.7789530905678965,-1.0210973594466022
1.9143486856675462,14.59979705012881,-0.059428878018006406,1.747828095853361,-0.986553808205483
1.9019934898465924,14.235941565960498,-0.058239653610124884,1.717462229559135,-0.9534842860910097
1.8898870712438434,13.878386509492639,-0.05705957117796111,1.6878240225157102,-0.9217945050577769
1.878027337428092,13.526982198424598,-0.055890274686336575,1.658883701941819,-0.8913981287941941
1.86641187831645,13.181585036571406,-0.0547331454245416,1.6306130776123773,-0.8622159678708539
1.85503801769268,12.84205719252541,-0.053589336706601605,1.6029854371114005,-0.8341752684984435
1.8439028579233656,12.508266299449147,-0.05245980395353587,1.575975449329207,-0.8072090827293317
1.8330033187739179,12.180085174347148,-0.05134533080310832,1.5495590754517492,-0.7812557096720035
1.8223361711009236,11.857391555314077,-0.050246551796835896,1.5237134867679667,-0.7562581987544513
1.8118980660903525,11.540067855390987,-0.049163972113366476,1.4984169886900207,-0.7321639073159235
1.8016998743332238,11.228002577934813,-0.047961663668812306,1.47363327279736,-0.705017819782646
1.7917510876039813,10.921088341991226,-0.04678868613349573,1.4493594504748946,-0.6791585703110777
1.7820455854834796,10.619220041501546,-0.04564466739509315,1.4255767446649001,-0.6545095377027998
1.7725773319018279,10.322296420152995,-0.04452917623968272,1.402267268178446,-0.6309995297029537
1.7633403864016517,10.030219890055228,-0.043441733285805764,1.379413970847889,-0.6085623374813902
1.7543289132637816,9.742896361122856,-0.04238182040819435,1.357000590412813,-0.5871363315350083
1.7455371887914306,9.460235080412009,-0.04134888885229147,1.3350116068333566,-0.566664094718228
1.7369596070095412,9.1821484807204,-0.040342366213323225,1.3134321997533887,-0.5470920885982834
1.728590684001972,8.908552037815834,-0.03936166243019227,1.2922482088615383,-0.5283703497608939
1.7204250610797533,8.639364135708668,-0.03840617492427381,1.2714460969209884,-0.5104522130680444
1.7124575069481431,8.374505939429714,-0.03747529299582288,1.2510129152595237,-0.49329405920009006
1.7046829190181296,8.113901274816833,-0.036568401575734065,1.23093627152983,-0.4768550841051751
1.6970963239888417,7.857476514851697,-0.035684884417483916,1.2112042995667056,-0.46109708823519413
1.6896928778106974,7.605160472122989,-0.034824126802937144,1.1918056311828846,-0.44598428367364895
1.6824678651246527,7.35688429702412,-0.03398551782605886,1.1727293697587369,-0.43148311746059415
1.6754166982603422,7.112581381322649,-0.03316845231023402,1.1539650654933817,-0.41756210959672807
1.6685349158649623,6.872187266765277,-0.03237233240766916,1.1355026921958624,-0.40419170436541846
1.6618181812252328,6.635639558406677,-0.03159656892308588,1.1173326255050844,-0.3913441337505415
1.6552622803364687,6.402877842372824,-0.030840582398477364,1.0994456224363574,-0.37899329185160185
1.6488631197655763,6.173843607790136,-0.030103803990975276,1.081832802160671,-0.36711461930755696
1.6426167243484884,5.948480172630578,-0.029385676171767048,1.0644856279303698,-0.3556849968387223
1.6365192347570576,5.726732613240355,-0.028685653270430097,1.0473958900717621,-0.34468264710349866
1.630566904965639,5.508547697335818,-0.02800320188593741,1.0305556899714379,-0.33408704414467616
1.6247560996434136,5.293873820264995,-0.027337801182877305,1.0139574249887853,-0.32387882976982046
1.6190832914948596,5.08266094434677,-0.02668894308906552,0.9975937742323882,-0.3140397362726733
1.613550457473148,4.8749950549869325,-0.02600471426056726,0.9801766006232155,-0.3302172737580249
1.6081574853466205,4.670974594987754,-0.025356925039695253,0.9628753993689679,-0.3483590772675847
1.6028967644908099,4.4705755511088725,-0.02474517834897747,0.9456869232870376,-0.36835218835173705
1.5977607764909627,4.273774578661495,-0.024168993078139238,0.9286080524022802,-0.39008679207001057
1.5927421119569676,4.080548975360607,-0.023627812007526755,0.9116357885585692,-0.41345597115404015
1.5878334857428684,3.8908766562646377,-0.023121009079132955,0.8947672504506442,-0.4383554682792353
1.5830277507029828,3.704736129716263,-0.02264789606263499,0.8779996690576897,-0.4646834554870374
1.5783179101071185,3.5221064742016353,-0.02220772865988107,0.8613303834625636,-0.49234030982828025
1.5736971288286379,3.3429673160485507,-0.021799712087553755,0.8447568370430089,-0.5212283943203894
1.5691587434111476,3.16729880788656,-0.021423006174258796,0.8282765740235606,-0.5512518433270388
1.5646962711123238,2.995081607794269,-0.021076730005015632,0.8118872363792269,-0.5823163514784653
1.5603034180167787,2.8262968590605873,-0.020759966143032684,0.7955865610843952,-0.6143289652538477
1.5559740863039107,2.660926170487926,-0.0204717644557124,0.7793723777028388,-0.6471978763439015
1.5517023807513133,2.4989515971658243,-0.020211145569023987,0.7632426063171821,-0.680832215901909
1.5474826145495388,2.340355621643649,-0.019977103971682543,0.7471952557987737,-0.7151418487745663
1.5433093144997767,2.1851211354305065,-0.019768610787958402,0.7312284224216441,-0.7500371667799295
1.5391772256623253,2.0332314207493845,-0.019584616235386945,0.7153402888271235,-0.7854288800679948
1.5350813155205907,1.8846701324709123,-0.01942405178113294,0.6995291233488132,-0.8212278055595448
1.5310167777227044,1.7394212801496316,-0.019285832008260465,0.6837932797109925,-0.8573446514102651
1.5269790354607693,1.597469210082668,-0.01916885620064421,0.6681311971172451,-0.8936897963891292
1.522963744546168,1.458798587306589,-0.019072009652703815,0.6525414007501809,-0.9301730629918915
1.5189667962383444,1.3233943774435133,-0.018994164707521268,0.6370225027076677,-0.9667034830313983
1.5149843198840154,1.191241828301571,-0.018934181524182064,0.6215732034060729,-1.0031890543553832
1.5110126854238817,1.0623264511278272,-0.018890908572330257,0.6061922934867149,-1.0395364872384538
1.5070485058246514,0.936634001403565,-0.018863182848909945,0.5908786562681736,-1.0756509388770397
1.5030886394955876,0.8141504590619917,-0.01884982980884084,0.5756312707944133,-1.1114357342830485
1.4991301927508798,0.6948620079971946,-0.018849662997899624,0.5604492155369742,-1.14679207172279
1.4951705223820086,0.578755014719821,-0.018861483372302208,0.5453316728189634,-1.1816187106813465
1.491207238407955,0.46581600599969164,-0.018884078285349958,0.5302779340393973,-1.2158116401481907
1.4872382070757133,0.3560316453177279,-0.018916220116953167,0.5152874057888305,-1.249263724816932
1.4832615541891685,0.24938870792895784,-0.01895666451680759,0.5003596169613918,-1.281864326570705
1.4792756688511322,0.14587405431463196,-0.0190041482263945,0.48549422698459777,-1.3134988983857645
1.4752792077112962,0.04547460177402485,-0.01905738643871034,0.4706910353069286,-1.3440485475315822
1.4712710998222334,-0.05182270612516504,-0.01911506964760312,0.45594999230443145,-1.3733895646803407
1.467250552216514,-0.1460309325552842,-0.019175859930675773,0.4412712117919108,-1.401392915269312
1.4632170563307123,-0.2371631832553831,-0.019238386600767574,0.42665498535187435,-1.427923689197566
1.4591703954167907,-0.32523264558351883,-0.019301241150868703,0.41210179872563396,-1.4528405047012916
1.455110653098346,-0.4102526312570376,-0.0193629714057482,0.39761235054600313,-1.4759948620661922
1.4510382232488093,-0.49223662330601314,-0.019422074780315903,0.3831875737299279,-1.4972304427401704
1.4469538213912836,-0.5711983278363064,-0.019476990529452478,0.3688286598918802,-1.5163823494626052
1.4428584978457821,-0.647151731279294,-0.019526090856274984,0.3545370871841817,-1.5332762833122402
1.4387536528797547,-0.7201111638954245,-0.019567670724938712,0.34031465201706945,-1.5477276542166243
1.4346410541527166,-0.7900913703986419,-0.019599936199233232,0.32616350515645354,-1.5595406226399944
1.4305228567864925,-0.8571075886773656,-0.019620991098139626,0.3120861927361579,-1.5685070721309948
1.4264016264403487,-0.9211756377030014,-0.019628821722277624,0.29808570274611623,-1.5744055155397265
1.4222803658269312,-0.9823120158347152,-0.019621279357889633,0.28416551755591074,-1.5769999425457975
1.4181625451730189,-1.0405340108414407,-0.019596060203180336,0.27032967298435595,-1.5760386234591377
1.4140521372124581,-1.0958598230562586,-0.0195506822783495,0.25658282429965196,-1.5712528952011853
1.4099536574029943,-1.1483087031324715,-0.019482458764164625,0.24293031928335043,-1.562355971598577
1.4058722101929182,-1.197901105851649,-0.019388467046084178,0.22937827804214964,-1.5490418440260514
1.4018135423414284,-1.244658861287924,-0.01926551249191511,0.21593367849380218,-1.5309843735044746
1.3977841045405324,-1.288605364277963,-0.01911008561185677,0.2026044452208556,-1.5078367266334607
1.3937911229319915,-1.329765782456434,-0.018918310659959782,0.1893995374312215,-1.479231382455963
1.3898426826184613,-1.3681672819029487,-0.018685882802231657,0.176329028726069,-1.444781045787445
1.3859478260290419,-1.4038392674266973,-0.018407989477952757,0.16340416673821467,-1.4040809589552947
1.382116670172986,-1.4368136312796196,-0.01807920915115279,0.15063739376583216,-1.3567133273183023
1.378360548660313,-1.467124999062392,-0.017693376683828626,0.13804229940339607,-1.3022548879390248
1.374692187311246,-1.4948109540026806,-0.017243398069188592,0.1256334619326812,-1.2402890800382513
1.3711259269173595,-1.5199122097243318,-0.01672098663449338,0.11342611636875506,-1.1704248344872605
1.3676780143929053,-1.5424726862383125,-0.016116275503165894,0.10143556471677652,-1.0923246603041383
1.3643669959866778,-1.5625394240482962,-0.015417233127571511,0.08967622394975049,-1.0057453285011535
1.3612142662865938,-1.5801622491974001,-0.01460876401608483,0.0781602060416906,-0.9105946346939744
1.3582448589530198,-1.5953930858409038,-0.013671305827476743,0.06689538103930139,-0.8070065271653292
1.3554886168951892,-1.6082848229458193,-0.012578618532814691,0.055883067578965134,-0.6954324908850915
1.3529819656004045,-1.618889721023983,-0.011294250941324278,0.045115961736906775,-0.5767366698186334
1.3507706731109619,-1.6272575713781592,-0.009765677529556954,0.034577851160037074,-0.45226336305212156
1.3489143558211638,-1.6334343261900628,-0.007913534754234317,0.024248385143807658,-0.3238210006247274
1.3474947045962615,-1.6374630257964142,-0.0056069531019787965,0.014120182535741073,-0.1935113433914934
1.3466351942049806,-1.639392505832319,-0.002578860148315897,0.0042558178062427204,-0.06335434313623547
