x,y,v_x,v_y,omega
2.375,32.48,0.0,2.923076923076923,-6.040816326530612
2.3736972122016167,31.902057732720948,-0.013027877983834419,2.856345749713581,-5.671206251551541
2.369973215347908,31.337196970857587,-0.024212090553254302,2.7922618689200043,-5.335308295345041
2.3641717621480223,30.784905740645616,-0.0338024414455985,2.730650433199708,-5.029107360731332
2.3565903414416334,30.244705369531058,-0.042011765618291584,2.6713532779458835,-4.749158291939916
2.3474869624575896,29.71614736913324,-0.04902202422214671,2.614226726032293,-4.492492862601976
2.3370858324634076,29.19881071986475,-0.05498927571967397,2.5591397666526037,-4.256543918900296
2.325582129376446,28.692299490075495,-0.060047755149944135,2.5059725312399412,-4.039083137557821
2.313146029861636,28.196240736201194,-0.064313239998151,2.4546150075030764,-3.838169669692524
2.2999261217289595,27.710282640842582,-0.06788584132861802,2.4049659460830375,-3.6521075479585554
2.2860523047063945,27.234092853794806,-0.0708523288970276,2.35693192439471,-3.479410192427104
2.2716382641986206,26.7673570073749,-0.07328807618071385,2.3104265398043404,-3.3187707000024114
2.256783587204008,26.309777382387878,-0.0752586937654097,2.2653697100659,-3.1690368709918126
2.2415755772317367,25.861071705044402,-0.07682140595730562,2.2216870633688615,-3.029190135010136
2.2260908151480105,25.420972058329742,-0.07802621487995644,2.179309403777734,-2.8983277014303535
2.2103965048642493,24.989223893900203,-0.07891688795765522,2.138172240517648,-2.775647387922856
2.1945516362627893,24.565585132682198,-0.07953179805694409,2.0982153716624192,-2.660434682293564
2.1786079924305626,24.149825344071296,-0.07990464026532348,2.0593825144466225,-2.552051673858764
2.16261102390037,23.74172499505146,-0.08006504503660225,2.0216209757517274,-2.449927555532563
2.1466006089965215,23.341074761737907,-0.08003910400188131,1.9848813573838116,-2.353550450117157
2.1306117164001055,22.947674896837135,-0.0798498219622805,1.9491172916239052,-2.262460356636162
2.1146749835727165,22.561334647351224,-0.07951750631161073,1.9142852032351707,-2.1762430469917775
2.0988172226134467,22.181871717558977,-0.07906010328108701,1.8803440946872916,-2.0945247713555286
2.0830618633980325,21.809111772906906,-0.0784934888730558,1.8472553518334391,-2.016967653769743
2.067429342401439,21.44288798095666,-0.07783172109287984,1.8149825676690379,-1.9432656784264508
2.05193744438744,21.08304058597676,-0.07708725904711022,1.7834913821299614,-1.8731411827799906
2.036601603121563,20.729416514147452,-0.07627115361165865,1.7527493361630864,-1.806341786657744
2.0214351663950305,20.38186900667774,-0.07539321365366536,1.722725738534079,-1.74263769735412
2.0064496299107395,20.040257278420963,-0.0744621511892422,1.6933915440336682,-1.6818193397224608
1.9916548439562818,19.704446199826528,-0.07348570835533622,1.6647192419106926,-1.623695267837241
1.9770591962556838,19.374306000285166,-0.07247076865064395,1.6366827535029094,-1.5680903211430768
1.9626697739362196,19.049711991118983,-0.07142345454399882,1.609257338158965,-1.5148439933473585
1.9484925071570525,18.730544306638045,-0.07034921324767282,1.5824195066503774,-1.4638089868206605
1.934532296612452,18.416687661836654,-0.06925289219833052,1.5561469413635276,-1.4148499290832481
1.9207931268353846,18.108031125436227,-0.06813880557234352,1.5304184226407553,-1.3678422311916112
1.9072781669802958,17.804467907101298,-0.06701079297854523,1.5052137607085112,-1.3226710705904146
1.8939898605509324,17.505895157761383,-0.0658722713150891,1.480513732690651,-1.279230483340439
1.8809437120585044,17.212217454333057,-0.06458921360919169,1.4562633015926234,-1.2334288595132703
1.8681530130225488,16.923342729476232,-0.0633177767503635,1.4324839469756265,-1.189711343944944
1.8556152889191146,16.639178448632805,-0.06205946428397881,1.4091588614586361,-1.1479584627259292
1.8433277874526048,16.35963536172767,-0.0608155503811208,1.3862720075927089,-1.1080588902707875
1.8312875217791462,16.084627353638044,-0.059587106353463204,1.3638080733035534,-1.06990880514924
1.8194913087274316,15.81407130326555,-0.058375024163684175,1.3417524304213753,-1.0334113036522068
1.8079358025826857,15.547886950618668,-0.057180037283774465,1.3200910960474428,-0.998475865318321
1.796617524933298,15.285996771360907,-0.05600273921010105,1.2988106965301855,-0.9650178652829869
1.7855328910216612,15.028325858323434,-0.05484359990626887,1.2778984338445354,-0.932958128872027
1.774678232989844,14.774801809520287,-0.05370298041190142,1.2573420541869351,-0.9022225243553231
1.7640498203659778,14.52535462224007,-0.05258114582676381,1.2371298186152313,-0.8727415902111822
1.7536438780978405,14.279916592820772,-0.051478276854606694,1.2172504755777587,-0.8444501936368465
1.7434566024054576,14.038422221744046,-0.05039448006922379,1.1976932351895058,-0.8172872173809944
1.7334841746939282,13.800808123712546,-0.04932979704606941,1.1784477451254922,-0.7911952722757596
1.7237227737407201,13.567012942398744,-0.04828421248601186,1.1595040680125381,-0.766120433113505
1.7141685863478096,13.33697726957643,-0.047257661443094026,1.140852660210592,-0.7420119957514693
1.704817816627974,13.110643568366989,-0.04625003575526365,1.122484351883825,-0.7188222535390553
1.6956666940758782,12.887956100351616,-0.04526118976569321,1.1043903282698888,-0.6965062913510798
1.6867114805580758,12.668860856318311,-0.044290945412330786,1.086562112063169,-0.6750217956784903
1.6779484763413888,12.453305490428534,-0.04333909675453749,1.0689915468346174,-0.6543288793782502
1.6693740252661429,12.241239257603382,-0.04240541399792276,1.0516707814168886,-0.634389919818388
1.660984519159185,12.032612953942785,-0.0414896470716567,1.0345922551890996,-0.6151694092744197
1.6527764015713686,11.827378860003812,-0.040591528806505336,1.0177486842006267,-0.5966338165410883
1.644746170915068,11.625490686775947,-0.03971077775650231,1.001133048078011,-0.5787514588200173
1.6368903830691723,11.426903524201819,-0.03884710070245291,0.9847385776632862,-0.561492383030685
1.6292131205270484,11.23175950220789,-0.03792552471878772,0.9667016422759994,-0.5819431412974688
1.6217156374193507,11.040211541148238,-0.037049306358189406,0.9487779683205109,-0.6041610642530315
1.6143889680746026,10.852237296385887,-0.03621738708929098,0.9309644793029856,-0.628031037559103
1.607224363513773,10.667815026210352,-0.03542865851900327,0.9132582224523643,-0.6534406506607211
1.6002133008564257,10.486923567550779,-0.03468196805447178,0.8956563641433593,-0.6802799414127748
1.5933474916458565,10.30954231256188,-0.033976124051218796,0.8781561857456166,-0.7084411469991326
1.5866188891923718,10.135651185998679,-0.0333099004836279,0.8607550798863928,-0.7378184600943658
1.580019695026952,9.96523062329835,-0.032682041170569096,0.8434505471169059,-0.7683077892325856
1.573542364551317,9.798261549289126,-0.03209126358578336,0.8262401929753455,-0.799806522354815
1.5671796119647765,9.634725357447351,-0.03153626227962019,0.8091217254423975,-0.8322132925055249
1.560924414543232,9.474603889624301,-0.031015711935825804,0.7920929527880998,-0.8654277446403328
1.5547700163412204,9.317879416164299,-0.030528270084288663,0.7751517818119189,-0.8993503024901554
1.5487099313839976,9.16453461633499,-0.030072579487938504,0.7582962164811836,-0.9338819344019984
1.5427379464132698,9.014552558989227,-0.029647270219340906,0.7415243569764614,-0.9689239170426694
1.536848123247345,8.867916683375963,-0.02925096143990646,0.7248343991561766,-1.0043775958085182
1.5310348008141528,8.724610780014665,-0.028882262892016227,0.7082246344567988,-1.0401441407312795
1.5252925969137785,8.58461897154405,-0.028539776111726617,0.6916934502493407,-1.0761242966065636
1.519616409765903,8.447925693451339,-0.028222095367028913,0.6752393306777749,-1.1122181259967796
1.514001419396813,8.314515674582523,-0.027927808323871175,0.6588608580103833,-1.1483247436734836
1.5084430889204987,8.184373917327378,-0.027655496439271107,0.6425567145410904,-1.1843420409644685
1.5029371657687893,8.057485677364806,-0.0274037350778224,0.6263256850846145,-1.2201663983574615
1.4974796829265387,7.933836442844655,-0.027171093344685853,0.6101666601169125,-1.2556923845841887
1.4920669602295982,7.813411912870858,-0.02695613362471809,0.5940786396210456,-1.2908124402649896
1.4866956057857585,7.696197975137913,-0.02675741081367808,0.5780607377084042,-1.3254165440344376
1.4813625175820495,7.582180682557436,-0.026573471223412897,0.5621121880963886,-1.359391858892133
1.476064885345858,7.471346228694163,-0.026402851138500646,0.5462323505363513,-1.3926223563300302
1.4708001927323124,7.36368092181052,-0.026244074996954105,0.5304207183000806,-1.424988415579053
1.4655662199163983,7.259171157295551,-0.026095653162188332,0.5146769268496122,-1.456366395095122
1.4603610466754353,7.157803388227197,-0.025956079247442438,0.4990007638339411,-1.4866281731714177
1.455183056055979,7.059564093786047,-0.025823826947120362,0.48339218057756617,-1.5156406543253556
1.450030938729071,6.96443974520329,-0.025697346321959462,0.4678513052500013,-1.5432652378742946
1.4449036981492343,6.872416768885021,-0.025575059476409052,0.4523784579326894,-1.5693572448971762
1.4398006566459,6.783481506308718,-0.025455355556932666,0.43697416783035103,-1.5937652996006364
1.4347214625913143,6.697620170234906,-0.025336584988925073,0.4216391929077595,-1.6163306609979942
1.4296660988066932,6.614818796717117,-0.02521705285728684,0.40637454227012465,-1.6368865008121758
1.4246348923888577,6.535063192325584,-0.025095011321068644,0.3911815016451941,-1.6552571236932776
1.4196285261632005,6.458338875924387,-0.024968650935502542,0.3760616623667774,-1.671257126290687
1.4146480519961995,6.384631014257639,-0.024836090734505753,0.3610169543007015,-1.68469049257169
1.4096949062325077,6.313924350508387,-0.024695366902412638,0.3460496831918361,-1.6953496242245605
1.4047709275588813,6.246203124895278,-0.024544419833849977,0.3311625729392458,-1.7030143072988662
1.3998783776411763,6.181450986269663,-0.024381079343202838,0.31635881331688953,-1.7074506198133441
1.395019964933177,6.119650893574402,-0.024203047736790502,0.3016421136357251,-1.7084097904685704
1.3901988721198304,6.060785005934015,-0.02400788039667473,0.2870167627681418,-1.705627026652154
1.3854187877364532,6.004834560077754,-0.02379296343709544,0.27248769579447896,-1.6988203417902727
1.3806839426057025,5.951779733774899,-0.023555487870412405,0.2580605672340639,-1.6876894294681997
1.37599915186474,5.901599494020051,-0.02329241953921142,0.24374183031442193,-1.671914657041704
1.371369863530533,5.854271428898674,-0.02300046380286117,0.22953882089935676,-1.651156288176946
1.3668022147944048,5.8097715624715,-0.022676023558420005,0.2154598433723774,-1.6250540968724134
1.3623030975842518,5.768074152763074,-0.022315148543109804,0.20151425371187512,-1.5932276120971602
1.357880235442815,5.729151474207157,-0.021913472871259533,0.18771253184728637,-1.555277342091298
1.3535422745378218,5.6929735879562635,-0.021466136178671737,0.17406633066166471,-1.5107874840426043
1.3492988927982583,5.659508106684395,-0.02096768121696414,0.16058848205700926,-1.4593308457140537
1.3451609330097378,5.628719965424352,-0.020411916668240056,0.14729293054343517,-1.4004770113326734
1.3411405686042477,5.600571217259819,-0.0197917273866615,0.13419455110187783,-1.3338051944067473
1.3372515154940405,5.5750208831113035,-0.019098803715409427,0.12130879038326953,-1.2589237414394099
1.333509310657585,5.552024899051855,-0.018323244649145535,0.10865105021123676,-1.1754988446754762
1.3299316899017608,5.531536222429406,-0.017452962909095766,0.09623571601324102,-1.0832955378457836
1.326539115782576,5.5135051771611145,-0.016472778282751142,0.08407473666968018,-0.9822340849587372
1.3233555358736544,5.497880131171733,-0.015363020806466532,0.07217572322412377,-0.8724635426111407
1.3204094976024063,5.484608586471076,-0.014097361906013035,0.060539723782441386,-0.7544499233928068
1.3177358209209615,5.4736386870863285,-0.012639404908433929,0.049159270065047764,-0.6290665814413772
1.3153781673421248,5.464920945791842,-0.010937130879933622,0.038018142879812894,-0.4976572896621956
1.3133931611179859,5.458409548516578,-0.008912931361454197,0.02709582987284237,-0.36202078448928643
1.3118577140987295,5.454061659485166,-0.006441538831108706,0.01638306044125537,-0.22425241789708786
1.3108856575611796,5.451830285445336,-0.0032790265443914286,0.0059306799570343904,-0.08639631714164783
