x,y,v_x,v_y,omega
2.375,32.48,0.0,3.5897435897435894,-2.612244897959184
2.374275113994993,31.771523152078277,-0.0072488600500690325,3.495024889473601,-2.419973067000183
2.372223667309398,31.081546051773927,-0.013265606805880441,3.4047461135698893,-2.2490774244890077
2.369071914369365,30.40921291920138,-0.01825192259445086,3.318585212155615,-2.096507477822565
2.365009337003361,29.753729273497182,-0.022373851065590533,3.2362512448863336,-1.9597235159290916
2.36019508450243,29.114356091176692,-0.025768673943719584,3.1574805783185753,-1.836600054620052
2.3547631826648967,28.4904046678152,-0.028550344431611013,3.082033655296373,-1.7253494579757331
2.3488267677435952,27.881232079047933,-0.030813804781404063,3.0096922323762714,-1.6244611378204794
2.3424815437001767,27.286237155438865,-0.03263843565278323,2.940257003714402,-1.5326528654006002
2.335808617550847,26.70485690040166,-0.034090825840513615,2.8735455466576543,-1.4488315623849284
2.328876834270147,26.136563292027592,-0.03522700696648546,2.8093905370830288,-1.3720615565782865
2.3217447071027317,25.580860419079364,-0.03609426470766872,2.747638192399256,-1.3015387503207627
2.3144620193156973,25.037281909057054,-0.03673261316267442,2.688146907823848,-1.2365694982434103
2.307071158003798,24.505388612512746,-0.03717599995631832,2.630786057619197,-1.1765532557512721
2.2996082284952943,23.984766512970353,-0.0374532951287176,2.5754349378047325,-1.1209682618722565
2.2921039884178613,23.47502483611536,-0.03758910564561204,2.521981830745204,-1.069359675637419
2.28458463298489,22.975794335524817,-0.037604448684102766,2.4703231751602543,-1.0213297054541028
2.2770724571077037,22.486725735242096,-0.0375173100877585,2.420362827666928,-0.9765293645026276
2.2695864151894076,22.007488312067867,-0.03734310909520297,2.3720114040753684,-0.9346515583578144
2.2621425956511536,21.537768602620204,-0.03709508628733631,2.325185690401284,-0.8954252685482659
2.254754624181058,21.07726922207924,-0.03678462841361834,2.279808115008318,-0.858610641191156
2.2474340072244683,20.62570778312789,-0.03642154115228042,2.235806274505202,-0.8239948258865591
2.2401904252308533,20.18281590497333,-0.03601427878387262,2.1931125070404045,-0.7913884387879196
2.233031983542695,19.748338303519702,-0.03557013809771207,2.1516635074958748,-0.7606225467669262
2.2259654274811007,19.32203195478919,-0.03509542251822519,2.111399979809233,-0.7315460880813038
2.218996327092841,18.903665324580977,-0.034595581364372414,2.072266322272884,-0.7040236598771654
2.2121292361277076,18.49301765813498,-0.03407532828696236,2.034210342187106,-0.6779336149481326
2.205367829076613,18.089878324246563,-0.033538742223983606,1.997182996697044,-0.6531664200055312
2.1987150194901806,17.694046208873583,-0.03298935364034091,1.9611381570327722,-0.629623235738177
2.1921730622911717,17.30532915379959,-0.032430218349747936,1.9260323937071822,-0.6072146855117576
2.1857436423729415,16.92354343637721,-0.031863980832555594,1.8918247805165949,-0.5858597849576509
2.1794279514249113,16.548513286781496,-0.03129292864774443,1.8584767154405557,-0.5654850091525511
2.1732267546324135,16.180070439561845,-0.030719039277234374,1.8259517567559427,-0.5460234777715666
2.167140448652119,15.818053716599145,-0.03014402052571029,1.7942154728710564,-0.5274142416510985
2.1611691120574466,15.462308638856861,-0.029569345421014748,1.7632353045518006,-0.5096016567383106
2.1553125492741323,15.112687064565904,-0.028996282412127927,1.7329804383577616,-0.49253483352366706
2.149570328879076,14.769046851706744,-0.02842592153843311,1.703421690233828,-0.47616715182649316
2.1439418170111355,14.431251542851825,-0.02785919714097512,1.6745313983153725,-0.46045583229136694
2.1384262065370176,14.099170070609887,-0.027296907600199805,1.6462833241040242,-0.44536155720467563
2.1330225425257665,13.772676482073642,-0.02673973251231578,1.6186525612584328,-0.43084813429609914
2.127729744508977,13.451649680815628,-0.026188247655575286,1.5916154513216976,-0.41688219808206484
2.122546625938771,13.1359731851059,-0.025642938046488182,1.5651495057755773,-0.4034329440644046
2.1174719111998552,12.825534901141108,-0.02510420934266664,1.5392333338723323,-0.3904718917398089
2.1125042504843554,12.52022691017897,-0.02457239781233493,1.5138465757490362,-0.3779726729226033
2.1076422327971773,12.219945268566342,-0.02404777905944401,1.4889698403772595,-0.3659108423500983
2.1028896613290353,11.924590202118672,-0.02347793562197392,1.4645808240994231,-0.3527893346199809
2.098249743982571,11.634065522408974,-0.022921237842669136,1.440665972997559,-0.34026497552879287
2.0937198659194785,11.348278079614612,-0.0223775427882589,1.4172084549460469,-0.3283035495302231
2.089297443610223,11.067138014036832,-0.02184668030429516,1.3941922008317438,-0.31687317278741073
2.0849799298072518,10.790558607836232,-0.021328457725417492,1.3716018611742629,-0.3059441090672479
2.0807648176386393,10.518456145151635,-0.02082266396070765,1.3494227656717215,-0.29548860210599864
2.0766496439391147,10.25074978004011,-0.02032907303453978,1.3276408854435384,-0.28548072280314024
2.0726319919203875,9.987361411719547,-0.0198474471527308,1.3062427977620699,-0.2758962297807708
2.0687094932696493,9.728215566635033,-0.01937753935465211,1.2852156530830812,-0.2667124420047715
2.064879829753777,9.473239286906576,-0.01891909580406802,1.2645471442014888,-0.25790812230395915
2.0611407343969064,9.222362024749064,-0.01847185776463971,1.2442254773736523,-0.24946337074711597
2.05748999229043,8.975515542485606,-0.01803556330012434,1.2242393452609261,-0.24135952694711568
2.053925441087,8.732633817803379,-0.01760994873417813,1.2045779015613451,-0.2335790804581688
2.050444971223559,8.49365295392651,-0.017194749900229657,1.1852307372073394,-0.22610558851803708
2.047046525912733,8.258511094404039,-0.016789703208031467,1.1661878580173826,-0.21892360046326498
2.0437281009369155,8.027148342232444,-0.01639454655014399,1.1474396636985675,-0.21201858821321068
2.0404877442750324,7.799506683052051,-0.016009020068687072,1.128976928105373,-0.2053768822789473
2.037323555588148,7.575529912174773,-0.015632866800152138,1.1107907806674078,-0.19898561280683444
2.0342336855867478,7.3551635652174525,-0.015265833213851589,1.0928726889057827,-0.19283265521449836
2.031216335299598,7.1383548521304725,-0.014907669657648084,1.0752144419640135,-0.18690658001978502
2.0282697552615416,6.925052594425562,-0.014558130722917423,1.0578081350850737,-0.1811966065015519
2.0253922446353276,6.715207165419912,-0.01421697553922258,1.0406461549714352,-0.1756925598654584
2.0225821502806167,6.508770433325797,-0.01388396800788529,1.0237211659697107,-0.17038483161865692
2.019837865781577,6.3056957070262385,-0.013558876982511486,1.0070260970258853,-0.16526434288487235
2.0171578304429723,6.105937684387538,-0.013241476403536958,0.9905541293611283,-0.16032251041613982
2.014543159819441,5.909623914568893,-0.01290522983177543,0.9725835688253198,-0.1895196606534477
2.01199244550857,5.716893351556248,-0.012601913276937328,0.9547220613011436,-0.22027071334947879
2.0094991595717686,5.527724475597804,-0.01233094609107296,0.9369666982832858,-0.2524723895529741
2.0070568965617857,5.342096337631332,-0.012091684008756704,0.9193146813814435,-0.2860236339592735
2.004659385628535,5.159988537654243,-0.011883425323747802,0.901763318389452,-0.3208253946640091
2.0023005014425848,4.981381203843888,-0.011705416535757966,0.8843100197140944,-0.3567804071575513
1.9999742740386546,4.8062549723570385,-0.011556857503542533,0.8669522951544129,-0.3937929816818088
1.997674897674586,4.634590967739129,-0.011436906137144012,0.8496877510246889,-0.43176879307113947
1.9953967387949814,4.466370783874996,-0.011344682658900979,0.8325140876166409,-0.4706146721927289
1.9931343431831148,4.301576465413447,-0.011279273459765001,0.8154290969988438,-0.5102383980885905
1.9908824423796867,4.140190489598169,-0.011239734574517355,0.7984306611539302,-0.5505484899010101
1.9886359594425729,3.9821957484370927,-0.011225094796619964,0.7815167504568328,-0.5914539976353802
1.9863900141178463,3.827575531141388,-0.01123435845064511,0.764685422500197,-0.6328642907784544
1.984139927489034,3.6763135067637513,-0.011266507837479452,0.7479348212761877,-0.674688843745494
1.9818812261688097,3.5283937069634064,-0.011320505364762532,0.7312631767272761,-0.7168370170758818
1.9796096460951065,3.38380050882245,-0.011395295372269302,0.7146688046822847,-0.7592178332327328
1.9773211359919647,3.242518617634417,-0.011489805659150419,0.6981501071980459,-0.8017397457868982
1.9750118605543425,3.1045330495814554,-0.01160294871707035,0.6817055733315776,-0.8443104006784926
1.9726782034156058,2.96982911421102,-0.011733622670297095,0.6653337803727715,-0.8868363881484796
1.97031676995651,2.8383923966164097,-0.011880711920660257,0.6490333955733386,-0.9292229838176023
1.9679243900152477,2.7102087392176486,-0.012043087491964512,0.6328031784142607,-0.9713738772585926
1.9654981205595634,2.5852642230300837,-0.012219607064876901,0.6166419834614045,-1.0131908862585548
1.9630352483841311,2.4635451482972037,-0.012409114689447144,0.6005487638674121,-1.0545736547999993
1.960533292899365,2.3450380143516973,-0.012610440158212655,0.5845225755876683,-1.095419332599465
1.957990009081722,2.229729498554004,-0.0128223980182192,0.5685625823892756,-1.1356222338302462
1.9554033906603818,2.117606434140601,-0.01304378619518067,0.5526680617447719,-1.1750734724187677
1.9527716736211314,2.0086557867944137,-0.013273384197324375,0.536838411717094,-1.2136605710412267
1.9500933401153864,1.9028646297267713,-0.013509950860126674,0.5210731589593298,-1.2512670406572863
1.9473671228707705,1.8002201170335894,-0.013752221586030027,0.50537196797248,-1.287771927100769
1.9445920102096452,1.7007094550576234,-0.013998905025222396,0.48973465178717196,-1.3230493209046508
1.9417672517936722,1.6043198714527591,-0.01424867913451082,0.4741611842614885,-1.3569678261724945
1.9388923652261143,1.5110385816048826,-0.014500186541066756,0.45865171421726764,-1.3893899839272104
1.9359671436593908,1.4208527520159642,-0.014752029126167259,0.443206581671924,-1.4201716449818391
1.9329916645736969,1.3337494602025188,-0.01500276173077245,0.4278263364625157,-1.449161287004078
1.9299662999136609,1.2497156505958777,-0.015250884869588244,0.4125117596038844,-1.4761992701149809
1.9268917277944198,1.1687380858581378,-0.015494836322821885,0.3972638877735081,-1.5011170251162447
1.9237689460166663,1.0908032929435656,-0.015732981454714922,0.3820840413722145,-1.5237361683455222
1.9205992876627374,1.0158975031391861,-0.015963602084572624,0.36697385667156296,-1.5438675373133717
1.9173844390834156,0.9440065852096247,-0.01618488370864518,0.3519353226240613,-1.561310141824301
1.9141264606286708,0.8751159706493681,-0.016394900838802552,0.3369708229785126,-1.575850026442698
1.9108278105262944,0.8092105699110839,-0.01659160018496299,0.32208318440433426,-1.5872590422488222
1.9074913723717557,0.7462746783329983,-0.016772781360423584,0.3072757313765145,-1.595293529306435
1.9041204867628,0.6862918703361665,-0.016936074729131695,0.29255234859178875,-1.5996929168181822
1.9007189876962782,0.6292448803117843,-0.01707891593608652,0.27791755165203574,-1.6001782565885132
1.897291244446894,0.5751154684842241,-0.017198516557756435,0.2633765666235649,-1.5964507186381596
1.8938422097746712,0.5238842699419735,-0.01729183016447238,0.24893541879894854,-1.588190097821475
1.890377475470436,0.47553062501663135,-0.017355512877876983,0.2346010304544714,-1.5750534103425453
1.8869033364631629,0.430032389325099,-0.017385877194855875,0.2203813264608802,-1.556673703953495
1.8834268650066932,0.3873657221753106,-0.01737883736984035,0.20628534503697654,-1.532659272427144
1.8799559968807074,0.3475048528332323,-0.017329843890018737,0.19232334838382864,-1.5025935639903196
1.8764996321560736,0.31042182560708653,-0.017233803356318536,0.17850692387762357,-1.466036219786038
1.8730677540124805,0.2760862272025335,-0.017084978079612463,0.16484906016792789,-1.4225258933658496
1.869671570566935,0.24446490389961895,-0.016876856375845142,0.15136417286119094,-1.371585814693378
1.866323687031653,0.21552168260356552,-0.01660197897697211,0.13806804009934856,-1.3127335088457512
1.863038319372403,0.1892171198130228,-0.016251697615529085,0.12497758780607172,-1.245496699647485
1.8598315670007333,0.16550831734334537,-0.015815826101168294,0.11211043689071251,-1.1694382439851942
1.856721772605812,0.14434886441659955,-0.015282117848041088,0.09948409237673997,-1.0841939047919587
1.853730014816796,0.1256889924211464,-0.014635460042120331,0.08711462757782326,-0.9895276303467034
1.8508808085428896,0.10947605714736142,-0.013856602696941937,0.07501472516006176,-0.8854090383180753
1.8482031360097086,0.09565547936092145,-0.01292012263486845,0.06319105270430676,-0.7721153058353277
1.8457320118321947,0.08417224228393394,-0.011791119140271138,0.0516413180655566,-0.6503513676685702
1.8435109272072996,0.0749728890008825,-0.010419727108678688,0.04035221476496509,-0.5213635784978254
1.8415958134238872,0.06800754862019431,-0.008731410725444857,0.029301189041909894,-0.38699049879667213
1.8400619935985798,0.06323058806157889,-0.006606787527630701,0.01846841654425851,-0.24956039710694575
1.8390189892892816,0.06059601959695016,-0.0038232555653505444,0.007877268102054538,-0.11153979593380811
