x,y,v_x,v_y,omega
2.375,32.48,0.0,2.871794871794872,-5.061224489795919
2.3738061875803345,31.8839333273925,-0.01136964209205114,2.8050305816098327,-4.743153182223675
2.3703981996182697,31.301603483308284,-0.021087386118091713,2.740967933477968,-4.454948457796553
2.3650987961936765,30.732461887380143,-0.02938312268755621,2.679428218218618,-4.192962509109894
2.3581861157830692,30.175995727957137,-0.03645192884203633,2.620249490571921,-3.9540764282482517
2.34990037318793,29.631724666587626,-0.04245990539738361,2.563284427232918,-3.7356124657674403
2.3404494456312097,29.099197955035933,-0.04754892847614366,2.508398539926086,-3.5352626461770886
2.330013551518831,28.577991897828035,-0.05184053926079752,2.4554686715777048,-3.351030349260588
2.31874918469562,28.067707606658924,-0.055439144769781665,2.404381720509035,-3.1811822425619
2.3067924347560673,27.56796900325081,-0.058434664178341436,2.3550335500444315,-3.0242085315103866
2.294261798758223,27.078421035220337,-0.060904726277321346,2.307328050245775,-2.878789933277052
2.2812605698335475,26.598728075765457,-0.06291650157672762,2.2611763255149997,-2.743770116094077
2.267878872436014,26.12857248293436,-0.0645282355426383,2.2164959871621317,-2.61813260418739
2.2541954013995795,25.66765329819618,-0.06579053623293143,2.1732105341538617,-2.500981348980972
2.2402789118744124,25.2156850672226,-0.06674745924484869,2.1312488084516326,-2.3915243239217494
2.226189499057445,24.772396768381235,-0.06743742472627319,2.0905445138470986,-2.2890596235310943
2.211979700014722,24.337530836564014,-0.06789399472822781,2.0510357891740525,-2.192963644841328
2.197695444497202,23.910842271724682,-0.06814653401005559,2.0126648283433983,-2.1026810070244384
2.1833768772333624,23.492097822953735,-0.06822077326461026,1.9753775409037184,-2.0177159271556238
2.1690590705496304,23.081075240135245,-0.06813929038997939,1.939123247843806,-1.9376248200238697
2.154772643172169,22.67756258625299,-0.06792192272869803,1.9038544081776607,-1.8620099302759239
2.1405442985811898,22.281357604279012,-0.06758612099491751,1.869526372526905,-1.7905138379455985
2.1263972942263467,21.89226713331422,-0.06714725381311228,1.83609716047112,-1.7228147051221938
2.112351851192466,21.510106569280566,-0.06661887031908122,1.803527258896995,-1.6586221533584047
2.0984255124674003,21.134699366005485,-0.06601292706249884,1.771779438960953,-1.597673679359438
2.084633456758548,20.765876573006416,-0.0653399844503794,1.7408185896016075,-1.5397315312821755
2.0709887737912496,20.403476406688252,-0.0646093771429405,1.7106115658094516,-1.4845799802023167
2.05750270616803,20.047343852018734,-0.06382936212581734,1.681127050090708,-1.4320229314541664
2.0441848621457757,19.69733029205467,-0.06300724760994106,1.6523354257575513,-1.3818818289931218
2.031043403076358,19.353293162961528,-0.062149505432130464,1.6242086608437922,-1.333993812981406
2.018085208736945,19.015095632406158,-0.06126186922894297,1.5967202015883228,-1.288210096700675
2.005316023334297,18.68260629941142,-0.06034942032008838,1.5698448745520033,-1.2443945338513127
1.9927405845904416,18.355698913946725,-0.0594166629547252,1.543558796540373,-1.2024223514706307
1.9803627379949957,18.034252114692283,-0.05846759033523464,1.5178392915971626,-1.162179027223911
1.968185538033518,17.71814918356109,-0.057505742631220345,1.492664814414213,-1.1235592928022005
1.9562283065285508,17.40728077830055,-0.056372652654181274,1.4679866642575794,-1.0819269450934674
1.9445080340487837,17.10154156402534,-0.0552489900102677,1.4438153764587247,-1.0422694883782466
1.9330225733202542,16.800827062079783,-0.05413635026144111,1.4201322611179845,-1.0044692467938867
1.9217694676387596,16.505036625338203,-0.05303608480041166,1.396919517373248,-0.9684168876211795
1.910745999088738,16.214073257091705,-0.05194932996169903,1.3741601802124586,-0.9340107361626515
1.8999492310078165,15.927843440704986,-0.05087703271374423,1.3518380710896387,-0.9011561543700001
1.8893760453712936,15.646256979277762,-0.04981997334837897,1.3299377520267965,-0.8697649766056229
1.879023175689004,15.369226844608928,-0.04877878553056947,1.3084444829144661,-0.8397549966792175
1.8688872359356474,15.09666903481908,-0.04775397402520666,1.2873441817507427,-0.8110495009622175
1.8589647459733345,14.828502440039049,-0.04674593037777322,1.2666233875828843,-0.7835768429631012
1.8492521538706028,14.564648715619438,-0.04575494679109832,1.2462692259372266,-0.7572700552562084
1.8397458554744497,14.305032162359058,-0.04478122841036253,1.2262693765425743,-0.732066495104962
1.8304422115501096,14.049579613289271,-0.04382490420240001,1.2066120431696712,-0.707907520515284
1.8213375627666326,13.79822032658683,-0.042886036592619727,1.1872859254250256,-0.6847381938034091
1.8124282427740854,13.550885884220296,-0.04196463000306572,1.1682801923514832,-0.6625070100701461
1.8037105895898882,13.307510095964822,-0.04106063841786298,1.1495844577006633,-0.6411656482460305
1.7951809554868556,13.068028908447097,-0.04017397208720838,1.1311887567538697,-0.6206687426131615
1.786835715553572,12.832380318907202,-0.039304503467874105,1.1130835245784678,-0.6009736729236717
1.7786712750783478,12.60050429338677,-0.038452072486642994,1.0952595756161343,-0.5820403714250248
1.7706840758909377,12.372342689073747,-0.03761649120297553,1.0777080845078968,-0.5638311452715923
1.7628706017811004,12.147839180553213,-0.03679754793833029,1.060420568068628,-0.5463105129527058
1.7552273830997407,11.926939189731286,-0.035995010931763875,1.0433888683306745,-0.5294450535018353
1.7477510006365744,11.709589819215381,-0.03520863157458322,1.0266051365827011,-0.513203267371578
1.7404380888578097,11.495739788948956,-0.034438147270793355,1.0100618183356453,-0.49755544796646467
1.7332853385780753,11.285339375912649,-0.03368328396477312,0.9937516391529843,-0.4824735629216337
1.7262957798484524,11.07848251621618,-0.03288394203163353,0.9763136912895716,-0.4950698960891865
1.7194701884222707,10.875275275964121,-0.03212169059866917,0.9589933587300259,-0.5097142916180544
1.7128008159922616,10.675693304472986,-0.03139614206808404,0.9417873221379196,-0.5262894361204056
1.706280004855984,10.479712934204183,-0.030706821134560126,0.9246923947078295,-0.5446813280024978
1.6999002054753298,10.287311153525717,-0.030053172966908168,0.907705516515674,-0.5647790195742255
1.6936539923883147,10.098465580613652,-0.02943457071895047,0.8908237493135085,-0.5864743679340995
1.6875340786089055,9.913154438402099,-0.028850322418280085,0.8740442717488988,-0.6096617936129696
1.68153332864085,9.731356530494342,-0.028299677277487216,0.8573643749916364,-0.6342380459928205
1.6756447702225046,9.55305121795114,-0.02778183146865861,0.8407814587531349,-0.660101974543164
1.6698616049114623,9.378218396874992,-0.027295933398410018,0.8242930276863693,-0.687154304937052
1.6641772176103047,9.206838476711468,-0.026841088517377664,0.8078966881567289,-0.7152974191216067
1.6585851851280107,9.038892359190463,-0.02641636369494632,0.7915901453766685,-0.7444351384241975
1.6530792838654058,8.874361417831455,-0.026020791187004115,0.7753712008995893,-0.7744725087749205
1.6476534967074958,8.713227477937544,-0.02565337222166352,0.7592377504710038,-0.8053155871187103
1.6423020192005804,8.555472797003123,-0.025313080225150716,0.7431877822377541,-0.8368712280760191
1.6370192650876607,8.401080045459672,-0.02499886370741846,0.7272193753189067,-0.8690468698892522
1.6317998712718136,8.250032287682963,-0.024709648824457812,0.7113306987449795,-0.9017503186626985
1.626638702273912,8.102312963183323,-0.024444341631747857,0.695520010775401,-0.9348895298660951
1.6215308542482978,7.957905867898106,-0.024201830040766308,0.679785658607625,-0.9683723860257109
1.6164716586177814,7.816795135502314,-0.023980985487962708,0.6641260784951594,-1.002106469471349
1.6114566853876258,7.6789652186492425,-0.02378066432304373,0.6485397962960011,-1.0359988289422686
1.606481746197021,7.544400870048008,-0.023599708920809603,0.63302542847765,-1.0699557387790066
1.6015428971659373,7.413087123278796,-0.023436948518082458,0.6175816836100991,-1.1038824493406345
1.5966364415952214,7.28500927323941,-0.023291199774449507,0.6022073643840565,-1.1376829271872744
1.5917589325783843,7.160152856108269,-0.02316126705257226,0.5869013701982406,-1.171259583454893
1.586907175584746,7.0385036286989155,-0.02304594241064922,0.5716627003670449,-1.2045129887226222
1.5820782310755246,6.920047547069505,-0.02294400529622223,0.556490458008309,-1.23734157253141
1.577269417217103,6.804770744237178,-0.022854221926839037,0.541383854680529,-1.269641305556065
1.572478312759182,6.692659506831497,-0.022775344339075198,0.526342215849765,-1.3013053622604784
1.5677027601498623,6.583700250502982,-0.02270610908301843,0.5113649872789493,-1.332223761678155
1.5629408689650268,6.477879493881812,-0.02264523553446182,0.4964517424464931,-1.3622829837581247
1.5581910197357836,6.375183830857615,-0.022591423791663668,0.4816021911172689,-1.3913655585019384
1.5534518682653191,6.27559990092352,-0.02254335211752413,0.4668161892074605,-1.419349624894474
1.5487223505354422,6.179114357295639,-0.02249967388130137,0.452093750105699,-1.446108456405919
1.5440016883135312,6.0857138324827,-0.02245901394642347,0.4374350576365846,-1.4715099496242057
1.539289395582704,5.995384900938525,-0.02241996444240458,0.4228404808793682,-1.495416072381105
1.5345852859320888,5.908114038382333,-0.022381079849170274,0.4083105910843813,-1.5176822675830925
1.5298894810602688,5.823887577317382,-0.022340871311020305,0.39384618096277374,-1.5381568088822428
1.5252024205637154,5.742691658216881,-0.022297800084726895,0.3794482866610379,-1.556680104369794
1.52052487320361,5.664512175776618,-0.022250270011514174,0.3651182127700442,-1.5730839447136202
1.5158579498694356,5.589334719556209,-0.022196618885385617,0.3508575607576697,-1.5871906926886143
1.5112031184866457,5.517144508245156,-0.02213510856975619,0.3366682612523459,-1.5988124120067255
1.5065622211494145,5.447926316696641,-0.02206391368958787,0.32255261063825935,-1.6077499349432445
1.5019374937989571,5.3816643947728515,-0.021981108695721393,0.3085133124454478,-1.613791870768004
1.49733158881465,5.318342376943978,-0.021884653059583488,0.2945535240200213,-1.616713560841024
1.4927476009412155,5.257943181484624,-0.021772374306460486,0.28067690892620867,-1.6162759920202932
1.4881890970435263,5.200448898026199,-0.02164194852867247,0.26688769543974333,-1.6122246886156177
1.4836601502656008,5.1458406621679025,-0.021490877927762667,0.25319074130593383,-1.604288615745603
1.4791653792787942,5.094098515847563,-0.021316464803727706,0.2395916046020487,-1.5921791453979992
1.474709993446544,5.04520125226626,-0.021115781217704088,0.22609661998179137,-1.5755891633212677
1.470299844925602,4.99912624440789,-0.0208856332674569,0.21271297866936484,-1.554192433765489
1.4659414889925582,4.955849256688513,-0.020622518475817253,0.19944880913424018,-1.5276433952901889
1.4616422542711947,4.915344240147981,-0.02032257410859694,0.186313253156528,-1.495577641773737
1.4574103251080097,4.8775831130616325,-0.019981513159831342,0.17331652861821,-1.457613458670783
1.4532548392088684,4.842535531198084,-0.019594543022465008,0.16046996532033792,-1.4133549492921638
1.4491860049859109,4.810168655598147,-0.019156259100940515,0.14778599277430732,-1.3623975169905234
1.4452152451575624,4.780446931264983,-0.01866050116904468,0.13527804849393962,-1.3043367865125781
1.4413553764603486,4.753331898246962,-0.01810015309013534,0.12296036120148002,-1.238782467924345
1.4376208406157143,4.728782068022365,-0.01746685495399979,0.11084754569946065,-1.165379186691926
1.434028010133475,4.706752913346605,-0.0167505782101848,0.098953927403031,-1.0838368639098332
1.4305956059778095,4.687197038177871,-0.015938985177105812,0.08729250277540329,-0.9939736331485051
1.4273452854247823,4.670064612353677,-0.015016448661249914,0.07587345745502774,-0.8957740326145122
1.4243024920398852,4.655304163045244,-0.01396253595681615,0.06470225024433687,-0.7894632789335285
1.4214977131649338,4.6428637882806,-0.012749643804626539,0.05377750941892296,-0.6755929920252777
1.418968380055167,4.632692751704717,-0.011339242955057019,0.04308950558948628,-0.5551224341239931
1.4167618208445074,4.624743155390181,-0.009675606670272606,0.03262093550131623,-0.42946116992090894
1.4149401203892351,4.6189708362581285,-0.00767392147517877,0.022353532422983623,-0.30041923982743146
1.413589281995489,4.615333386712372,-0.0051912060843079125,0.012288844203284379,-0.17000497635321152
1.4128431311515253,4.613778322939066,-0.0019149924296329112,0.0025212869710628492,-0.04004817576638722
