x,y,v_x,v_y,omega
2.375,32.48,0.0,2.41025641025641,-7.755102040816326
2.3738266451185357,32.02657575029908,-0.012351104015413939,2.3626304287006015,-7.36956104766862
2.3704445079435077,31.582052358502793,-0.023250339932250154,2.3165631691550614,-7.011955218721697
2.3651140989491504,31.146142470059917,-0.032859228429406376,2.271961972348876,-6.679569251724202
2.358067140502944,30.71857554372133,-0.041319281530658794,2.228742515425766,-6.370009810752219
2.349510098085725,30.299096367078292,-0.048754849176912134,2.1868277650272225,-6.081160600225431
2.3396272151783557,29.887463755217148,-0.05527549721644888,2.1461470966690537,-5.811144697159498
2.3285831323925574,29.483449403840552,-0.06097800579195067,2.1066355494003526,-5.558292800407492
2.316525156345952,29.086836873481097,-0.06594805785652748,2.068233191225492,-5.32111633552034
2.3035852319184262,28.697420685616283,-0.07026167295953543,2.0308845757725544,-5.098284568714766
2.289881662111457,28.315005514833288,-0.07398643027171785,1.994538274574773,-4.888605049852711
2.275520612197905,27.939405463873907,-0.07718251618672396,1.9591464723660887,-4.6910068343072755
2.260597428775045,27.57044341055718,-0.07990362510653856,1.9246646151784264,-4.504526035892561
2.2451977994007106,27.207950417338154,-0.08219773672856023,1.8910511029165784,-4.328293344149678
2.2293987744601793,26.851765195700096,-0.08410778896124567,1.8582670195892752,-4.161523204039581
2.2132696695950695,26.501733618759253,-0.08567226225043571,1.8262758955774803,-4.003504408127797
2.1968728642823043,26.157708276437006,-0.08692568841024886,1.7950434972882663,-3.8535918934104716
2.1802645098699505,25.819548068363773,-0.08789909487768893,1.7645376403247377,-3.7111995691297897
2.1634951584702775,25.487117830353817,-0.08862039353992028,1.7347280229379498,-3.5757940298798294
2.1466103225097632,25.16028799085538,-0.08911472183391471,1.7055860770455697,-3.446889031267181
2.129650973386144,24.83893425425594,-0.08940474262523566,1.6770848345275053,-3.32404062434464
2.1126539865400984,24.5229373083242,-0.08951090838576709,1.6491988068592394,-3.20684286075103
2.095652539278324,24.212182553411377,-0.08945169436975628,1.6219038764336131,-3.0949239935743895
2.0786764668569617,23.906559851324722,-0.08924380480247858,1.5951771981627498,-2.987943109893184
2.061752581626192,23.60596329203474,-0.08890235552141385,1.5689971101528406,-2.885587140127571
2.04490495942916,23.310290976591,-0.08844103602628949,1.5433430524128893,-2.7875681970608017
2.02815519692551,23.01944481480526,-0.08787225348581439,1.518195492700108,-2.693621203920428
2.0115226430586133,22.733330336419954,-0.08720726090257448,1.4935358587241732,-2.6035017764437196
1.9950359847225378,22.45186571503602,-0.08633651105611495,1.4692496295277426,-2.512529739768732
1.9787197724784376,22.17497194226872,-0.08541309151335924,1.4454216627596639,-2.425589178381388
1.9625833634796872,21.90256349654333,-0.08444384531559447,1.4220356606654792,-2.3424543011372636
1.9466348779176799,21.63455788117726,-0.08343495007395467,1.399076080029991,-2.2629143830207834
1.9308813193715713,21.370875485309206,-0.08239198199034758,1.3765280870021324,-2.186772596236499
1.9153286836096086,21.111439453095976,-0.08131997339873312,1.3543775152424289,-2.1138449445576253
1.8999820570064394,20.85617556057352,-0.08022346452936342,1.3326108270991852,-2.0439592906905624
1.8848457056150976,20.605012099631843,-0.07910655011634009,1.311215077550053,-1.9769544675427824
1.8699231558213274,20.357879768600696,-0.07797292139703144,1.290177880672519,-1.9126794652729613
1.8552172674096465,20.114711568985904,-0.07682590398908072,1.2694873784305785,-1.8509926868748714
1.8407302997834927,19.87544270793434,-0.07566849207569856,1.2491322115858512,-1.7917612658159001
1.8264639720045466,19.640010506040486,-0.07450337928162759,1.229101492560001,-1.7348604399305332
1.8124195172477204,19.40835431013856,-0.073332986579702,1.2093847800918502,-1.6801729763702014
1.7985977322072477,19.18041541075284,-0.07215948753053598,1.189972055547297,-1.6275886429434414
1.7849990219349805,18.956136963904285,-0.0709848311249089,1.1708537007532667,-1.5770037216529023
1.77162344054353,18.735463916995055,-0.06981076246930579,1.1520204772386553,-1.5283205606557038
1.7584707281636591,18.51834293851369,-0.06863884152933544,1.1334635067757253,-1.4814471612474294
1.7455403445066908,18.304722351323136,-0.06747046012296298,1.1151742531248277,-1.4362967968031506
1.7328314993481562,18.09455206931137,-0.06630685733529718,1.0971445048937882,-1.3927876609061671
1.7203431802179718,17.88778353720052,-0.06514913350874878,1.0793663594309038,-1.3508425421607975
1.708074177554728,17.684369673325236,-0.06399826294645063,1.0618322076773625,-1.3103885234232537
1.696023107556812,17.484264815204334,-0.06285510545266504,1.0445347199110935,-1.2713567033975774
1.6841884329407861,17.28742466774241,-0.06172041682129053,1.0274668323196527,-1.2336819387346072
1.6725684817973914,17.093806253909285,-0.06059485837233677,1.0106217343448256,-1.1973026049434736
1.6611614647175301,16.903367867755634,-0.05947900562620491,0.993992856746225,-1.1621603745793083
1.6499749722287378,16.716289385654555,-0.05827354688739838,0.97525432326515,-1.1738183309488799
1.6390133170037688,16.532759918088615,-0.05711229758595642,0.9566348090078863,-1.187404905697215
1.628268194131988,16.352757156745913,-0.05599425895910456,0.9381310998626896,-1.2027907409870482
1.6177314943507306,16.17625939086338,-0.05491837031729195,0.9197401199534457,-1.2198493735254392
1.6073953152166345,16.003245481414165,-0.05388351530477124,0.9014589268803891,-1.2384569456999095
1.5972519711396056,15.8336948361524,-0.05288852761132108,0.8832847074539795,-1.2584919234203944
1.587294002380166,15.667587385422806,-0.05193219617225435,0.8652147739101828,-1.2798348194652087
1.5775141831042114,15.504903558644454,-0.05101326989042627,0.8472465605987695,-1.3023679211456969
1.567905528583104,15.345624261379303,-0.05013046191070269,0.8293776211396497,-1.3259750211122059
1.5584613016215343,15.189730852896691,-0.04928245347424418,0.8116056260457553,-1.3505411501234985
1.5491750182906676,15.037205124144958,-0.04846789737698163,0.7939283608145896,-1.3759523105926463
1.5400404530397456,14.888029276040609,-0.04768542105377938,0.776343724494354,-1.4020952097046784
1.5310516432554735,14.742185897983862,-0.04693362930697865,0.7588497287345563,-1.4288569908746223
1.5222028933352605,14.599657946507229,-0.046211106695262204,0.7414444973352897,-1.4561249622788248
1.5134887783375852,14.460428723960547,-0.04551641959605745,0.7241262663139756,-1.483786321147302
1.5049041472705222,14.32448185713195,-0.0448481179519727,0.7068933845133751,-1.5117278724500423
1.4964441260777286,14.191801275699063,-0.04420473670901497,0.6897443147801582,-1.5398357405453849
1.4881041203799759,14.06237119039876,-0.04358479695153908,0.6726776357493504,-1.5679950722835359
1.47987981802966,13.93617607079629,-0.04298680673599761,0.6556920442766646,-1.5960897299728158
1.471767191535596,13.813200622526033,-0.042409261622568105,0.6387863585681464,-1.6240019725202823
1.4637625004158958,13.693429763865897,-0.04185064490059263,0.6219595220648454,-1.6516121229521539
1.4558622935377978,13.576848601495534,-0.0413094275004387,0.6052106081494851,-1.6787982204035192
1.4480634115050766,13.463442405274847,-0.04078406758083663,0.5885388257524691,-1.7054356545422151
1.4403629891560898,13.353196581863475,-0.040273009776920304,0.5719435259461787,-1.7313967802603343
1.4327584582387283,13.246096646983784,-0.03977468409004213,0.5554242096295262,-1.7565505103314965
1.425247550332565,13.142128196109148,-0.0392875043958869,0.5389805364192726,-1.7807618835972259
1.4178283000934275,13.041276873335637,-0.038809866542400796,0.5226123348808407,-1.8038916061181218
1.4104990489015676,12.943528338168267,-0.038340146003494245,0.5063196142493549,-1.8257955626145859
1.4032584490016506,12.848868229922488,-0.03787669504826473,0.4901025778114864,-1.8463242954414503
1.3961054682311091,12.757282129407063,-0.03741783937848619,0.47396163814035636,-1.865322448310526
1.3890393954431333,12.668755517515816,-0.03696187417915638,0.4578974343990912,-1.8826281720225084
1.3820598467419258,12.583273730312342,-0.03650705951776132,0.44191085195326923,-1.8980724896337142
1.3751667726610943,12.500821910143795,-0.03605161501730988,0.4260030445577481,-1.9114786188182114
1.368360466431458,12.421384952267047,-0.035593713715703724,0.4101754594080259,-1.9226612497681763
1.3616415735026048,12.344947446413286,-0.035131475009065376,0.3944298653684236,-1.9314257779110773
1.3550111025036926,12.271493612656222,-0.03466295655843162,0.3787683847059436,-1.9375674921599604
1.3484704378540704,12.201007230885985,-0.034186145016539715,0.3631935286649655,-1.9408707215600023
1.3420213542642585,12.133471563128158,-0.03369894540253389,0.34770823720691646,-1.9411079463401435
1.3356660334041233,12.068869267889493,-0.033199168914679625,0.33231592320008285,-1.9380388839279217
1.3294070830597675,12.007182305665587,-0.03268451892064299,0.31702052126210056,-1.9314095670049112
1.3232475591567274,11.94839183472141,-0.03215257479556894,0.30182654130820047,-1.9209514399619456
1.3171909910989643,11.892478096269361,-0.031600773180886006,0.28673912660809836,-1.906380513266068
1.3112414109675345,11.839420288244941,-0.031026386097322393,0.27176411575421133,-1.8873966338233015
1.3054033872497857,11.789196427052651,-0.03042649514214072,0.2569081073225155,-1.8636829555689567
1.2996820639448712,11.741783196976016,-0.029797960699063392,0.24217852506313667,-1.8349057312255856
1.2940832061379666,11.697155787490534,-0.02913738463677373,0.22758368004721777,-1.8007145975311878
1.2886132534903434,11.655287719594533,-0.028441064285576186,0.21313282412121135,-1.7607435977796357
1.2832793836120895,11.616150663631789,-0.027704934432885166,0.19883618601293068,-1.7146132844842372
1.2780895880566747,11.579714253130845,-0.026924492466217607,0.18470497715490417,-1.6619343804629245
1.2730527648381944,11.545945902208551,-0.02609469930726007,0.17075134834291952,-1.6023136590726699
1.2681788331339883,11.51481063843216,-0.02520984494754211,0.1569882703559375,-1.5353629434263225
1.263478878521569,11.486270969106826,-0.024263361498977114,0.1434293014896933,-1.4607124238229887
1.2589653412020603,11.460286807110986,-0.023247557653744446,0.13008819320335788,-1.3780298372754645
1.254652265919863,11.436815492711446,-0.022153234790437303,0.11697827416023483,-1.2870473829163398
1.2505556417826773,11.415811959495255,-0.02096912454835808,0.104111549168085,-1.1875984066093952
1.2466938744840217,11.397229102981065,-0.019681057542754284,0.0914974667707485,-1.0796655392123202
1.2430884548336463,11.381018413058424,-0.01827072825067131,0.07914137452020459,-0.9634404738089447
1.23976491976759,11.367130912619213,-0.01671385139202586,0.0670428406293684,-0.8393918817677565
1.2367542530101692,11.35551838019018,-0.0149773776334571,0.055194342834139605,-0.7083308444558954
1.2340949643751409,11.346134685078038,-0.013015134314210157,0.04358139518839868,-0.5714521236458385
1.2318362939238443,11.33893676891212,-0.010760344120490487,0.0321861434001975,-0.4303171291942469
1.2300435951053745,11.33388422797156,-0.00811016975813779,0.020998498079396584,-0.2867383569964269
1.22880931058112,11.330934898828335,-0.004882298918225526,0.010047071849269522,-0.1425362393589579
1.2282879547752925,11.330024891218017,-0.0006056569325909068,-0.0004680443722282924,0.0007597328690279459
