x,y,v_x,v_y,omega
2.375,32.48,0.0,3.8974358974358974,-3.4693877551020407
2.3739517575331326,31.711510976073342,-0.010482424668675185,3.787454341830639,-3.1936603864096207
2.3709979985336607,30.96445747004391,-0.019055165326042414,3.6830807184637018,-2.9511590958766245
2.3664870773908615,30.237762033812697,-0.026054046101949092,3.583873643848413,-2.7367679748759564
2.360706553507031,29.530430835680747,-0.031751192736359235,3.4894383374710793,-2.5462932664925484
2.353894612764088,28.841544969044133,-0.03636821469307014,3.39942032889508,-2.376275939903495
2.3462491492103608,28.1702529138286,-0.040086420844199736,3.3135002232602404,-2.223846350987378
2.3379350280553064,27.515763960673794,-0.04305479070634427,3.2313893082878025,-2.0866106824202926
2.3290899255766164,26.877342445984848,-0.04539623408055603,3.1528258386016748,-1.9625615848912379
2.3198290485741806,26.254302675007892,-0.047212535943803695,3.077571871167909,-1.8500073937914387
2.3102489665193877,25.64600443254005,-0.048588284604123635,3.0054105535105067,-1.7475157084408852
2.3004307371967583,25.051848998477904,-0.04959400862216994,2.936143787110923,-1.6538681530633785
2.2904424669001644,24.47127559935871,-0.05028869434377115,2.869590204081034,-1.5680238996963558
2.2803414158794633,23.903758238229397,-0.05072181586323606,2.805583407212077,-1.489090099003125
2.27017573637704,23.348802854226424,-0.05093497916099892,2.7439704328176533,-1.4162977889173087
2.259985912520609,22.805944770635215,-0.050963259403308696,2.6846104030944336,-1.3489821710776555
2.24980595727394,22.27474639627453,-0.05083629306338266,2.6273733405124133,-1.2865663882552123
2.2396644106427837,21.75479515008573,-0.050579173248181036,2.572139121375594,-1.2285481220627725
2.2295851746793183,21.245701583005417,-0.050213186386472444,2.518796549427549,-1.1744884734773104
2.219588213989661,20.747097674721548,-0.04975642051010303,2.467242533411131,-1.1240026996113124
2.2096901450196142,20.258635285882846,-0.049224269190364524,2.417381354975901,-1.076752466516703
2.1999047330642476,19.77998474884788,-0.04862985036330165,2.3691240153737363,-1.0324393453904885
2.190243312479708,19.310833582202545,-0.04798435548209226,2.3223876510796186,-0.9907993327198629
2.180715142787786,18.85088531610574,-0.04729734143712797,2.277095009888418,-0.95159821693503
2.1713277111133658,18.39985841709463,-0.046576975307073554,2.233173980222676,-0.9146276475185676
2.1620869895715686,17.957485302334078,-0.045830240110896876,2.1905571673828583,-0.8797017891496685
2.15299765473877,17.523511434464424,-0.04506310821709093,2.1491815113136887,-0.8466544647968265
2.144063275131925,17.097694489215577,-0.04428068785136067,2.1089879411747634,-0.8153367088368982
2.135286471630254,16.679803588836872,-0.04348734716534838,2.069921062612283,-0.7856146651424406
2.12666905495994,16.269618595160747,-0.04268681953779214,2.0319288741489716,-0.7573677763205556
2.1182121436923866,15.86692945679031,-0.041882293137739245,1.9949625095553971,-0.7304872194351532
2.1099162656528985,15.471535605489802,-0.041076487257142566,1.958976003449693,-0.7048745510168991
2.1017814451778087,15.083245397374448,-0.040271717493756104,1.9239260777038474,-0.6804405302894954
2.0938072782768287,14.70187559495194,-0.03946995151604612,1.889771946521229,-0.6571040945773968
2.0859929974397224,14.327250886469958,-0.03867285685501494,1.8564751382985976,-0.6347914650153491
2.078337527561063,13.959203439379895,-0.037881841931575996,1.8239993326020292,-0.613435364119212
2.070839534234609,13.597572485042225,-0.03709809133296739,1.792310210774677,-0.592974329632586
2.063497465482306,13.242203932078858,-0.036322596190060806,1.7613753188589956,-0.5733521114409913
2.056309587825979,12.892950006026929,-0.0355561803732074,1.7311639416603164,-0.5545171403304319
2.049274017477406,12.549668913170372,-0.03479952311253019,1.7016469869052657,-0.536422059029461
2.0423887473106195,12.212224526623856,-0.03405317855533085,1.6727968785598724,-0.5190233073696002
2.0356516701855583,11.880486092920837,-0.03331759269528268,1.6445874584703308,-0.5022807545740231
2.029060599111761,11.554327957516204,-0.03259311804268895,1.6169938955760124,-0.4861573726762177
2.0226132846724783,11.233629307756509,-0.03188002635013749,1.5899926020209436,-0.4706189459095667
2.0163074300713033,10.918273931998627,-0.031178519661611444,1.5635611555578608,-0.45563381162064714
2.0101407041137356,10.60814999367292,-0.030488739914069408,1.5376782276992098,-0.44117262886430336
2.0041107523935793,10.303149819190697,-0.029810777287492,1.5123235171230327,-0.4272081713543531
1.9982152069176882,10.003169698689454,-0.0291446774714191,1.4874776878893878,-0.41371514188435815
1.9924580900251208,9.708110222983468,-0.02842649145425407,1.463117069170471,-0.3988934873522298
1.986842768271866,9.417875549186892,-0.027726726078295832,1.4392296687952884,-0.3847452819558153
1.9813655950491995,9.132372712938412,-0.027045006148368023,1.415798693689514,-0.3712319934488983
1.9760230003467847,8.851512032385227,-0.026380940875781002,1.3928081118423379,-0.358317711995817
1.9708114934634722,8.575206960297312,-0.025734127957342357,1.3702426090368276,-0.345968943363806
1.9657276649613842,8.303373944543726,-0.025104157063538007,1.3480875484990327,-0.3341544205971677
1.960768187973547,8.035932296370039,-0.024490612814833373,1.3263289332378274,-0.32284493233151723
1.955929818960622,7.7728040659594875,-0.023893077314417234,1.3049533708676688,-0.31201316610840313
1.951209397999524,7.513913924800256,-0.023311132296564407,1.2839480407246397,-0.3016335652285097
1.9466038486756763,7.259189054417536,-0.022744360941911644,1.2633006631025598,-0.29168219783851357
1.942110177641071,7.0085590410622025,-0.022192349404141793,1.2429994704507727,-0.2821366370851876
1.937725473891987,6.761955775978262,-0.02165468808669907,1.2230331803886305,-0.27297585129283675
1.9334469078130088,6.519313360899016,-0.021130972703081806,1.2033909704038384,-0.26418010322861907
1.929271730027714,6.280568018447351,-0.02062080514986577,1.184062454112827,-0.2557308576164854
1.9251972700909468,6.045658007138936,-0.02012379421780582,1.1650376589713156,-0.24761069614586917
1.92122093505286,5.814523540708574,-0.019639556163064262,1.1463070053322948,-0.23980323929718003
1.9173402079207782,5.587106711499654,-0.019167715157751473,1.127861286756918,-0.23229307437373725
1.9135526460413552,5.363351417674831,-0.018707903636477705,1.109691651491298,-0.22506568919001463
1.9098558794223621,5.143203294022797,-0.01825976255345416,1.0917895850290524,-0.21810741091981972
1.9062476090107365,4.926609646151324,-0.017822941562801613,1.0741468936856853,-0.21140534965605087
1.9027256049411476,4.713519387871095,-0.017397099133088848,1.0567556891165941,-0.20494734627663036
1.8992877047672687,4.503882981587864,-0.01698190260569826,1.0396083737156987,-0.1987219242496743
1.8959318116861616,4.29765238153265,-0.01657702820537409,1.0226976268364547,-0.19271824504544297
1.8926558927646016,4.094780979670865,-0.016182161010226057,1.0060163917813785,-0.18692606685356009
1.8894579771748274,3.895223554141708,-0.015796994887516336,0.9895578635102051,-0.18133570633179322
1.8863394259706399,3.699108927457587,-0.015388517154358936,0.9715884033310151,-0.21021101874345133
1.8832990500258693,3.506577281752655,-0.015015242293345206,0.9537280537182896,-0.24064721446982285
1.8803298773364052,3.3176070860651237,-0.014676484601296894,0.9359739031570128,-0.2725403503106469
1.8774250789323588,3.132177380665574,-0.014371499439166999,0.9183231508384763,-0.3057887334318535
1.8745779800719347,2.9502677553113834,-0.014099489165075627,0.9007731027034157,-0.34029269849969307
1.8717820703003678,2.771858328256137,-0.013859608550591512,0.8833211678490553,-0.37595438919985225
1.8690310124737366,2.596929725942161,-0.013650969715720133,0.8659648552907003,-0.4126775432478595
1.8663186508406926,2.425463063306001,-0.013472646614720815,0.8487017710708978,-0.45036727999828874
1.8636390182690499,2.25743992462775,-0.01332367910170551,0.831529615711606,-0.4889298897548021
1.8609863426986848,2.0928423448558604,-0.013203076601944813,0.8144461820073035,-0.5282726238707017
1.8583550528973007,1.9316527913391752,-0.013109821411896498,0.7974493531595633,-0.5683034847100639
1.8557397835912957,1.7738541458975838,-0.013042871648152874,0.7805371012563489,-0.6089310145123117
1.8531353800402055,1.6194296871617304,-0.013001163862749694,0.7637074861021964,-0.6500640821677476
1.8505369021199738,1.4683630731106518,-0.012983615339565175,0.7469586544085806,-0.6916116668675354
1.8479396279776337,1.3206383237340766,-0.012989126083835565,0.7302888393571613,-0.7334826375381969
1.8453390573178408,1.176239803743126,-0.01301658051409548,0.713696360552339,-0.7755855269070792
1.8427309143801223,1.0351522052495241,-0.013064848863086925,0.6971796243836705,-0.8178282989705309
1.8401111506646797,0.8973605303288288,-0.01313278829133854,0.6807371248232856,-0.8601181085496638
1.8374759474641298,0.762850073377642,-0.013219243714161511,0.664367444688589,-0.9023610515184011
1.8348217182587434,0.6316064031681492,-0.013323048339703254,0.6480692574063311,-0.9444619041737256
1.8321451110335327,0.5036153444954472,-0.013443023912402829,0.6318413293206909,-0.986323850087211
1.8294430105770267,0.37886295930383085,-0.013577980652657516,0.6156825225954834,-1.0278481926285175
1.8267125408237923,0.2573355271673705,-0.013726716879686863,0.5995917987691238,-1.0689340511839038
1.8239510673057824,0.13901952498738268,-0.013888018300412072,0.5835682230307386,-1.1094780389042884
1.8211561997814822,0.023901605754609534,-0.014060656942590425,0.5676109692970134,-1.1493739196062867
1.8183257951166847,-0.08803142379331774,-0.014243389705384468,0.5517193261822512,-1.1885122412144293
1.815457960496654,-0.19679262680843834,-0.014434956494921648,0.5358927039689612,-1.226779942872134
1.8125510570565502,-0.30239496147567735,-0.014634077906118974,0.5201306427034122,-1.2640599325622377
1.809603704025438,-0.4048513079020495,-0.014839452405002404,0.5044328215603432,-1.3002306317651184
1.8066147834891557,-0.5041744970224613,-0.015049752957819846,0.4887990696438041,-1.3351654833451936
1.8035834458889448,-0.600377341828576,-0.015263623044288955,0.4732293784173715,-1.3687324184986183
1.8005091163862987,-0.6934726712690349,-0.015479671982172236,0.45772391598719153,-1.4007932782233243
1.7973915022401976,-0.7834733672173471,-0.015696469478839774,0.4422830434959644,-1.431203184399116
1.79423060136108,-0.870392404959496,-0.01591253931233525,0.4269073339255528,-1.4598098552095753
1.791026712226904,-0.9542428977171298,-0.01612635202942656,0.4115975936507776,-1.4864528593289748
1.7877804453708757,-1.0350381457959443,-0.016336316530855627,0.3963548871373901,-1.5109628030818048
1.7844927366783834,-1.1127916910329887,-0.016540770394068212,0.3811805652330794,-1.5331604447283462
1.781164862762923,-1.1875173773124033,-0.016737968760533878,0.366076297561038,-1.552855730238778
1.7777984587281108,-1.2592294180274521,-0.0169260715875883,0.3510441095894466,-1.5698467455411456
1.7743955386661057,-1.327942471487809,-0.017103129032463305,0.33608642501408686,-1.583918581486974
1.7709585192931347,-1.393671725404161,-0.017267064697246367,0.32120611414946565,-1.5948421099985457
1.7674902471818519,-1.4564329917257766,-0.01741565641558384,0.3064065490667087,-1.6023726735232584
1.7639940301201529,-1.5162428132552677,-0.017546514201403456,0.2916916662281804,-1.606248695727683
1.7604736732099018,-1.5731185836104586,-0.017657054901107555,0.27706603732373175,-1.606190230353692
1.756933520421342,-1.6270786822299357,-0.017744472984491874,0.2625349488710122,-1.6018974788583933
1.753378502446763,-1.6781426262008807,-0.017805706761299316,0.24810449083845865,-1.5930493281200084
1.7498141918610817,-1.7263312406832014,-0.017837399095512338,0.23378165398474407,-1.579301990434061
1.7462468668147477,-1.7716668495445305,-0.01783585136782867,0.21957443462854082,-1.5602878741423303
1.7426835847839028,-1.8141734874005238,-0.017796968940619586,0.2054919439314255,-1.5356148817222195
1.7391322683303319,-1.8538771334074085,-0.01771619559509065,0.1915445161374084,-1.5048664335148196
1.7356018054563727,-1.8908059656245086,-0.017588433144501425,0.17774380603361067,-1.4676026646224594
1.7321021681066344,-1.924990632168793,-0.01740794035288117,0.1641028594092223,-1.4233634611956534
1.7286445538863344,-1.956464531152946,-0.017168201850118955,0.15063613043232732,-1.3716743191998548
1.7252415585022125,-1.9852640847255643,-0.016861751991099592,0.13735940529388738,-1.312056459743236
1.7219073904053102,-2.0114289823349694,-0.01647992897792571,0.12428957080016724,-1.244043257142837
1.718658145664794,-2.0350023533402037,-0.016012518427234772,0.11144413925218069,-1.167205846060809
1.71551217195703,-2.056030808214274,-0.015447218650404097,0.09884040948849415,-1.0811917121661598
1.7124905685486511,-2.07456426112541,-0.014768815433387046,0.08649411962287412,-0.9857808648392115
1.7096178988709365,-2.090655419238878,-0.013957881343757972,0.07441746151181225,-0.8809640741171895
1.7069232411960136,-2.1043588108161373,-0.012988695405471005,0.0626164542607647,-0.7670448737854137
1.7044417843233197,-2.1157292623467114,-0.011825873321467987,0.051088061044973966,-0.6447582896071126
1.7022173193782053,-2.12481990083824,-0.010418776129677218,0.03981832387029116,-0.5153800628630705
1.7003062832073657,-2.131680187140944,-0.008691585578718315,0.028784539156762566,-0.380768835748357
1.698784880800405,-2.136355445093919,-0.006522438490888606,0.0179680403729802,-0.2432515985480505
1.697764465198837,-2.1388919453442696,-0.0036817175247912688,0.007396962130540325,-0.10526126537343691
