x,y,v_x,v_y,omega
2.375,32.48,0.0,2.0,-6.040816326530612
2.3742773161108817,32.10340705505963,-0.007607198832826643,1.964136262530227,-5.782098764829137
2.372184954055454,31.733537029091888,-0.014417664908516906,1.9292324318670244,-5.539002491342
2.368867037885718,31.370212068799034,-0.0205077684571223,1.8952408343735305,-5.310244458313184
2.3644539487103846,31.013263045037064,-0.02594580180954785,1.8621173104893196,-5.094670938667785
2.3590637667638226,30.662528919624705,-0.030792955522683352,1.8298208517460293,-4.89124219565814
2.3528035409106045,30.317856176556575,-0.03510415872171551,1.7983132858132267,-4.699019253493615
2.345770409319942,29.979098309213057,-0.038928805390522535,1.7675590020132812,-4.517152439931765
2.338052591292278,29.646115356468,-0.04231138437436275,1.7375247110925964,-4.344871430037732
2.3297302671446656,29.31877348167279,-0.04529202770576818,1.708179234120145,-4.181476567044886
2.320876360525263,28.99694458938674,-0.047906989340573636,1.6794933162593244,-4.026331273976314
2.3115572354239458,28.680505975464524,-0.050189064357501055,1.6514394618692676,-3.8788554003246674
2.3018333183924993,28.36934000672973,-0.05216795702614623,1.6239917879706458,-3.738519373106015
2.2917596550186556,28.06333382698194,-0.05387060480378982,1.597125893585064,-3.604839042139016
2.2813864084615005,27.762379086520895,-0.05532146421889291,1.5708187428469862,-3.4773711263400324
2.270759306810146,27.46637169274007,-0.056542763690100285,1.5450485601090536,-3.355709181862877
2.2599200451398382,27.175211579654498,-0.057554727576301444,1.519794735528545,-3.239480024596978
2.248906647383109,26.888802494494026,-0.05837577512610792,1.4950377398448464,-3.1283405493050185
2.2377582502396383,26.607059212048704,-0.05897577375253469,1.470681022737496,-3.0188346627968654
2.2265087630997695,26.329899702938498,-0.059439880351344225,1.4467874942120234,-2.9142024359320065
2.215182849125652,26.057237548716653,-0.059780266744631584,1.4233404449652984,-2.8141694784853213
2.2038029589611488,25.78898943020071,-0.06000805077645589,1.4003239604656739,-2.7184798441352473
2.1923895218357425,25.52507498117983,-0.06013339264887165,1.3777228713330794,-2.6268945837107114
2.1809611192726144,25.26541665118279,-0.06016558169984655,1.3555227075831573,-2.539190428337803
2.169534643118089,25.00993957660723,-0.060113114663576474,1.3337096563700568,-2.4551585892990206
2.1581254394238263,24.758571459576277,-0.05998376632866538,1.3122705229031595,-2.3746036629176523
2.146747439549485,24.51124245394687,-0.059784653401237536,1.2911926942484946,-2.2973426300899207
2.135413279709213,24.26788505794638,-0.05952229228583885,1.270464105756648,-2.2232039412344284
2.124134410057642,24.02843401296031,-0.059202651414909414,1.2500732098861949,-2.1520266784346025
2.112921194298061,23.79282620803564,-0.05883119868594381,1.2300089472156197,-2.0836597874343097
2.1017830006951357,23.561000589701667,-0.05841294450274351,1.2102607194577688,-2.0179613729258215
2.0907282852854685,23.332898076743774,-0.05795248086217491,1.1908183643095034,-1.954798051256711
2.0797646680000064,23.108461479595732,-0.057454016879531604,1.1716721319856909,-1.8940443552899087
2.068899002341659,22.88763542404347,-0.05692141110307048,1.1528126633012798,-1.835582186689233
2.0581374391984424,22.67036627895792,-0.05635820093078845,1.1342309691781862,-1.7793003113799832
2.0474854853161264,22.456602087796796,-0.05576762940937957,1.1159184114652672,-1.7250938943582126
2.0369480569039653,22.246292503635445,-0.05515266966600311,1.0978666849699728,-1.6728640703995863
2.0265295288019303,22.039388727505397,-0.05451604719752094,1.08006780060947,-1.6225175475549622
2.0162337795973784,21.835843449835757,-0.05386026021881394,1.0625140695972823,-1.5739662406198787
2.0060642330427174,21.635610794808073,-0.05318759825130287,1.0451980885888839,-1.5271269320333005
1.9960238960929595,21.438646267449077,-0.05250015911457014,1.0281127257163278,-1.4819209579009442
1.9861153938526406,21.24490670329847,-0.05179986446773455,1.0112511074479749,-1.438273917053545
1.9763410016950957,21.05435022050051,-0.05108847403273774,0.9946066062147652,-1.396115401243367
1.9667071185544287,20.86716142386335,-0.05032082218480916,0.9758017794395336,-1.4012966464828407
1.957216896019864,20.68353388287452,-0.049576257126399646,0.9571197046534158,-1.4085400139783324
1.947865944459751,20.503444592380106,-0.04885481192741962,0.9385570373930655,-1.4177121684448082
1.9386498788057787,20.326871168919297,-0.048156405482815495,0.9201105779838772,-1.4286827623572231
1.929564339389279,20.153791823689385,-0.04748085153297256,0.9017772665414856,-1.4413241469110198
1.920605011130573,19.984185336412608,-0.046827866979721106,0.8835541784772015,-1.4555110895357626
1.91176764121079,19.818031030010218,-0.04619707954430916,0.8654385204953552,-1.4711204968016032
1.903048055347164,19.655308745991142,-0.04558803480964823,0.847427627073855,-1.4880311415725997
1.894442172785143,19.495998820463974,-0.04500020268531005,0.8295189574226394,-1.5061233932673548
1.885946020113677,19.340082060681603,-0.04443298333012092,0.8117100929181533,-1.5252789500860162
1.8775557440037607,19.1875397220279,-0.043885712563736565,0.7939987350155503,-1.545380572053327
1.8692676229646565,19.038353485355238,-0.04335766679525607,0.7763827036440549,-1.566311813710015
1.8610780782072036,18.892505434580038,-0.04284806749372117,0.7588599360948665,-1.5879567552592342
1.8529836836991893,18.749978034441583,-0.04235608522221924,0.7414284864151883,-1.610199730940802
1.8449811754939258,18.610754108326127,-0.041880843254238076,0.7240865253264952,-1.6329250533634334
1.8370674604099246,18.474816816054553,-0.04142142078788057,0.7068323406900526,-1.6560167324738326
1.8292396241368776,18.34214963152693,-0.040976855770509066,0.6896643385480582,-1.6793581877811827
1.8214949388410633,18.212736320111276,-0.04054614734332434,0.6725810447746533,-1.7028319523861561
1.8138308703417827,18.08656091565682,-0.04012825791226106,0.6555811073775384,-1.72631936728504
1.8062450849295228,17.96360769700363,-0.03972211484836881,0.6386632994981134,-1.7497002643321025
1.7987354558962645,17.843861163850534,-0.03932661181750924,0.6218265231660478,-1.7728526361473667
1.7913000698487096,17.727306011831814,-0.0389406097356981,0.6050698138730796,-1.7956522911533697
1.7839372328762606,17.613927106640002,-0.03856293734271325,0.5883923460407567,-1.8179724918147042
1.7766454766473532,17.503709457016683,-0.03819239138262868,0.571793439467891,-1.8396835740404596
1.7694235645103151,17.396638186415927,-0.037827736375666596,0.5552725668558112,-1.8606525455955516
1.7622704976783203,17.292698503124925,-0.03746770396112232,0.5388293625231964,-1.8807426612574558
1.75518552158234,17.191875668603664,-0.037110991786036475,0.5224636324374289,-1.8998129723574013
1.748168132481342,17.094154963780028,-0.03675626190867846,0.5061753657061019,-1.9177178482701713
1.7412180844254506,16.99952165300735,-0.03640213867965581,0.4899647476905427,-1.9343064673791435
1.7343353966755213,16.907960945359072,-0.03604720605644085,0.4738321749228813,-1.9494222750639585
1.7275203616917416,16.819457952898638,-0.035690004299134256,0.4577782720290535,-1.9629024063663485
1.720773553814641,16.733997645522116,-0.03532902598613624,0.44180391088170395,-1.9745770712257262
1.7140958387745708,16.651564801926654,-0.03496271127775955,0.42591023222840996,-1.9842689005964216
1.707488384180573,16.572143956209196,-0.03458944234326997,0.41009867006063144,-1.991792252441012
1.7009526711570433,16.495719339547946,-0.034207536851780476,0.39437097900516815,-1.9969524776472332
1.6944905073172691,16.42227481636466,-0.03381524040900021,0.3787292650294115,-1.9995451474894614
1.6881040412875272,16.351793814310675,-0.03341071779880975,0.3631760197493831,-1.9993552465577034
1.6817957790250184,16.284259247366712,-0.03299204285917684,0.34771415860811977,-1.9961563383959509
1.6755686022089797,16.21965343130059,-0.032557186783337085,0.3323470631405654,-1.989709715828262
1.6694257890289512,16.157957990695063,-0.032104004585383115,0.3170786274439005,-1.9797635546613497
1.6633710377505007,16.099153756751313,-0.03163021939830559,0.3019133088060863,-1.9660520989094483
1.6574084935112472,16.043220655107927,-0.031133404172786008,0.2868561821769146,-1.9482949189629346
1.6515427788956043,15.990137583015152,-0.030610960202401512,0.27191299774702243,-1.9261963027012061
1.6457790289654963,15.93988227540423,-0.030060091693470285,0.2570902402626894,-1.899444865480118
1.640122931601896,15.892431159742909,-0.029477775291797764,0.2423951877512004,-1.8677135010086914
1.63458077426209,15.847759200143301,-0.028860723021949253,0.2278359659288683,-1.8306598451640894
1.6291594986163616,15.805839732089808,-0.028205336406769595,0.21342159252893644,-1.787927493817736
1.6238667650510576,15.766644290525974,-0.027507648491166947,0.19916200287983177,-1.7391483102414238
1.6187110297986225,15.730142436073443,-0.026763248902886325,0.18506804398890817,-1.683946285514119
1.6137016386110454,15.696301587107069,-0.025967184650556883,0.17115141881502216,-1.6219435851467514
1.6088489426333559,15.665086869587686,-0.025113825640913634,0.1574245550732077,-1.5527696339460093
1.6041644447657077,15.636461002293654,-0.02419667822906513,0.14390036381134272,-1.47607435895759
1.5996609887887567,15.610384242655613,-0.02320812152831255,0.13059184290487694,-1.3915470079712278
1.5953530095533668,15.586814427732588,-0.02213902831789694,0.11751147207433901,-1.2989422256206777
1.5912568716028168,15.565707155087821,-0.020978213266841073,0.10467034523897017,-1.1981151485365498
1.5873913371508994,15.54701615671723,-0.019711623069130272,0.09207700603042643,-1.0890668596998334
1.5837782245344925,15.530693919469574,-0.01832114131410032,0.07973601762910693,-0.9720000441766927
1.5804433487047014,15.516692585088009,-0.016782814788963492,0.06764644954524168,-0.8473812234543859
1.5774178837618624,15.504965100191757,-0.015064184609343511,0.055800759888969376,-0.7159995075125505
1.5747403756160403,15.495466446787415,-0.013120111662466552,0.04418506541990305,-0.5790021436746227
1.5724598320492427,15.488154513177456,-0.01088561009329993,0.03278265679017939,-0.43787663078158945
1.5706408946586707,15.48298963437825,-0.008261099281138988,0.021584488464635884,-0.2943444686253198
1.5693742867019258,15.479930410837838,-0.00507161605301972,0.010617864592338523,-0.1501418102992131
1.5688090533086179,15.478915508302176,-0.0008782091396946547,6.531999358665164e-05,-0.006748353637031551
