x,y,v_x,v_y,omega
2.375,32.48,0.0,2.4615384615384617,-7.63265306122449
2.3739450931870674,32.04119306610516,-0.011721186810364605,2.414094137293105,-7.264216843572583
2.370901233946033,31.610791770758954,-0.02209947142334506,2.368142477664705,-6.921601748312228
2.366097096141992,31.188535093467735,-0.03127983751044651,2.3235983811266,-6.602377972874806
2.3597368211603857,30.774176674293326,-0.039389884507403036,2.2803840541446254,-6.304394513732851
2.3520029322035256,30.367483577387596,-0.0465422150132643,2.2384281336968193,-6.025741572178801
2.343058852911762,29.96823520042371,-0.052836443784105715,2.1976649436796984,-5.764718821389811
2.3330510922036956,29.57622230799196,-0.058360897416633445,2.158033861117539,-5.519808490510654
2.322111146086535,29.19124617092442,-0.06319405944070729,2.1194787729662368,-5.289652431553783
2.3103571583306532,28.81311779662882,-0.06740580451353544,2.0819476080959576,-5.073032497907974
2.2978953748057687,28.44165723801956,-0.07105845687407072,2.045391932006936,-4.8688536907537685
2.284821420547284,28.076692970663327,-0.07420770155353491,2.0097665941734384,-4.676129630200301
2.2712214239640125,27.71806132940873,-0.07690337159392895,1.9750294197665037,-4.4939699877710115
2.2571730087875417,27.36560599712105,-0.07919013036685536,1.9411409389854961,-4.3215695806706025
2.2427461712259853,27.01917753925506,-0.08110806476155129,1.9080641484143934,-4.158198879599015
2.228004057187087,26.678632978918078,-0.08269320233732094,1.875764299774315,-4.003195723426032
2.2130036522733767,26.343835407838803,-0.08397796337056904,1.8442087122176076,-3.855958067857782
2.1977963954433686,26.014653629294756,-0.08499155696285529,1.8133666049384842,-3.7159376228985463
2.182428725712903,25.6909618295852,-0.08576032893120818,1.7832089473899653,-3.5826342566680744
2.166942569988067,25.372639275086335,-0.086308068011409,1.7537083248195888,-3.4555910619375054
2.1513757790343084,25.059570032305924,-0.08665627591924382,1.7248388171850086,-3.3343899973521065
2.135762517662053,24.751642708677327,-0.0868244059947046,1.6965758897993815,-3.218648028314625
2.120133614420328,24.448750212108685,-0.08683007446890613,1.6688962942966403,-3.1080137033851556
2.1045168754144603,24.15078952753833,-0.08668924781851549,1.641777978707324,-3.002164111192955
2.0889373662838615,23.85766150895033,-0.08641640918813424,1.6152000056037847,-2.9008021705588827
2.0734176658762906,23.569270685478628,-0.08602470645154436,1.5891424774151177,-2.803654213041722
2.0579780947234774,23.285525080379415,-0.0855260841352683,1.5635864681316787,-2.7104678226485315
2.0426369210494113,23.006336041782728,-0.08493140113213242,1.5385139607204126,-2.6210099021524167
2.0274105467183197,22.73161808424863,-0.08425053587999731,1.5139077896584272,-2.535064939474953
2.0123136752473076,22.461288740253444,-0.08349248046458368,1.489751588065862,-2.4524334510254615
1.9973637736996046,22.195276174395122,-0.08261753673211412,1.4659435881377259,-2.3698941191022644
1.9825751819984299,21.93351092843958,-0.08170014883649421,1.4425591447015922,-2.2908527714585625
1.9679550423663696,21.675918062688535,-0.08074584707528674,1.4195838080878447,-2.2151215510835582
1.9535095486302563,21.422425181139463,-0.0797596388815287,1.3970037646796165,-2.142524611630645
1.9392440359632563,21.172962320254094,-0.07874605741847102,1.3748058007133641,-2.072897224387092
1.9251630623064688,20.9274618440158,-0.07770920543472369,1.3529772686010333,-2.0060849608158797
1.9112704822786777,20.68585834484104,-0.07665279487406527,1.331506055562937,-1.9419429434931468
1.897569514298933,20.44808854994607,-0.07558018267865285,1.3103805543811702,-1.8803351590213293
1.884062801572051,20.21409123280261,-0.07449440317559054,1.289589636101747,-1.821133827166876
1.8707524675207976,19.983807129345756,-0.07339819739389314,1.2691226245299672,-1.7642188210634797
1.8576401661894524,19.75717885862403,-0.07229403962105523,1.248969272378059,-1.7094771338467758
1.8447271280908026,19.534150847605666,-0.07118416147505068,1.2291197389371147,-1.6568023875526872
1.8320142019216208,19.3146692598772,-0.0700705737380804,1.2095645691569374,-1.6060943805262597
1.8195018925296893,19.098681927990576,-0.06895508617227113,1.1902946740278075,-1.5572586699571411
1.8071903954778903,18.886138289232996,-0.06783932551438529,1.171301312167496,-1.5102061864872507
1.7950796285172494,18.676989324610652,-0.06672475182606755,1.1525760725252348,-1.4648528781303563
1.7831692602506912,18.47118750085241,-0.0656126733579112,1.1341108581218968,-1.4211193810063394
1.771458736242233,18.268686715253722,-0.06450426006940346,1.1158978707524423,-1.3789307146284797
1.759947302802074,18.069442243193546,-0.06340055593236223,1.0979295965828308,-1.3382159996932483
1.7486340286562276,17.873410688168967,-0.06230249013260009,1.0801987925791596,-1.2989081965116442
1.7375178246897178,17.68054993420278,-0.06121088727306226,1.062698473711819,-1.2609438623914226
1.7265974619347144,17.490819100489333,-0.06012647667142187,1.0454219008820287,-1.2242629264327967
1.7158715879590516,17.304178498152947,-0.05904990083594148,1.0283625695222611,-1.1888084803381946
1.7053387417962491,17.120589589001618,-0.05798172319519812,1.011514198825839,-1.1545265839610865
1.694997367545189,16.940014946166492,-0.056922435149914394,0.9948707215644249,-1.1213660844311917
1.6848541942749142,16.76265440250299,-0.05577949007536069,0.9758019858078655,-1.1408631428059894
1.674912638778845,16.58871607508648,-0.05468223765874027,0.9568460965977712,-1.161970294680297
1.6651645936895259,16.41817991148074,-0.05362937444480652,0.9380001656882696,-1.184565840217167
1.6556021897584015,16.251026367932575,-0.0526195581232434,0.9192614292913313,-1.2085302324091096
1.646217802446845,16.08723638728268,-0.05165141200515878,0.9006272445963717,-1.2337458100643979
1.6370040577500586,15.926791377462564,-0.05072352907024536,0.882095086738246,-1.260096534415184
1.627953837328712,15.769673190497201,-0.0498344756113871,0.8636625462102191,-1.2874677282223463
1.6190602830186287,15.615864101933319,-0.048982794500645715,0.8453273267218033,-1.3157458162470952
1.6103168007847668,15.465346790612923,-0.048167008097821006,0.8270872435048013,-1.3448180659462696
1.6017170641821523,15.318104318710784,-0.04738562082011685,0.8089402220745149,-1.3745723272267787
1.5932550173833462,15.174120111952956,-0.04663712138884081,0.7908842974569288,-1.4048967700645396
1.584924877829366,15.033377939931118,-0.0459199847664949,0.7729176138968084,-1.4356796187542462
1.5767211385588262,14.895861896424456,-0.04523267379505669,0.7550384250661104,-1.4668088815080318
1.56863857026834,14.76155637963678,-0.04457364054367769,0.737245094796977,-1.498172074063206
1.5606722231559818,14.63044607225185,-0.043941327371416,0.7195360983689174,-1.529655935891374
1.5528174285988392,14.502515921203937,-0.0433341677079448,0.7019100243856815,-1.5611461375230264
1.5450698007154076,14.377751117053677,-0.042750586552409674,0.6843655772838623,-1.5925269774128403
1.5374252378637965,14.2561370728511,-0.04218900068771399,0.6669015805225506,-1.6236810666712505
1.5298799241275005,14.137659402358036,-0.04164781860446055,0.6495169805115024,-1.6544889998773684
1.5224303308418015,14.022303897491007,-0.04112544012553114,0.6322108513443968,-1.6848290100673446
1.5150732182158113,13.910056504832752,-0.04062025571880336,0.6149824004139917,-1.7145766058615504
1.5078056371077624,13.800903301045722,-0.04013064548173987,0.5978309749974726,-1.743604188554938
1.500624931014432,13.694830467003761,-0.03965497777748707,0.5807560699131875,-1.7717806468499884
1.4935287383396716,13.591824260438777,-0.039191607497628025,0.563757336364423,-1.7989709267645222
1.486514995011925,13.491870986876794,-0.03873887392177899,0.5468345921020629,-1.8250355741029747
1.4795819375264803,13.394956968612568,-0.03829509813871696,0.5299878330560055,-1.849830246747828
1.4727281064951137,13.30106851144306,-0.03785857998757817,0.5132172466052124,-1.873205193919845
1.465952350793864,13.210191868847549,-0.037427594470750614,0.49652322667824356,-1.895004699488788
1.4592538324090947,13.122313203265502,-0.03700038758224323,0.4799063909000306,-1.9150664864149785
1.4526320320929216,13.037418544082144,-0.03657517148634809,0.46336760002619776,-1.933221079500945
1.4460867559517552,12.955493741885824,-0.036150118971054704,0.4469079799329172,-1.949291123880105
1.4396181431063895,12.87652441851072,-0.035723357088564014,0.43052894645712847,-1.9630906571341236
1.4332266745791395,12.800495912322916,-0.035292959880881186,0.4142322334073448,-1.9744243337075857
1.4269131835834588,12.727393218148457,-0.0348569400711263,0.3980199240866428,-1.983086601511288
1.4206788674148703,12.65720092117921,-0.034413239579858014,0.38189448668277515,-1.988860832460254
1.4145253011697871,12.589903124128604,-0.03395971869884271,0.36585881387953273,-1.9915184114403095
1.408454453552085,12.525483366847709,-0.0334941437200669,0.3499162670192825,-1.9908177922028072
1.4024687050677995,12.463924537558302,-0.03301417277199574,0.3340707250852324,-1.9865035344621544
1.3965708689585514,12.405208774821862,-0.032517339552982076,0.31832663865301364,-1.978305344731714
1.3907642152878918,12.349317359355176,-0.03200103456545967,0.302689088754598,-1.9659371551844593
1.3850524986771209,12.296230594843909,-0.031462483331994084,0.28716385025948865,-1.949096291471442
1.3794399902965426,12.245927677024518,-0.03089872089665262,0.2717574588448372,-1.9274628039380461
1.373931514867046,12.198386550545948,-0.03030656165331033,0.2564772798059388,-1.9006990697781618
1.3685324936346672,12.153583753548531,-0.02968256315089736,0.24133157572092404,-1.8684498201336446
1.3632489945771158,12.111494250600547,-0.02902298193300674,0.2263295681455655,-1.830342811126212
1.3580877915323581,12.072091255743107,-0.028323718564301107,0.21148148582598325,-1.785990448170663
1.3530564345771503,12.035346049094276,-0.02758024760467616,0.19679858804990621,-1.7349927975102581
1.3481633349398432,12.001227793002158,-0.026787526143180473,0.18229314630695528,-1.6769425884212819
1.3434178691808765,11.969703357437954,-0.025939871178670963,0.16797835996198263,-1.6114330352441342
1.3388305095853015,11.94073716957493,-0.025030790994385557,0.15386817184937013,-1.538069598420194
1.334412991097215,11.914291109711034,-0.024052747762132853,0.13997693774948816,-1.4564871536500188
1.3301785303108697,11.890324485113549,-0.022996816530590235,0.1263188911114453,-1.3663744107618043
1.3261421199465881,11.868794124705403,-0.02185218751698274,0.11290733564571674,-1.2675077073311325
1.3223209342387847,11.849654649121717,-0.020605431458610397,0.09975350417301723,-1.1597962355995013
1.3187348987254515,11.832858977957773,-0.019239407578425446,0.08686506431524647,-1.0433398167565429
1.315407505098301,11.818359128843909,-0.017731632723247077,0.07424437028323341,-0.9184975883598274
1.3123669936942477,11.806107321847382,-0.01605182732178903,0.06188681856706699,-0.7859601093421752
1.3096480969490738,11.796057294832977,-0.014158136513476161,0.049780148259660366,-0.6468073123050109
1.3072946813133446,11.78816551043327,-0.011990926105737564,0.037906345070420455,-0.5025213897904306
1.3053640052360995,11.782391501669334,-0.009461030308096533,0.026249307862215965,-0.3549129535520524
1.3039346203013296,11.778695628260838,-0.0064210245226817425,0.014815952232205717,-0.20592161418790936
1.303126441762122,11.777028616803761,-0.002558737024069257,0.0037063972908692403,-0.05728806034998199
