x,y,v_x,v_y,omega
2.375,32.48,0.0,2.051282051282051,-4.571428571428571
2.374124289663009,32.01295524618471,-0.007614872495575367,2.009976677546539,-4.337874230780274
2.371603389966015,31.555257867188597,-0.014305994434804535,1.9700005311152948,-4.121615337931656
2.3676376959140946,31.10661065337507,-0.020178301668850866,1.9312795890023258,-3.9209475743145568
2.362404966196738,30.66673273475839,-0.025323695873382276,1.8937457902731483,-3.734368965724721
2.356063112444355,30.23535828627849,-0.029822858495165395,1.8573363704216412,-3.5605520689484678
2.348752603963811,29.812235375076003,-0.03374678046608574,1.821993292208689,-3.398320506933764
2.3405985475517315,29.3971249295291,-0.03715805789982337,1.7876627560252507,-3.24662908715196
2.3317124915829597,28.989799813317166,-0.04011199400254062,1.754294776252443,-3.104546888237421
2.322193995211228,28.590043990582842,-0.042657539664690707,1.7218428127416767,-2.971242817671616
2.3121319967520706,28.19765177052716,-0.044838099110592604,1.6902634486120816,-2.845973236028845
2.301606009805216,27.812427121609193,-0.04669222216640612,1.6595161071963183,-2.72807131691975
2.2906871711559824,27.434183047021598,-0.048254200870404475,1.6295628022610236,-2.6169378705867525
2.279439160772647,27.062741014345562,-0.04955458507164284,1.6003679166610252,-2.512033406386692
2.26791901113391,26.697930433306812,-0.05062062917824487,1.5718980054150744,-2.412871247620796
2.2561778205555982,26.33958817640025,-0.05147668019837786,1.5441216198593586,-2.319011543240982
2.2442613830423706,25.987558137857526,-0.05214451556882081,1.5170091500774037,-2.2300560463406374
2.2322107453919497,25.64169082702518,-0.05264363791309967,1.4905326832473413,-2.1456435501670095
2.2200915526208744,25.30184895817037,-0.05274064705277273,1.464614002446648,-2.0600209913465197
2.2079622242075616,24.967900837309614,-0.05273177393255532,1.4392827006903843,-1.9788091478102403
2.1958457466322754,24.639714086598534,-0.0526289006351493,1.4145151315798556,-1.9017232189116666
2.183762514146115,24.317161622945548,-0.052442686201028134,1.3902889001852554,-1.8285003053251887
2.1717305950700196,24.000121379915207,-0.05218269706936555,1.366582778339423,-1.758897455640444
2.1597659698029217,23.68847604830622,-0.05185752264453185,1.3433766269561067,-1.6926899109736997
2.147882743749685,23.382112833868696,-0.05147487781839704,1.320651324674541,-1.6296695251027724
2.136093337986557,23.080923230776563,-0.051041694034887085,1.298388702213583,-1.5696433404653505
2.12440866014096,22.78480280960475,-0.05056420027465381,1.2765714818891558,-1.5124323028013207
2.11283825766611,22.493651018679344,-0.05004799515882333,1.2551832218100005,-1.4578700993272544
2.10139045543289,22.207370997774387,-0.049498111217002774,1.2342082643200725,-1.4058021071553086
2.0900724793362273,21.925869403222787,-0.048919072232237855,1.2136316883025269,-1.3560844402510386
2.0788905674164777,21.649056243592874,-0.048314944461236714,1.1934392650010457,-1.3085830846000273
2.067850069824073,21.376844725156992,-0.04768938242923792,1.1736174170501024,-1.2631731124512773
2.056955538804698,21.109151106445943,-0.047045669913156,1.1541531804373144,-1.2197379675509465
2.0462108097496827,20.84589456124353,-0.04638675665219296,1.135034169148878,-1.1781688141943452
2.0356190742397393,20.586997049429932,-0.04571529126035735,1.116248542273706,-1.1383639437251267
2.0251829459075217,20.332383195131627,-0.04503365075892736,1.0977849733637295,-1.100228232813575
2.0149045198540123,20.08198017168007,-0.044343967097676844,1.079632621867209,-1.0636726484638928
2.004785426273852,19.835717592921384,-0.043648150990672346,1.061781106469182,-1.0286137952445895
1.9948268788741221,19.593527410455742,-0.042947913354805814,1.0442204801885615,-0.9949735007160593
1.9850297186086023,19.355343816418113,-0.04224478460623566,1.0269412070951744,-0.9626784354534416
1.9753944531941756,19.1211031514421,-0.041540132040952985,1.0099341405223468,-0.9316597644379955
1.965921292826938,18.890743817475936,-0.04083517550024277,0.9931905026616987,-0.9018528269225916
1.9566166683524568,18.66432683662744,-0.04007460253872368,0.9756528090643655,-0.8942376122081921
1.9474846346684087,18.441927598411784,-0.03933438601821666,0.9582536102021729,-0.8894422565406509
1.938520391727661,18.223514745282348,-0.03861555259698093,0.9409885909233666,-0.8873168403061222
1.9297189257267098,18.009057890569196,-0.03791893436781369,0.9238536239736049,-0.8877166223223204
1.9210750520222664,17.798527576332173,-0.03724518480125819,0.9068447606961584,-0.8905016772361419
1.9125834545238884,17.591895233272886,-0.0365947934455067,0.8899582224280849,-0.8955365493597047
1.9042387218378383,17.38913314255023,-0.03596809947666963,0.8731903925515192,-0.902689921397793
1.896035380416704,17.190214399353,-0.0353653041853655,0.8565378091635286,-0.9118342966028951
1.88796792495036,16.995112878091007,-0.03478648247849639,0.8399971583320525,-0.9228456929663852
1.8800308462164503,16.803803199073254,-0.034231593468542765,0.8235652679092912,-0.9356033481165588
1.8722186565926497,16.616260696547762,-0.033700490216679355,0.8072391018775902,-0.9499894336466892
1.8645259134183327,16.432461387983103,-0.03319292869042619,0.7910157552064055,-0.9658887776394398
1.8569472403799279,16.25238194447609,-0.032708575991356625,0.7748924492023902,-0.9831885941881463
1.8494773470820145,16.075999662173945,-0.03224701790354188,0.7588665273380273,-1.0017782187408935
1.842111046955086,15.903292434602097,-0.03180776580887847,0.742935451547611,-1.0215488481100674
1.8348432736407791,15.734238725791105,-0.03139026301118121,0.7270967989827651,-1.042393283998208
1.8276690959862005,15.568817544097424,-0.030993890506894967,0.711348259223144,-1.0642056788904608
1.820583731770716,15.40700841661349,-0.03061797223644767,0.6956876319415166,-1.0868812831546055
1.8135825602811653,15.24879136406221,-0.03026177984660231,0.6801128250261451,-1.1103161921712956
1.8066611338448832,15.094146876069967,-0.029924536990634465,0.6646218531672825,-1.1344070922894924
1.799815188424141,14.94305588671007,-0.029605423189732204,0.649212836918784,-1.1590510043647482
1.7930406533706216,14.795499750205622,-0.029303577275655156,0.6338840022503218,-1.1841450235905397
1.7863336604343139,14.651460216676618,-0.0290181004313667,0.6186336806105764,-1.2095860542747925
1.7796905521177577,14.510919407810782,-0.028748058843034576,0.60346030952713,-1.2352705381445002
1.7731078894638626,14.373859792331071,-0.028492485973445936,0.5883624337746965,-1.261094174680396
1.7665824593636175,14.240264161124745,-0.02825038446346706,0.5733387071498873,-1.2869516318903695
1.7601112814688835,14.110115601889234,-0.028020727664656343,0.5583878948980402,-1.3127362458242737
1.7536916147951638,13.983397473138684,-0.027802460802470747,0.5435088768458612,-1.3383397070135183
1.7473209640998304,13.86009337740158,-0.027594501765644836,0.5287006513028812,-1.3636517318862265
1.7409970861227613,13.740187133424154,-0.02739574151321822,0.5139623398051695,-1.3885597170629345
1.7347179957788184,13.623662747176105,-0.027205044086286347,0.4992931927865479,-1.4129483742795554
1.7284819723951146,13.510504381433925,-0.027021246206789033,0.4846925962759004,-1.4366993435151627
1.722287566090681,13.400696323692756,-0.02684315644046019,0.4701600797342704,-1.4596907817248443
1.7161336044020614,13.294222952129626,-0.026669553895360392,0.4556953251624982,-1.481796924396952
1.710019199265668,13.191068699308563,-0.02649918642110596,0.44129817762936996,-1.5028876169765624
1.7039437544765492,13.091218013281125,-0.026330768266882593,0.42696865739181683,-1.5228278130335249
1.6979069737537857,12.994655315693748,-0.026162977148452136,0.41270697380275734,-1.5414770359198524
1.6919088695551858,12.901364956465123,-0.02599445066545964,0.39851354122875887,-1.5586888005804378
1.685949772798634,12.811331164542516,-0.025823782000211307,0.384388997228701,-1.5743099921864188
1.6800303436646034,12.724537994184512,-0.02564951481744326,0.3703342232756785,-1.588180198399797
1.6741515836744252,12.640969266149089,-0.02547013727106316,0.35635036833670364,-1.6001309924195035
1.6683148492623436,12.56060850308982,-0.025284075007905943,0.342438875656922,-1.6099851646005328
1.662521867086895,12.483438858379944,-0.02508968303947307,0.3286015131246134,-1.6175559015179044
1.6567747513594786,12.409443037494743,-0.02488523632936585,0.3148404076162626,-1.622645913063725
1.651076023506363,12.338603210989785,-0.024668918915118517,0.30115808373120445,-1.6250465107998322
1.64542863452633,12.270900918019692,-0.02443881134603968,0.2875575073130748,-1.6245366447411094
1.6398359904619966,12.206316959256537,-0.0241928761699026,0.27404213410565603,-1.6208819115866306
1.6343019814718918,12.144831277999558,-0.023928941135356444,0.26061596378111823,-1.6138335559619459
1.6288310150775351,12.086422828236593,-0.0236446796851353,0.24728359937511163,-1.603127498648437
1.623428054272591,12.03106942844975,-0.023337588183945216,0.23405031181481165,-1.58848344371296
1.6180986613311648,11.978747600095453,-0.023004959132803773,0.22092210865733838,-1.569604142274586
1.6128490483574458,11.92943238999544,-0.022643849334319836,0.20790580525581637,-1.5461749277063885
1.60768613590735,11.883097176445677,-0.022251041536077827,0.19500909517690526,-1.5178636900915103
1.602617621429257,11.839713459824189,-0.021822997403861757,0.18224061457516572,-1.4843215333086015
1.5976520598863617,11.799250640060883,-0.021355798621314842,0.16960999206227545,-1.445184465175273
1.5927989598511325,11.761675785813534,-0.02084507125024188,0.15712787095814573,-1.4000766214119977
1.5880688997844046,11.72695340397804,-0.020285885851741497,0.1448058841331141,-1.3486157322846968
1.5834736714178683,11.695045223781257,-0.019672621683356272,0.1326565523606455,-1.2904218220737507
1.5790264606105098,11.665910017807597,-0.01899877664150091,0.12069306480161461,-1.2251304965894103
1.5747420814742483,11.639503493542865,-0.018256694108598027,0.10892888532650408,-1.1524126136451271
1.5706372880929875,11.615778303687936,-0.01743716138062747,0.097377113412014,-1.072002582889771
1.5667312015223431,11.5946842407382,-0.016528808798889592,0.08604952093352315,-0.9837378182729299
1.5630459105633694,11.576168697326281,-0.015517199540012249,0.07495520438750912,-0.8876115302822224
1.5596073370466004,11.56017747840383,-0.014383439736238991,0.0640988731990265,-0.783839212637861
1.5564465068396243,11.546656022311485,-0.013102040324421563,0.05347900586485711,-0.6729343570087755
1.5536014514448373,11.535550983500805,-0.011637571804161943,0.043086549010616065,-0.555779279189987
1.551120126543295,11.526811881101562,-0.009939166470119944,0.032905645765398714,-0.43366187886111496
1.5490651371698472,11.520392007399547,-0.007930306342470158,0.02291934294776738,-0.3082330795776593
1.5475224162357293,11.516246671405305,-0.0054846583020331675,0.013127057002148019,-0.18133497848415298
1.5466226277003248,11.514322789134994,-0.0023395898319178636,0.0036023540440342228,-0.0546769478469854
