x,y,v_x,v_y,omega
2.375,32.48,0.0,2.6666666666666665,-7.142857142857143
2.373155196826597,31.874023428218035,-0.01604176672524319,2.6026948270895374,-6.684623427765029
2.3678927899578546,31.28244588364346,-0.029718293002953866,2.5414577344284695,-6.270365441439336
2.359718153113598,30.704661414891767,-0.04136550564275579,2.4827550373254064,-5.894559871826753
2.3490654427514417,30.140107633541515,-0.05126675837599304,2.4264082787637506,-5.552514793812633
2.3363086223204057,29.58826106118633,-0.059662114937362495,2.372257567803065,-5.240224621463188
2.3217705654762844,29.048633167876165,-0.06675577066369202,2.3201588957635915,-4.954253932657987
2.30573061764339,28.520766970665257,-0.0727220365788699,2.2699819495486464,-4.691643677216091
2.288430910326544,28.004234090517166,-0.07771020095892028,2.2216083126086765,-4.449834909932766
2.270081659070882,27.498632187871017,-0.0818485056120523,2.174929971270885,-4.226606367371675
2.2508656278833756,27.00358271381799,-0.08524741775757062,2.1298480639728092,-4.020023069244613
2.2309419060903863,26.51872892652697,-0.08800233696407427,2.0862718255143444,-3.8283937641661305
2.2104491150776595,26.043734132326513,-0.09019584575528795,2.0441176892722064,-3.6502355186303155
2.1895081400537095,25.57828011843929,-0.09189958923558354,2.0033085184427692,-3.4842441110077425
2.168224464384876,25.12206575031294,-0.0931758513629699,1.963772943525473,-3.3292691699938834
2.146690170065049,24.67480571119323,-0.09407888185291581,1.9254447879502907,-3.1842932111921955
2.1249856566859138,24.236229365332175,-0.0946560170960871,1.8882625673632378,-3.0484138922026847
2.1031811222504633,23.80607972923365,-0.09494863016869663,1.8521690508847994,-2.9208289372439546
2.08133784185832,23.384112537774634,-0.09499293845863864,1.8171108748457887,-2.8008232854629043
2.059509274330341,22.97009539402595,-0.0948206922194401,1.7830382012297046,-2.687758099005917
2.037742021957667,22.56380699322638,-0.09445976319511681,1.7499044144187377,-2.5810613323879665
2.016076664543236,22.165036412710876,-0.09393464910428057,1.7176658509334612,-2.4802196172983813
1.9945484855846045,21.77358246071398,-0.09326690705773316,1.6862815577352068,-2.384771259469762
1.973188105693605,21.389253077906687,-0.09247552677704737,1.6557130753716667,-2.294300178721203
1.9520220360561398,21.011864786313964,-0.09157725267917118,1.6259242428259217,-2.2084306514035053
1.9310731628204767,20.6412421809275,-0.09058686241355018,1.5968810214041942,-2.1268227374967434
1.9103611716975486,20.277217459896246,-0.08951740822060775,1.5685513353893255,-2.0491682935384383
1.889902920707681,19.919629989662624,-0.0883804264738918,1.5409049275117421,-1.9751874881815297
1.8697127678708556,19.568325901829326,-0.08718611993328597,1.5139132275604084,-1.9046257501198356
1.8498028596762142,19.22315771890132,-0.08594351654185596,1.4875492326831417,-1.8372510888723328
1.8302204098791155,18.883992331506434,-0.0843386556068294,1.4617150055332242,-1.76420291227728
1.8110073336484045,18.55070177540783,-0.08273157248631047,1.4364637431503056,-1.694896729746915
1.792163625633408,18.223154649594548,-0.0811267580788765,1.4117721334869364,-1.629092213834989
1.7736883186887034,17.901224774798557,-0.0795280849185533,1.3876180821303588,-1.5665674104320706
1.7555796175397806,17.584790922702506,-0.07793888159381855,1.3639806317483614,-1.5071171118804818
1.7378350163724925,17.273736562933678,-0.07636199812173194,1.3408398879805727,-1.4505513933966823
1.7204514022942385,16.967949626431896,-0.07479986342830312,1.318176951165386,-1.3966942945021665
1.7034251463679202,16.66732228391151,-0.07325453593098599,1.2959738533596739,-1.3453826294260072
1.68675218370594,16.371750738255944,-0.07172774808623268,1.2742135001670023,-1.2964649123985144
1.670428083926164,16.081135029788477,-0.07022094565094933,1.2528796169413976,-1.2498003854509705
1.6544481131108137,15.795378853457649,-0.06873532230861985,1.2319566989788362,-1.2052581378087668
1.638807288269285,15.514389387060017,-0.06727185022641276,1.2114299653483904,-1.1627163072463862
1.6235004251840215,15.238077129699196,-0.06583130703674858,1.1912853160500694,-1.1220613548894829
1.6085221804122984,14.96635574974843,-0.06441429967388701,1.1715092922174644,-1.0831874059246624
1.5938670881240107,14.69914194164567,-0.06302128544165962,1.1520890391108702,-1.0459956495308933
1.5795295923744685,14.436355290905752,-0.06165259064131449,1.1330122716710427,-1.0103937920943271
1.5655040753402523,14.177918146784641,-0.06030842704752297,1.1142672424255624,-0.9762955584248094
1.5517848819840063,13.92375550207639,-0.05898890648505178,1.0958427115592317,-0.9436202362696101
1.5383663415595419,13.673794879564685,-0.05769405372768061,1.077727918977319,-0.9122922599282672
1.5252427863207476,13.4279662246886,-0.05642381791401051,1.059912558206034,-0.8822408292208211
1.5124085677557346,13.186201804016218,-0.05517808265131849,1.0423867519885792,-0.8533995604577885
1.499858070630651,12.94843610915105,-0.05395667495810391,1.0251410294476628,-0.8257061664105968
1.487585725094994,12.714605765724453,-0.05275937317804333,1.008166304696643,-0.7991021625915838
1.4755860170715454,12.484649447153302,-0.051585913982380466,0.991453856791635,-0.7735325974280054
1.4638643016031856,12.258625368033396,-0.050342046612052216,0.9739729181640618,-0.7695460730423382
1.4524237392725259,12.036606279843571,-0.04914110408933525,0.9566278487039689,-0.7683060012570052
1.441254470735664,11.818561417870171,-0.04798297014424712,0.93941442932561,-0.769663593956613
1.4303466788403807,11.604460966592733,-0.0468673941625649,0.9223286252608243,-0.7734752890228271
1.419690618080402,11.3942760183523,-0.045794003750291995,0.9053665768298913,-0.7796023779171178
1.4092766412793933,11.187978534061646,-0.04476231625848059,0.8885245909149387,-0.7879106507385797
1.3990952237345904,10.985541305800648,-0.0437717493485018,0.8717991330937488,-0.7982700570962482
1.3891369850323199,10.786937921149292,-0.0428216306712428,0.8551868203963094,-0.8105543812299149
1.3793927087314517,10.592142729118887,-0.04191120672760944,0.8386844146506818,-0.824640929895863
1.3698533600959883,10.401130807549354,-0.0410396509720723,0.8222888163887497,-0.840410231604969
1.360510102044387,10.213877931846731,-0.040206071215765346,0.805997059286227,-0.8577457458608764
1.3513543094707836,10.030360544940596,-0.039409516380787046,0.7898063051149569,-0.8765335810959732
1.3423775820819184,9.850555728345629,-0.038648982652823266,0.7737138391890976,-0.8966622200430665
1.3335717558832219,9.674441174215502,-0.03792341907497229,0.7577170662902742,-0.9180222513112669
1.324928913438108,9.501995158280192,-0.03723173262167087,0.7418135070602401,-0.9405061059558397
1.3164413930160115,9.33319651356016,-0.03657279278786261,0.7260007948530706,-0.9640077978437455
1.3081017967370339,9.168024604752176,-0.03594543572498546,0.710276673042445,-0.9884226666192724
1.2999029978141858,9.006459303182226,-0.03534846795195316,0.6946389927832116,-1.0136471220674574
1.291838146988117,8.84848096222068,-0.03478066966603661,0.67908571123022,-1.0395783886567094
1.2839006782438533,8.694070393053742,-0.03424079767538655,0.6636148902213999,-1.0661142490159046
1.2760843138944213,8.543208840703105,-0.033727587971848876,0.6482246954363229,-1.093152785064869
1.2683830691122955,8.39587796018263,-0.03323975795967973,0.6329133960460668,-1.1205921154701355
1.2607912559863674,8.252059792676686,-0.03277600835273844,0.6176793648751846,-1.1483301280396678
1.253303487179588,8.111736741619303,-0.032335024749691174,0.6025210791020461,-1.1762642056003076
1.2459146792606022,7.974891548546637,-0.031915478893664584,0.5874371215298478,-1.2042909438194092
1.2386200557815754,7.841507268586966,-0.03151602961961076,0.5724261824672958,-1.232305859336888
1.2314151501740453,7.711567245442698,-0.03113532348934651,0.5574870622654576,-1.2602030864651388
1.224295808535032,7.585055085707115,-0.030771995110769456,0.5426186745656925,-1.2878750605915124
1.2172581923768735,7.461954632344909,-0.03042466713408738,0.5278200503230451,-1.3152121862810284
1.2102987814163462,7.3422499371495356,-0.030091949913976252,0.5130903426801963,-1.3421024879257943
1.2034143764816685,7.225925231971708,-0.029772440822351903,0.4984288327791783,-1.36843124062282
1.1966021026200364,7.112964898491747,-0.029464723191839168,0.4838349366117937,-1.3940805787849635
1.1898594124935022,7.00335343628349,-0.02916736486498049,0.4693082130252228,-1.4189290798032117
1.1831840901573834,6.897075428888645,-0.028878916318662965,0.45484837301690606,-1.442851319886756
1.1765742553231247,6.794115507587346,-0.028597908327064624,0.44045529047265486,-1.465717399017194
1.170028368216768,6.6944583125126975,-0.028322849119515565,0.42612901452429,-1.4873924317751726
1.163545235155105,6.598088450713675,-0.02805222098190186,0.4118697837280943,-1.5077360006474763
1.1571240149744204,6.504990450721241,-0.02778447624144196,0.39767804229306963,-1.5266015683228742
1.1507642264617228,6.41514871311643,-0.02751803256462303,0.3835544586183306,-1.5438358454693095
1.1444657569558414,6.328547456535688,-0.027251267486518932,0.36949994643161754,-1.5592781106012783
1.1382288723061234,6.245170658477715,-0.026982512076246856,0.3555156888551159,-1.572759478963497
1.1320542284001995,6.1650019901970765,-0.026710043627437563,0.34160316575913485,-1.5841021179739383
1.125942884500035,6.0880247448831994,-0.026432077243558286,0.32776418479631536,-1.5931184078270628
1.1198963186580888,6.014221758230104,-0.026146756164669563,0.3140009165349561,-1.5996100475579629
1.1139164455240416,5.943575320404385,-0.02585214065313337,0.30031593412346813,-1.6033671094976218
1.1080056368988,5.876067078320645,-0.025546195218531503,0.2867122579090566,-1.6041670490192237
1.1021667454486803,5.811677927041561,-0.02522677391294404,0.273193405387313,-1.6017736823723974
1.0964031320621634,5.7503878890454985,-0.024891603361115136,0.2597634467523564,-1.5959361540662584
1.090718697419476,5.692175980065812,-0.024538263097035388,0.24642706611449022,-1.586387927895166
1.0851179184591289,5.637020060230974,-0.024164162645114673,0.23318962810148863,-1.5728458540235055
1.0796058905772987,5.584896669366348,-0.023766514588190287,0.22005724898222517,-1.5550093910158465
1.074188376604036,5.535780845622263,-0.023342302570615182,0.2070368705315455,-1.5325600998174933
1.068871863893818,5.489645927167416,-0.02288824273562976,0.1941363334236521,-1.5051615814105295
1.0636636312931713,5.446463337676988,-0.022400736400427355,0.18136444475397331,-1.4724601081165725
1.0585718283786996,5.406202357964826,-0.021875810681935663,0.16873103100395115,-1.434086309776028
1.0536055703130087,5.36882988866396,-0.021309042063201576,0.1562469629166159,-1.389658432847524
1.0487750531332434,5.334310212776135,-0.020695455152148847,0.14392413176011662,-1.3387879083725058
1.044091696570655,5.302604772754897,-0.020029384522532927,0.13177534668544383,-1.2810882604870024
1.0395683250834213,5.273671985249358,-0.019304280583847127,0.11981410988445192,-1.216188772628606
1.0352194034321511,5.247467128416531,-0.018512429427198485,0.10805421040099893,-1.1437547949486817
1.031061352025685,5.2239423521566835,-0.01764453932467978,0.09650906142374971,-1.0635170576530388
1.0271129812266795,5.203046879846127,-0.016689119797107452,0.08519069779847849,-0.9753126518733912
1.0233961055539726,5.184727487076412,-0.015631538226430406,0.07410836976427575,-0.8791399794515891
1.019936432390156,5.168929347632552,-0.014452576241540676,0.06326675583450816,-0.7752279972232349
1.0167648724142064,5.155597305545065,-0.013126206158021956,0.052664044926254046,-0.6641148666254258
1.0139195061323638,5.144677519599412,-0.011616109336261095,0.042290615470725414,-0.5467206787897255
1.0114486103398057,5.1361191589823,-0.0098699410338101,0.03212991163460511,-0.4243827257716862
1.0094155795376976,5.12987527952323,-0.007808587680174083,0.02216469235730994,-0.2988048946834101
1.0079080668662543,5.125900791451905,-0.005300218158462595,0.012396073480292147,-0.17186886056520537
1.007061248048626,5.124140784277785,-0.0020634237339562903,0.00290833672944283,-0.04528702153222244
