x,y,v_x,v_y,omega
2.375,32.48,0.0,3.230769230769231,-3.7142857142857144
2.3741820954195805,31.873349101734295,-0.008609521899151039,3.1550296983434083,-3.4773363050995814
2.37184960658155,31.28079759832633,-0.01594299218538102,3.082354548056211,-3.262986854427818
2.3682277916405443,30.701781995049913,-0.022181375614682235,3.0125465390639827,-3.068442568360851
2.3635101653671606,30.135774628332094,-0.027477848315667887,2.945425742176217,-2.8913169915928227
2.3578633338828814,29.58228056555319,-0.03196248309779974,2.8808275502333087,-2.7295642125154655
2.3514310214267606,29.040834855202394,-0.035746069071890346,2.818600979775076,-2.5814236021403127
2.344337437046254,28.511000077047285,-0.03892324019660136,2.758607211331316,-2.445374538118581
2.336690099569305,27.992364150908266,-0.041575049034441806,2.7007183269741892,-2.320099130549327
2.3285822160943237,27.4845383696763,-0.043771092807468784,2.6448162123096344,-2.2044513956408975
2.3200946910171627,26.987155627829736,-0.04557127642580467,2.590791596601561,-2.097431651956745
2.311297828173809,26.499868821226414,-0.0470272798200252,2.5385432097492218,-1.9981651674054397
2.3022527771677863,26.022349397618534,-0.04818378340126448,2.4879770387547477,-1.9058842818788102
2.2930127657304116,25.554286040343946,-0.04907949488689135,2.4390056693988162,-1.8199133841457371
2.2836241525395513,25.095383470128674,-0.04974801238531784,2.391547701288268,-1.739656242396123
2.2741273289209416,24.64536135199849,-0.05021855202110213,2.345527226397896,-1.6645852832735433
2.264557492982966,24.203953296023776,-0.05051656311548479,2.3008733628096056,-1.5942324900450515
2.2549453157631976,23.770905942076233,-0.050664249724182354,2.257519836638223,-1.5281816510664923
2.2453175157142966,23.345978120007835,-0.050681013948457164,2.2154046061870276,-1.466061738223182
2.2356973551873685,22.92894007771175,-0.050583833703420136,2.174469523245404,-1.4075412341052789
2.2261050703711804,22.519572770422982,-0.05038758541434883,2.134660027162721,-1.3523232582836615
2.2165582443271488,22.11766720538867,-0.050105320312301097,2.0959248679352878,-1.3001413687167325
2.207072131251943,21.723023836705124,-0.049748501531969136,2.05821585504942,-1.2507559352378106
2.197659938845214,21.335452005696588,-0.04932720801255013,2.021487629250955,-1.2039509991864028
2.1883330746135994,20.954769422714214,-0.04885031021496903,1.9856974547740402,-1.1595315472960555
2.179101361066933,20.58080168667294,-0.0483256218552021,1.9508050298709043,-1.1173211395241893
2.169973224028484,20.213381839029083,-0.047760031181103245,1.916772313748657,-1.077159840072863
2.1609558576638026,19.852349949239567,-0.047159614762911924,1.8835633682462811,-1.0389024087772953
2.1520553693123956,19.497552729041992,-0.0465297363045292,1.8511442127808326,-1.0024167166307936
2.1432769067667734,19.14884317315798,-0.04587513259675556,1.8194826912613657,-0.9675823547116249
2.1346247702710093,18.80608022425561,-0.04519998841129038,1.788548349816262,-0.9342894103741225
2.1261025111948304,18.46912846021382,-0.044508001864275316,1.758312324307808,-0.9024373884208401
2.117713019070335,18.137857801916198,-0.04380244155146624,1.728747236719823,-0.8719342582132469
2.109458598449143,17.812143239965607,-0.04308619656634403,1.6998270996021805,-0.8426956104100426
2.1013410368419416,17.49186457885839,-0.04236182035156583,1.6715272278421782,-0.8146439093303763
2.0933616648347195,17.176906197288076,-0.041631569198140525,1.643824157108501,-0.7877078288944106
2.085521409332205,16.867156823366635,-0.04089743609148788,1.6166955683803996,-0.7618216617536792
2.0778208407554692,16.56250932365728,-0.040161180505729144,1.590120218033844,-0.7369247926363216
2.070260214914311,16.262860505008227,-0.03942435466435704,1.5640778730088205,-0.7129612281370743
2.0628395101833172,15.968110928262686,-0.038688326714524636,1.538549250628467,-0.6898791762116631
2.0555584605312816,15.678164732998177,-0.037954301201642386,1.5135159626821464,-0.6676306695172641
2.048416584885104,15.392929472518336,-0.03722333717917289,1.4889604634214446,-0.6461712274977253
2.0414189472477227,15.112316939270737,-0.0364360063722084,1.4648556760269582,-0.6237144684301458
2.0345696848771575,14.83624197933404,-0.03566149226531985,1.441196533833019,-0.6022425753509564
2.0278663363356966,14.564621377090091,-0.03490007132900578,1.417967700313814,-0.581701026205189
2.021306394823606,14.29737476711982,-0.0341519445877404,1.3951545098995877,-0.5620388875732443
2.0148873216084704,14.034424510233023,-0.0334172471505258,1.3727429310140402,-0.5432085408471483
2.0086065577491055,13.775695576291312,-0.03269605663226246,1.3507195315302838,-0.5251654320886213
2.002461534312337,13.521115433382082,-0.03198840059688313,1.3290714464616005,-0.5078678432843479
1.9964496812576114,13.270613942934915,-0.03129426313706838,1.3077863477191174,-0.491276682956577
1.990568435143914,13.024123260402227,-0.030613590691326485,1.286852415782846,-0.47535529430180185
1.984815245795474,12.781577741154035,-0.029946297186988595,1.2662583131454928,-0.4600692792202922
1.9791875820469451,12.542913851262195,-0.02929226858699861,1.2459931594001872,-0.44538633676773043
1.9736829366748199,12.308070082873055,-0.028651366909055877,1.22604650785391,-0.4312761147097715
1.9682988306095954,12.076986873888917,-0.028023433777517703,1.20640832355806,-0.41771007299331037
1.9630328165124045,11.849606531698544,-0.027408293561333247,1.1870689626563693,-0.4046613580665803
1.9578824817903002,11.625873160715145,-0.02680575614502723,1.1680191529583581,-0.39210468708567503
1.9528454511159674,11.405732593496992,-0.026215619374266527,1.1492499756537788,-0.38001624113918875
1.947919388510203,11.18913232524132,-0.025637671212725803,1.1307528480901263,-0.36837356670673616
1.9431019990389342,10.976021451456333,-0.025071691642734515,1.1125195075413268,-0.3571554846422984
1.9383910301707206,10.766350608629288,-0.024517454338462568,1.0945419959012357,-0.3463420060406653
1.93378427283554,10.560071917720812,-0.023974728137121606,1.0768126452406181,-0.33591425440558864
1.9292795622210908,10.35713893032672,-0.02344327833076767,1.0593240641708976,-0.32585439359241875
1.9248747783387874,10.157506577359076,-0.02292286779874036,1.0420691249621843,-0.31614556104664404
1.9205678463880476,9.961131120107808,-0.022413257998521625,1.0250409513669672,-0.3067718059035054
1.9163567369442611,9.76797010355303,-0.021914209830807493,1.0082329071044063,-0.2977180315532429
1.912239465993016,9.577982311806586,-0.021425484392826235,0.9916385849634243,-0.2889699423120239
1.9082181332474617,9.391329180854257,-0.020904333981429858,0.973131214534786,-0.32263107350874487
1.904291928026609,9.208182331578762,-0.020424142027546312,0.954730356786233,-0.3576692636648063
1.9004531757403709,9.02852178796336,-0.019983776774959622,0.9364332602179902,-0.39398077694717704
1.8966944200805553,8.852328086696794,-0.019582072275729775,0.9182372794300664,-0.43146371065755473
1.8930084291152907,8.679582257321279,-0.01921783262179423,0.9001398718911532,-0.4700177698673526
1.8893882006186566,8.51026580296,-0.01888983576382773,0.8821385950696874,-0.5095440446674427
1.885826966711435,8.344360681555688,-0.018596836943768565,0.8642311039230508,-0.5499447890802006
1.882318197884148,8.181849287552364,-0.018337571764516582,0.8464151487435267,-0.5911232006683392
1.8788556064693556,8.022714433952302,-0.018110758917506832,0.8286885733623967,-0.6329831998542726
1.8754331496265093,7.8669393346798095,-0.01791510258613796,0.8110493137164707,-0.6754292079349009
1.872045031899492,7.714507587182222,-0.0177492945403608,0.7934953967844571,-0.7183659227392585
1.8686857074043246,7.565403155196826,-0.017612015935084366,0.776024939903927,-0.7616980908298068
1.865349881702363,7.419610351610043,-0.017501938822406315,0.7586361504832758,-0.8053302750915804
1.86203251341266,7.277113821332058,-0.017417727384994943,0.7413273261270911,-0.8491666164860829
1.8587288156160406,7.137898524106198,-0.017358038895209642,0.7240968551977608,-0.893110588667848
1.8554342571028326,7.001949717167506,-0.01732152440171425,0.7069432178410993,-0.9370647440698621
1.852144563516144,6.869252937659219,-0.017306829142377942,0.6898649875092961,-0.9809304499584115
1.8488557184431005,6.739793984708864,-0.01731259267913305,0.6728608330207354,-1.0246076128370614
1.8455639645076058,6.61355890105758,-0.017337448747126366,0.655929521203296,-1.067994389441974
1.842265804519972,6.490533954126569,-0.017380024806913637,0.6390699201757774,-1.1109868824151155
1.8389580027412826,6.370705616393401,-0.01743894128455404,0.6222810033312621,-1.1534788185665155
1.8356375863236307,6.254060544937744,-0.017512810480204612,0.6055618540967137,-1.1953612074400242
1.832301846991504,6.140585560000819,-0.01760023512112826,0.5889116715551407,-1.2365219776774878
1.828948343034662,6.030267622385185,-0.017699806529839608,0.5723297770304804,-1.2768455884326064
1.8255749016889553,5.923093809500919,-0.017810102372336798,0.555815621751261,-1.3162126128170932
1.8221796219888169,5.819051289840445,-0.01792968394490921,0.5393687957274131,-1.354499290067943
1.8187608781837281,5.7181272956367515,-0.018057092950762244,0.5229890379956914,-1.3915770428065977
1.8153173238209999,5.620309093427885,-0.01819084770953541,0.5066762484134348,-1.42731195542133
1.8118478966089053,5.525583952213822,-0.018329438733564362,0.49043050120829107,-1.4615642092486547
1.8083518241877599,5.433939108849302,-0.018471323594281445,0.47425206052350327,-1.4941874698674704
1.8048286309522283,5.345361730267253,-0.018614920990262962,0.45814139823488365,-1.5250282214662814
1.8012781460862404,5.259838872071018,-0.018758603914873818,0.4420992143570719,-1.5539250429232616
1.7977005129927632,5.177357432968773,-0.018900691805936832,0.42612646040340485,-1.5807078199877935
1.7940962003247098,5.0979041044494515,-0.019039441541994787,0.4102243661157584,-1.6051968878255511
1.7904660148509595,5.021465315014872,-0.01917303712905995,0.39439447003769623,-1.6272020982690907
1.7868111164234248,4.948027168187107,-0.019299577897620393,0.3786386544650858,-1.6465218065231055
1.7831330353480357,4.877575373402703,-0.019417065001213846,0.362959185370746,-1.6629417729855343
1.7794336925054064,4.810095168786329,-0.019523385973831343,0.34735875795948695,-1.6762339775226645
1.7757154226170098,4.745571234666986,-0.019616297061922368,0.33184054855989736,-1.6861553463589654
1.7719810011115986,4.683987596562986,-0.019693402995037718,0.3164082735874774,-1.6924463962677125
1.768233675116752,4.625327516223589,-0.01975213379281974,0.3010662563008955,-1.6948298077923485
1.7644771991851993,4.569573369186095,-0.019789718118263074,0.2858195019885189,-1.6930089499867553
1.7607158764701092,4.516706507205512,-0.01980315256689309,0.2706737820176013,-1.6866663953898384
1.7569546061957277,4.466707103869901,-0.019789166110806774,0.2556357267783213,-1.6754624882225415
1.7531989384419389,4.419553981775881,-0.01974417866592001,0.2407129268429392,-1.6590340648964659
1.7494551374933902,4.375224419882247,-0.01966425237143489,0.22591404045846955,-1.6369934793971603
1.745730255327906,4.333693940203425,-0.019545033581031716,0.21124890352914305,-1.608928165043315
1.742032217287949,4.294936074031931,-0.019381682629041285,0.19672863511814678,-1.574401080231529
1.738369922680591,4.25892210966737,-0.019168786922091934,0.18236572661406164,-1.5329525557214634
1.7347533641321182,4.225620826592543,-0.018900250430256928,0.16817409522624155,-1.4841043078522245
1.7311937712280634,4.194998225775127,-0.018569148559794055,0.15416907127288504,-1.4273667360328077
1.7277037867088112,4.167017273119349,-0.018167530590227722,0.14036727247214045,-1.3622511194105646
1.7242976879514589,4.141637684116315,-0.01768614053979598,0.12678629598085328,-1.2882889978586718
1.720991673790245,4.118815793605737,-0.01711400852561394,0.11344413044629027,-1.2050618637001895
1.7178042487806215,4.098504575973486,-0.01643783368095015,0.10035816041951985,-1.1122451926143562
1.7147567568163737,4.080653906840954,-0.015641029100606132,0.08754361992292888,-1.0096714211145954
1.7118741483884274,4.065211180748726,-0.014702217509354739,0.07501139157420937,-0.8974157500255536
1.7091861186127315,4.052122401540704,-0.013592832761127086,0.06276523166811954,-0.7759045219026461
1.7067288411587616,4.041333799890939,-0.01227324570171561,0.05079899622414562,-0.646034776309971
1.7045476832727706,4.032793822267653,-0.010686310992926022,0.03909550507359542,-0.5092713646606999
1.7027016474895558,4.026454833359605,-0.00874564461986177,0.027630693958491652,-0.3676556110253809
1.7012714081610447,4.022272763905672,-0.0063095062065712665,0.01639108976709716,-0.22363314298149678
1.7003779930171272,4.020199532379376,-0.003094863729400973,0.005432399983369878,-0.07962336492263536
