x,y,v_x,v_y,omega
2.375,32.48,0.0,3.0769230769230766,-4.938775510204081
2.373478408347506,31.781646600409147,-0.01323123176081544,2.9957151803886575,-4.578884165091883
2.3691676330523315,31.101530359296326,-0.024253770805921903,2.9183390901576067,-4.258496716303438
2.362534859181372,30.43880327036014,-0.03342252372416221,2.8445051614614147,-3.9720262371626975
2.353972755076466,29.79268041343665,-0.041030555448931624,2.773954463960242,-3.7148177650366536
2.3438123314704047,29.162433394703914,-0.04732095416899347,2.706454394585271,-3.4829714537104626
2.3323333600777647,28.547384702932526,-0.052496188375701205,2.641795099078987,-3.2732032063755483
2.319772861399716,27.94690281674935,-0.05672553925950639,2.579786519905124,-3.0827340131889485
2.3063320544795025,27.360397934333953,-0.06015104265539234,2.5202559358809578,-2.909201470951364
2.2921820738156446,26.78731822404916,-0.0628922674651097,2.4630458926824543,-2.750588585161479
2.277468692450828,26.227146514908874,-0.06505017918546985,2.4080124476678675,-2.6051661379619677
2.2623162397231287,25.679397361358063,-0.06671027931626433,2.355023670165276,-2.47144577815731
2.246830863258444,25.14361442887444,-0.06794516820273189,2.3039583514314335,-2.3481416397276416
2.2311032545944243,24.61936815631131,-0.06881664626700561,2.254704888247952,-2.2341387843228193
2.215210934239479,24.106253658340513,-0.06937744377599787,2.207160311498101,-2.1284671342046457
2.1992201734245422,23.603888837296843,-0.069672650266929,2.1612294367077443,-2.0302798457354494
2.183187615137636,23.11191267851779,-0.06974090005399397,2.1168241178927216,-1.938835291931253
2.1671616453681652,22.62998370717245,-0.06961535881096881,2.0738625894580602,-1.8534819919325463
2.1511835561672465,22.157778587773393,-0.06932454728397945,2.032268883577184,-1.773645957349037
2.1352885346467256,21.694990850211447,-0.06889303115533257,1.9919723126136735,-1.698820029096853
2.1195065060043445,21.241329728356867,-0.06834200051754642,1.9529070078609418,-1.6285548601384712
2.103862853775147,20.79651909911786,-0.06768975799721579,1.9150115072608869,-1.5624512644059765
2.088379036535815,20.360296511405252,-0.06695213104045038,1.878228385892185,-1.5001537038901054
2.0730731170461807,19.932412295773823,-0.0661428210433253,1.842503923946327,-1.4413447272756847
2.0579602171567775,19.512628746637255,-0.06527369973409651,1.8077878076760132,-1.385740206798462
2.043052909629325,19.10071936991914,-0.06435506137418454,1.7740328594380042,-1.333085246888153
2.0283615562182242,18.69646818983291,-0.0633958378527792,1.7411947934857541,-1.283150659967213
2.0138945998735798,18.299669109201254,-0.06240378253543339,1.7092319946156165,-1.2357299225242058
1.9996588176924572,17.910125318348268,-0.06138562773519747,1.6781053171494686,-1.1906365390823475
1.9856595402187498,17.52764874813935,-0.06034721986225838,1.6477779020585217,-1.1477017535741565
1.971900841835963,17.152059563217236,-0.0592936356402365,1.6182150103076616,-1.1067725574157516
1.9583857062812504,16.78318569189735,-0.058229282226828084,1.5893838707348469,-1.0677099516493038
1.9451161707086997,16.420862389549878,-0.05715798362143836,1.5612535409822816,-1.0303874272087887
1.932093451225231,16.0649318326173,-0.056083055365246326,1.5337947801705496,-0.9946896329181703
1.9193180523972808,15.715242740699523,-0.0550073692256259,1.5069799321579445,-0.9605112054580538
1.9067898628673405,15.371650024390142,-0.05393340929559248,1.480782818358417,-0.9277557394025038
1.8945296472006732,15.034017109378333,-0.05267716171890787,1.45515557304863,-0.8910732807978655
1.8825557617480249,14.702212785569454,-0.05144358134759827,1.4300994165937908,-0.8562555034100943
1.8708629091826166,14.37610828364339,-0.05023339748204014,1.4055919045024052,-0.8231836174162216
1.8594456471509284,14.055579865322873,-0.0490471419239425,1.3816117330673034,-0.7917478350028375
1.8482984304807042,13.740508569344232,-0.04788517694757435,1.358138666746965,-0.7618465809475563
1.8374156473790595,13.430779973496769,-0.04674771958846508,1.3351534710570585,-0.7333857815772367
1.8267916504110282,13.126283971519317,-0.045634862742242155,1.3126378504859957,-0.706278223433509
1.8164207829434549,12.826914563748748,-0.044546593497525044,1.2905743909972187,-0.6804429740311442
1.8062974016484037,12.53256966051077,-0.04348280906813893,1.2689465067243186,-0.655804858009955
1.7964158955819927,12.243150897329556,-0.04244333063978397,1.2477383905036297,-0.6322939827762666
1.7867707022870274,11.958563461110465,-0.04142791540339109,1.2269349679232473,-0.609845308422482
1.7773563213094166,11.678715926520521,-0.04043626701061654,1.2065218545980065,-0.5883982573172717
1.7681673254678298,11.403520101854916,-0.039468044655355215,1.186485316407268,-0.5678963592866427
1.7591983701722929,11.132890883735548,-0.03852287095801094,1.166812232456792,-0.5482869287680177
1.7504442010494432,10.866746120040013,-0.03760033880589823,1.147490060547866,-0.5295207707243395
1.7418996600992187,10.605006480507011,-0.036700017283010776,1.1285068049564821,-0.5115519124607282
1.7335596905790962,10.34759533450757,-0.03582145680501116,1.1098509863430097,-0.4943373587988495
1.7254193407870881,10.094438635510826,-0.03496419356027658,1.0915116136286684,-0.4778368683395061
1.7174737668929996,9.845464811809247,-0.034127753344841395,1.0734781576894161,-0.46201274878683785
1.7097182349485434,9.600604663100928,-0.03331165486782232,1.0557405267307547,-0.44682966952205216
1.7021481221904162,9.359791262556751,-0.032515412594152394,1.0382890432186151,-0.43225448980438474
1.694758917736046,9.122959864027628,-0.0317385391829784,1.0211144222520148,-0.41825610114509243
1.6875462227591413,8.890047814072283,-0.030980547572714248,1.0042077512727186,-0.4048052825493911
1.680505750221185,8.660994468509106,-0.03024095275733981,0.9875604710157894,-0.39187456745368543
1.6736395988595738,8.43584893125044,-0.02946471125667161,0.9702268094943582,-0.3983478205428724
1.6669480370409542,8.214675348632916,-0.028722782818281986,0.9530217350058665,-0.407225107953889
1.6604231632090543,7.997444590578091,-0.0280152505025865,0.9359413785143619,-0.4183745083959026
1.65405707185468,7.78412839837754,-0.027342065622405903,0.9189820319252113,-0.4316684382196134
1.6478418824413992,7.574699348564003,-0.026703059710472106,0.9021401403664192,-0.4469833375990578
1.641769765691413,7.369130818491119,-0.026097955506798075,0.8854122950499549,-0.46419936990245037
1.6358329674484513,7.16739695349208,-0.02552637704069622,0.8687952266808107,-0.4832001329368242
1.6300238303180294,6.969472635494505,-0.024987858876013624,0.8522857993850642,-0.5038723808128578
1.6243348132703113,6.77533345297509,-0.024481854582405985,0.835881005131596,-0.5261057552287584
1.6187585093769679,6.5849556721430424,-0.024007744490146476,0.8195779586253416,-0.5497925250157898
1.613287661840784,6.398316209246023,-0.023564842781016542,0.8033738926530805,-0.5748273328232936
1.6079151784651977,6.215392603896351,-0.02315240396321157,0.7872661538658051,-0.6011069478480403
1.6026341447004326,6.036162993318541,-0.022769628773877386,0.7712521989847132,-0.6285300235315915
1.5974378353933203,5.8606060874219,-0.022415669548837454,0.7553295914208558,-0.6569968591600605
1.5923197253592511,5.688701144603829,-0.022089635095241873,0.7394959983014917,-0.6864091643031713
1.5872734988868864,5.52042794819074,-0.021790595099234658,0.7237491878992772,-0.7166698250236626
1.582293058279289,5.355766783424009,-0.021517584097264376,0.7080870274636055,-0.7476826707736233
1.5773725315289264,5.19469841489817,-0.021269605036323785,0.6925074814567443,-0.779352240870927
1.5725062792185551,5.037204064357535,-0.02104563244516599,0.6770086102009499,-0.8115835494161021
1.5676889007352925,4.883265388755575,-0.020844615235377312,0.6615885689465153,-0.8442818474671929
1.5629152398811974,4.732864458478623,-0.02066547914805876,0.6462456073748031,-0.8773523812367756
1.5581803899604147,4.5859837356317215,-0.020507128858746677,0.6309780695547834,-0.910700145010529
1.5534796984204027,4.442606052279622,-0.020368449750054782,0.6157843943765238,-0.9442296274097536
1.5488087711229408,4.302714588529909,-0.020248309358308823,0.6006631164905498,-0.9778445495300132
1.544163476319565,4.1662928503378645,-0.020145558497133037,0.5856128677881146,-1.0114475933835603
1.539539948405783,4.033324646903836,-0.02005903205749351,0.5706323794642945,-1.044940118953248
1.534934591528964,3.9037940675233784,-0.01998754948006214,0.5557204847136078,-1.078221868029019
1.5303440831261899,3.7776854577378955,-0.01992991489188709,0.5408761221166842,-1.111190652843565
1.5257653774706763,3.6549833946190233,-0.01988491689518644,0.5260983397865656,-1.1437420273502041
1.5211957093087005,3.5356726610027778,-0.019851327991560433,0.5113863003547129,-1.1757689387924304
1.5166325976733739,3.419738218469643,-0.01982790361997579,0.4967392868899404,-1.2071613570002486
1.5120738499672115,3.307165178843565,-0.01981338078143624,0.48215670985857484,-1.2378058786131731
1.507517566412365,3.197938773955915,-0.01980647621722861,0.4676381152514287,-1.2675853031743947
1.5029621449757775,3.0920443233893558,-0.019805884100923973,0.4531831940230114,-1.2963781777671834
1.498406286886539,2.98946719988043,-0.01981027319680254,0.43879179301113225,-1.324058306577285
1.4938490028745803,2.8901927920180803,-0.019818283428924936,0.4244639275310409,-1.3504942214711126
1.4892896202737678,2.794206463827205,-0.019828521795532208,0.4101997958678781,-1.3755486093907277
1.4847277911487289,2.701493510771048,-0.01983955755263185,0.39599979592480494,-1.3990776921013266
1.4801635016236734,2.612039111642666,-0.019849916578284315,0.381864544321991,-1.4209305536132415
1.4755970826134515,2.525828275743006,-0.019858074814951138,0.3677948982837473,-1.4409484104803365
1.4710292221825756,2.442845784660193,-0.019862450670925267,0.35379198069724876,-1.4589638202123802
1.4664609797874935,2.3630761278708015,-0.019861396242834485,0.3398572087757259,-1.474799823322092
1.4618938026917052,2.286503431278433,-0.01985318719880117,0.32599232681007034,-1.4882690151921718
1.4573295448833092,2.213111377687895,-0.01983601113507812,0.3121994435424374,-1.4991725451895286
1.4527704888713355,2.142883118085603,-0.019807954186431873,0.2984810747383647,-1.5072990425585904
1.448219370792438,2.0758011724611265,-0.019766985630066958,0.28484019156141893,-1.5124234720091774
1.4436794093252945,2.0118473187660477,-0.019710940171181926,0.2712802753522975,-1.5143059271839225
1.4391543389896395,1.9510024684741083,-0.019637497530165273,0.25780537936022724,-1.5126903782316146
1.434648448504911,1.89324652709686,-0.019544158858778877,0.24442019783323293,-1.5073034018208382
1.4301666250071934,1.8385582379480994,-0.019428219382242463,0.23113014259077264,-1.497852939996206
1.425714405083673,1.7869150074804416,-0.019286736474458565,0.2179414266931923,-1.4840271610763616
1.4212980337988186,1.738292710705462,-0.01911649208949173,0.20486115395881585,-1.4654935353633638
1.4169245331844236,1.692665475658547,-0.01891394803568159,0.1918974116665204,-1.4418982966639649
1.4126017820926413,1.6500054467411651,-0.018675191892861452,0.17905936152809165,-1.4128665460210876
1.4083386099430926,1.610282528308769,-0.01839587027712669,0.16635732049273294,-1.3780033787459618
1.404144907857213,1.573464112434408,-0.01807110438269548,0.15380281754519667,-1.3368965967069553
1.4000317621729716,1.5395147988935989,-0.017695379828098424,0.1414086045487989,-1.2891218273563976
1.3960116177160047,1.5083961218269621,-0.017262398058571708,0.12918858733499358,-1.2342512366549498
1.3920984820411886,1.4800663072219962,-0.01676486867895861,0.11715762662123042,-1.1718675223237256
1.3883081880949166,1.454480099453626,-0.016194209114711013,0.1053311365819771,-1.1015855175493705
1.3846587429207133,1.431588714579643,-0.015540096747925777,0.0937243840613584,-1.0230844743100314
1.3811708066077446,1.4113400026233727,-0.014789784234412717,0.0823513720801258,-0.9361547209172357
1.377868372560868,1.3936789267063254,-0.013927033564513304,0.07122320111160414,-0.8407623260436182
1.3747797635223968,1.3785484806764465,-0.012930436335236328,0.060345894800396545,-0.7371333575724015
1.3719391281706914,1.365891137369136,-0.011770740636115827,0.04971796004577881,-0.6258528763319928
1.369388743582125,1.355650782879227,-0.010406516655765275,0.03932860073604857,-0.5079595819881028
1.3671826700469785,1.3477747355241263,-0.008776731475944387,0.029158767569179917,-0.38499331449687324
1.3653929474212356,1.3422146685418,-0.006786073965298404,0.019189640972780107,-0.2589263802091094
1.3641219523801187,1.338923364294864,-0.004266056827023239,0.009430395957107436,-0.131902839535135
1.3635396537866196,1.3378351211596389,-0.0007974092034029271,3.258782744894849e-05,-0.005784742988667213
