x,y,v_x,v_y,omega
2.375,32.48,0.0,2.6666666666666665,-2.612244897959184
2.3743045302073957,31.873908685118362,-0.006047563413950557,2.6036925931736334,-2.4452113979283565
2.372321873287589,31.282009767090017,-0.011192931540891595,2.5432545201163386,-2.2940934538693765
2.3692447632242253,30.703738604444077,-0.015564547270963743,2.485190372457038,-2.156922282417365
2.3652386667243293,30.138566225893634,-0.019271074467263595,2.429352049720738,-2.0320167986495696
2.3604459483583327,29.585996295189815,-0.02240473741096733,2.3756038694429025,-1.9179358958178276
2.354989338518983,29.0455624088897,-0.025044043800772887,2.323821228818952,-1.8134395231035456
2.3489748317437122,28.516825681175774,-0.027256015114621418,2.273889446954322,-1.7174567817524085
2.3424941175674507,27.9993725776245,-0.029098021200696152,2.2257027578393744,-1.6290596514578646
2.335626626163432,27.492812966014775,-0.0306192953559887,2.1791634300712497,-1.5474412572835494
2.32844125531642,26.996778357258425,-0.0318621902702003,2.1341809938970173,-1.4718978165544658
2.320997832802604,26.51092031359442,-0.03286322289342027,2.090671559703039,-1.401813582289958
2.31334835830279,26.03490900451826,-0.03365394667017985,2.048557214872275,-1.336648237567331
2.3055380610018275,25.56843189367013,-0.03426168203384023,2.0077654881549205,-1.2759263030612302
2.297606302606685,25.111192542196964,-0.03471013009783325,1.9682288724813208,-1.2192282048840044
2.2895873503235906,24.662909516023937,-0.035019889755162244,1.9298843985884593,-1.166182717001513
2.2815110401190317,24.223315386090487,-0.03520889463230814,1.8926732530067722,-1.1164605458847159
2.273403347153364,23.792155811979036,-0.03529278333002007,1.8565404349188683,-1.0697688677006003
2.2652868774648653,23.36918870053548,-0.03528521396127252,1.8214344471990271,-1.0258466625606248
2.2571812926744754,22.954183432082978,-0.03519813204211496,1.787307017605321,-0.9844607179138085
2.2491036775807167,22.546920147693537,-0.035041999207963845,1.7541128466507023,-0.9454021954761348
2.2410688589435988,22.14718909172695,-0.03482598894088593,1.7218093791456888,-0.9084836742036148
2.2330896824543873,21.75479000449327,-0.034558154443563645,1.6903565967993777,-0.8735365965848187
2.2251772538056938,21.36953156045732,-0.03424557293637776,1.6597168296001752,-0.8404090576115871
2.2173411488739285,20.991230847895253,-0.033894469948540236,1.6298545839830494,-0.8089638857064397
2.2095895972716315,20.619712886343226,-0.03351032659317,1.6007363860345494,-0.7790769730562327
2.201929642894748,20.254810178556603,-0.0330979723362527,1.5723306381969635,-0.7506358195537273
2.194367284558317,19.89636229403081,-0.03266166537184284,1.5446074881142857,-0.723538260145618
2.18690759936621,19.54421548142941,-0.03220516238560865,1.51753870841959,-0.6976913500387381
2.1795548510822833,19.198222307525192,-0.03173177921375469,1.4910975863997011,-0.6730103860959512
2.172326103595525,18.858242448570174,-0.031126894584142226,1.4652490132091616,-0.6462493604632609
2.1652364876452244,18.524141169636035,-0.030521939766300056,1.4399794992616157,-0.6208581798481208
2.1582858298922463,18.195787909002554,-0.02991856243350912,1.415266245377343,-0.5967490318172393
2.151473604908906,17.873057215423614,-0.029318176552059302,1.3910876118308146,-0.5738407971971365
2.1447989856229226,17.555828489927016,-0.028721991152145073,1.3674230446613707,-0.5520584599631593
2.138260887554928,17.24398574392225,-0.028131035526065867,1.344253007553987,-0.5313325760095121
2.131858007617876,16.937417372391334,-0.027546181317867034,1.3215589188017944,-0.511598794257091
2.12558885814727,16.6360159410444,-0.026968161904791732,1.2993230929106907,-0.49279742435557466
2.119451796745329,16.339677986417964,-0.026397589416434115,1.2775286864496183,-0.47487304592949486
2.1134450524479904,16.048303827980575,-0.02583496969085791,1.2561596477885564,-0.45777415492015217
2.10756674865944,15.761797391388825,-0.025280715426973036,1.2352006704005623,-0.4414528430992059
2.101814923243152,15.480066042107758,-0.024735157758141342,1.2146371494348058,-0.4258645072865112
2.096187546110082,15.203020428673842,-0.024198556442465574,1.194455141294911,-0.4109675852036144
2.0906825346026223,14.930574334937063,-0.023671108839792298,1.1746413259814212,-0.3967233152431856
2.0852977669363404,14.662644540671593,-0.02315295782352921,1.1551829719791862,-0.38309551774032236
2.0800310939296445,14.399150689992613,-0.022644198756432792,1.1360679034901964,-0.3700503955998899
2.0748803492236947,14.140015167060774,-0.02214488564313437,1.117284469830146,-0.3575563523698172
2.0698433581705666,13.885162978595666,-0.021655036557976536,1.0988215168229785,-0.34558382605779986
2.0649179455464415,13.634521642756184,-0.02117463843441852,1.080668360042079,-0.33410513717181334
2.060101942227952,13.38802108397897,-0.02070365129157464,1.0628147597597908,-0.323094349626369
2.0553931909535437,13.145593533396546,-0.020242011964150028,1.0452508974786772,-0.31252714329925596
2.0507895512773633,12.907173434484708,-0.019789637393940747,1.0279673539286025,-0.30238069714995086
2.046288903810649,12.672697353614236,-0.019346427534007057,1.0109550884233358,-0.29263358192297456
2.0418891538345347,12.442103895205452,-0.018912267910468742,0.9942054194791283,-0.28326566155898913
2.037591678229227,12.215432055744891,-0.018457085179164775,0.9768540540909751,-0.2914273623515204
2.0333961951370823,11.992736259721205,-0.01802537649165866,0.9596311287236884,-0.3019495820921602
2.029297235953765,11.773987408037652,-0.017617746841530932,0.9425327989593896,-0.31470415836725574
2.0252892109654224,11.559157267727219,-0.017234644361449426,0.9255553776530753,-0.3295670796940972
2.021366443889773,11.348218436639947,-0.016876373687678366,0.9086953274536284,-0.3464181889296995
2.017523203465573,11.141144309787052,-0.01654310826188364,0.8919492538758937,-0.36514089870060906
2.0137537323256507,10.937909047218557,-0.01623490165048728,0.875313898893609,-0.3856219176571556
2.0100522733709973,10.738487543317774,-0.01595169795519094,0.8587861350262573,-0.4077509864073856
2.006413093847202,10.542855397401713,-0.015693341382163505,0.8423629598960263,-0.4314206220297032
2.0028305073096053,10.350988885521755,-0.015459585031718822,0.8260414912340468,-0.4565258700992747
1.9992988936499771,10.16286493336327,-0.015250098965047261,0.8098189623179808,-0.4829640631917322
1.9958127173450353,9.97846109014673,-0.015064477599665034,0.7936927178258523,-0.5106345848487429
1.9923665440757972,9.797755503435969,-0.01490224648066658,0.7776602100938097,-0.5394386380036362
1.988955055856405,9.620726894761827,-0.014762868470569374,0.7617189957682957,-0.5692790168714476
1.985573064801693,9.447354535971193,-0.01464574939649089,0.7458667328459179,-0.6000598813063192
1.9822155256542973,9.277618226212734,-0.014550243189559525,0.7301011780971967,-0.6316865326199756
1.9788775471845006,9.11149826947112,-0.014475656547801617,0.714420184873351,-0.664065189837663
1.9755544025692267,8.948975452561367,-0.014421253150232797,0.6988217012984104,-0.6971027653421035
1.9722415388506045,8.790031023494041,-0.014386257446481428,0.683303768852259,-0.7307066388211796
1.9689345855693197,8.634646670120347,-0.014369858042952564,0.6678645213537753,-0.7647844283906229
1.9656293626635042,8.4828044989636,-0.014371210703269962,0.6525021843570848,-0.799243757708221
1.9623218877202182,8.334487014140045,-0.01438944097747726,0.6372150749781615,-0.8339920178301666
1.95900838266362,8.189677096267584,-0.014423646471202442,0.6220016021736667,-0.8689361224821893
1.9556852799617266,8.048357981255215,-0.014472898762654706,0.6068602674990922,-0.9039822553269729
1.952349228432254,7.910513238859227,-0.014536244971890261,0.5917896663790678,-0.9390356077038818
1.9489970987274172,7.776126750883773,-0.014612708983210189,0.5767884899292273,-0.9740001051958829
1.945625988577802,7.645182688893623,-0.014701292317792783,0.5618555273764158,-1.0087781212403475
1.9422332278765446,7.517665491295105,-0.014800974649662858,0.5469896691324374,-1.0432701758436773
1.9388163836871457,7.393559839627468,-0.014910713953804684,0.5321899105861365,-1.077374617282884
1.9353732652613427,7.272850633890759,-0.015029446270569607,0.5174553566896035,-1.1109872844789237
1.9319019291577013,7.15552296671736,-0.01515608506544288,0.5027852274269147,-1.144001147505424
1.9284006845570472,7.041562096172406,-0.01528952015763624,0.48817886426832696,-1.1763059234514748
1.9248680988776703,6.93095341694265,-0.015428616184772157,0.4736357377295581,-1.2077876645880314
1.9213030038015593,6.823682429643622,-0.015572210564018531,0.45915545617503006,-1.2383283154947813
1.9177045018329326,6.719734707940489,-0.015719110902299657,0.44473777602612385,-1.2678052354902454
1.9140719735222242,6.6190958631379715,-0.015868091799512714,0.43038261356099683,-1.2960906823769045
1.9104050855027117,6.521751505848449,-0.016017890978858244,0.41609005852179665,-1.32305125317336
1.9067037995034082,6.427687204293903,-0.016167204667258208,0.4018603897786043,-1.3485472771702849
1.9029683825210153,6.336888438735542,-0.016314682136158967,0.3876940933375653,-1.3724321563373372
1.899199418356027,6.249340551453994,-0.01645891929852105,0.37359188302372864,-1.3945516478568072
1.8953978207439666,6.165028691621284,-0.016598451241134838,0.35955472421721313,-1.4147430834157577
1.8915648483427419,6.083937754312771,-0.016731743552123375,0.3455838610741932,-1.4328345199253139
1.887702121871932,6.006052312801334,-0.016857182281004718,0.3316808477209228,-1.4486438166625941
1.8838116437402674,5.93135654315715,-0.01697306234216648,0.3178475839676231,-1.4619776346084228
1.8798958205447163,5.859834140044104,-0.017077574140888112,0.3040863561458348,-1.4726303552191264
1.8759574888798363,5.791468222459379,-0.01716878816241623,0.2903998837213226,-1.4803829183712063
1.8719999449612654,5.726241228009567,-0.01724463721646025,0.2767913723640022,-1.48500158326441
1.8680269786450747,5.664134794160567,-0.017302895967806233,0.26326457414904636,-1.4862366224127355
1.8640429125190265,5.6051296247519495,-0.01734115730217991,0.2498238554911205,-1.4838209685991381
1.8600526468583256,5.549205339948784,-0.017356804964782528,0.23647427323206344,-1.4774688494457433
1.8560617113860827,5.496340307748824,-0.017346981750374732,0.22322165894151355,-1.4668744664563957
1.8520763249713403,5.446511455223753,-0.0173085522908639,0.21007271084171142,-1.451710808558976
1.8481034646575636,5.399694057935449,-0.017238059133279512,0.1970350916652907,-1.431628739516149
1.844150945778357,5.3558615065653505,-0.017131670251127492,0.18411752894424432,-1.4062565717136668
1.8402275154450045,5.314985050934098,-0.016985115256284593,0.1713299113275212,-1.375200446860513
1.8363429624822956,5.277033523584702,-0.016793606158576155,0.15868336997156296,-1.3380460029004038
1.8325082481126236,5.241973048428143,-0.016551736186398804,0.14619032704198598,-1.294362037973679
1.8287356636256553,5.209766745292708,-0.01625334630897575,0.13386448283136032,-1.2437072156004045
1.825039024396959,5.180374449536465,-0.015891342636209695,0.12172069765770933,-1.1856413245802617
1.8214339147319385,5.153752478408698,-0.015457437059621484,0.10977470345331529,-1.1197432423358658
1.8179380064427313,5.129853493914151,-0.014941765455224144,0.09804255302102055,-1.0456385482488628
1.8145714880102932,5.1086265363207986,-0.014332307870324459,0.08653968692118202,-0.963040583695441
1.8113576642038167,5.090017331586427,-0.013613986099036541,0.07527948468204551,-0.871809274436995
1.8083238238470303,5.073969001763029,-0.012767234394759552,0.06427120943444908,-0.7720312340974982
1.8055025354954102,5.060423306768769,-0.011765707793239892,0.05351744268954787,-0.6641204593725132
1.8029336352176857,5.0493224662782445,-0.010572555491321026,0.04301160505414046,-0.5489277431867564
1.8006673647263671,5.040611350792069,-0.009134144433188498,0.03273722526043092,-0.4278249604438933
1.798769572630863,5.0342392142680765,-0.00736839552771691,0.022672657556884475,-0.30269932404455235
1.797331386328418,5.030158743956822,-0.005137572319632425,0.012809692975764784,-0.17576986640604164
1.796493265733389,5.028315424036393,-0.0021504328545305976,0.003219175897527307,-0.049161123312156385
