x,y,v_x,v_y,omega
2.375,32.48,0.0,3.5384615384615383,-4.448979591836735
2.3740340854585247,31.850733830538903,-0.01073238379416876,3.4533847888839446,-4.155777220887023
2.3712835259210676,31.236459245532384,-0.019829388844242405,3.3718883778551563,-3.891575749737129
2.3670211682281415,30.636553339784122,-0.027530141077160116,3.293732797125531,-3.652665726074107
2.361480225302672,30.050434339451847,-0.03403589142806073,3.218700539899748,-3.435897770201581
2.354860500550057,29.47755788184839,-0.03951660582321443,3.1465934334719767,-3.2385864825037434
2.3473335392675674,28.917413738090946,-0.044116297315556205,3.0772303860552013,-3.0584327200970582
2.33904690984592,28.369522911190703,-0.047957362924970035,3.0104454683919446,-2.8934603764789393
2.3301277756667074,27.83343505485042,-0.05114412795517405,2.94608626872233,-2.741964686903459
2.320685886146863,27.30872616809051,-0.05376575559865167,2.884012473054462,-2.6024697491374646
2.3108160900472225,26.794996528569488,-0.05589864550846173,2.824094632734639,-2.4736934541096476
2.3006004542519243,26.291868833617073,-0.05760841888374207,2.7662130889588776,-2.354518406282354
2.2901100554813913,25.798986522933948,-0.058951567455511805,2.7102570297424897,-2.243967709878765
2.279406499881607,25.316012260908717,-0.05997682809764747,2.6561236594267563,-2.1411847265405526
2.2685432154239424,24.842626559766167,-0.06072633254307053,2.6037174643793373,-2.045416088811007
2.25756655401008,24.37852652744813,-0.061236572055401055,2.5529495613766513,-1.95599739404607
2.2465167336888294,23.923424726356664,-0.06153920929182986,2.5037371174174123,-1.872341113909109
2.235428646133835,23.477048130950774,-0.061661763541438167,2.456002831536918,-1.7939263422388387
2.224332550252915,23.03913717375225,-0.061628190691008694,2.4096744706689206,-1.7202900738925022
2.2132546693052064,22.609444870639187,-0.06145937539464356,2.3646844528095587,-1.651019763045124
2.2022177060375214,22.187736017430453,-0.061173549801854805,2.3209694717318943,-1.585746954351933
2.191241287994649,21.77378645072549,-0.06078665067450918,2.278470158323271,-1.5241418166555742
2.1803423532132764,21.367382366789016,-0.060312624674069774,2.2371307743042457,-1.4659084383276375
2.169535484898776,20.96831969298192,-0.059763689931493766,2.1968989346634253,-1.410780767267676
2.158833202346637,20.576403506855733,-0.059150560647829316,2.1577253556276035,-1.3585190981337079
2.14824621425641,20.191447498563477,-0.05848264035469409,2.1195636253974315,-1.308907025405697
2.1377836396555843,19.813273472707152,-0.05776818854336365,2.082369995228446,-1.261748794067662
2.127453200871631,19.44171088615035,-0.05701446461167623,2.0461031887360126,-1.2168669905750085
2.1172613923361334,19.076596418683792,-0.05622785244940917,2.0107242275591,-1.1741005257823074
2.107213628454182,18.717773573747,-0.05541396846115914,1.9761962717385781,-1.1333028689880764
2.097314373307425,18.36509230668843,-0.05457775539170048,1.9424844733565954,-1.0943404984844722
2.087567254566072,18.01840867829292,-0.05372356395666067,1.9095558421490995,-1.0570915392048914
2.0779751636519115,17.67758453152422,-0.052855223978457364,1.8773791219475697,-1.0214445624223465
2.0685403439112373,17.34248718962509,-0.051976106473477494,1.8459246769316793,-0.9872975261132042
2.0592644683155514,17.01298917389063,-0.05108917792303612,1.8151643867845506,-0.9545568376842279
2.050148708002201,16.688967939585535,-0.050197047780854175,1.7850715499387253,-0.9231365233637797
2.0411937927913044,16.37030562861433,-0.049302010117999076,1.755620794185801,-0.892957490760749
2.032400064664682,16.056888837677835,-0.04840608017780175,1.7267879939974764,-0.8639468729632694
2.0237675250632865,15.748608400760599,-0.047511026504373575,1.6985501939718244,-0.8360374441379368
2.0152958767484677,15.445359184894194,-0.046618399215835604,1.6708855378771252,-0.809167097944024
2.0069845608767265,15.147039898231679,-0.04572955491462045,1.6437732028175007,-0.7832783812333365
1.9988327898550071,14.853552909549936,-0.044845678660039225,1.617193338090743,-0.7583180764958553
1.9908395764722218,14.564804078370283,-0.04396780337090975,1.591127008349831,-0.734236827359934
1.9830037597409182,14.280702594954331,-0.043096826976907344,1.5655561407162997,-0.7109888021851074
1.975324027829432,14.001160829492488,-0.04223352759516169,1.540463475526402,-0.688531391413543
1.9677989384183494,13.726094189857282,-0.041378576972423545,1.5158325204203393,-0.6668249348879521
1.9604269367746536,13.455420987343448,-0.040532552401974245,1.4916475075111484,-0.6458324758120784
1.953210874408927,13.189063303101634,-0.03964591832832329,1.4678823173978908,-0.6241485690345334
1.946152834339192,12.926945818227846,-0.03877674911317264,1.444534181199744,-0.6033767269227808
1.9392496787905176,12.668994710800185,-0.037924979205433224,1.4215892346631656,-0.5834683905198473
1.9324982857922377,12.415138602024388,-0.0370904985532313,1.3990341961790198,-0.5643780739032421
1.9258955566155163,12.16530845414037,-0.03627315896589666,1.3768563358656272,-0.5460631385809002
1.91943842213376,11.919437473718538,-0.03547277972028547,1.3550434465991694,-0.5284835866673531
1.9131238482339334,11.677461020008206,-0.034689152500007606,1.333583816848968,-0.511601871095546
1.906948840391845,11.43931651802497,-0.03392204574541897,1.3124662051869953,-0.4953827212982768
1.900910447511298,11.204943376086486,-0.03317120848288509,1.2916798163517258,-0.4797929829518611
1.8950057651154102,10.974282907526774,-0.03243637369364317,1.2712142787561882,-0.46480147051572807
1.8892319379681937,10.747278256338213,-0.0317172612754306,1.2510596233389448,-0.45037883142732466
1.883586162195465,10.523874326507876,-0.031013580643775143,1.231206263664788,-0.43649742092377275
1.8780656869662347,10.304017714831009,-0.0303250330143402,1.211644977189296,-0.42313118656177784
1.872667815788684,10.087656646999246,-0.0296513134028886,1.1923668876080824,-0.41025556159672577
1.8673899074686577,9.874740916774925,-0.02899211237518409,1.1733634482176893,-0.3978473664619398
1.8622293767731035,9.665221828075474,-0.028347117575416646,1.1546264262206622,-0.38588471766077737
1.8571836948360554,9.459052139803493,-0.027716015058451657,1.136147887912442,-0.3743469434485599
1.8522503893404472,9.256186013269058,-0.02709849044830771,1.1179201846923943,-0.36321450573907543
1.8474270445052552,9.056578962060641,-0.02649422994271472,1.0999359398455681,-0.35246892772230004
1.8427113009040892,8.860187804230424,-0.02590292118135121,1.0821880360457092,-0.34209272672668606
1.8381008551383644,8.666970616668284,-0.02532425399336974,1.0646696035336503,-0.33206935190143216
1.8335934593855354,8.476886691546689,-0.02475792103806091,1.0473740089285117,-0.3223831263320757
1.8291869208405245,8.289896494726225,-0.024203618350951046,1.030294844632191,-0.31301919323697885
1.8248791010663763,8.105961626018193,-0.023661045806251862,1.0134259187904084,-0.30396346592319834
1.8206679152683312,7.925044781207202,-0.023129907505361365,0.996761245776165,-0.2952025812081915
1.8165558113380698,7.747327654426112,-0.02256013616421018,0.9778734962359333,-0.33483684556937116
1.8125421709364962,7.573001120341335,-0.02203586829771905,0.9590879935949298,-0.37562645731936195
1.8086189389809328,7.402047002583242,-0.02155559787520593,0.9404022037171995,-0.4174712826746784
1.8047783324382833,7.234447572103811,-0.02111780815423161,0.9218136904987038,-0.4602725435040823
1.8010128420213287,7.070185529748446,-0.020720974256374935,0.9033201134498077,-0.503932598935235
1.7973152334491542,6.9092439892319,-0.020363565434453747,0.8849192256229321,-0.5483547276703171
1.793678548325682,6.751606460456028,-0.02004404704857038,0.8666088718867456,-0.5934429100460075
1.790096104687379,6.5972568331066235,-0.019760882265910502,0.8483869875510603,-0.6391016088459187
1.7865614972687338,6.4461793604655675,-0.019512533496811604,0.8302515973495745,-0.6852355478379736
1.783068597532071,6.298358643372932,-0.01929746357721851,0.8122008147908047,-0.7317494869646959
1.7796115535066503,6.153779614271567,-0.01911413670523376,0.7942328418910359,-0.7785479930603159
1.7761847894808471,6.012427521263749,-0.018961019137023832,0.776345969306939,-0.8255352049041602
1.7727830055904803,5.874287912106048,-0.01883657964483057,0.7585385768897271,-0.8726145913441218
1.769401177346095,5.739346618064104,-0.01873928973723074,0.7408091346874213,-0.919688701136059
1.7660345551422294,5.607589737543801,-0.018667623639052965,0.7231562044270607,-0.9666589030436246
1.7626786637924228,5.479003619409049,-0.01862005802546451,0.7055784415146209,-1.0134251146269928
1.7593293021349832,5.353574845888993,-0.018595071501641854,0.6880745975971052,-1.0598855180168765
1.7559825427563869,5.231290214968752,-0.018591143816094474,0.670643523738896,-1.1059362608205818
1.7526347318816518,5.1121367221476675,-0.01860675479207301,0.6532841742731335,-1.1514711401381104
1.7492824894841896,4.996101541437191,-0.01864038295750601,0.6359956113988176,-1.1963812674768248
1.745922709671558,4.883172005456785,-0.01869050384951324,0.6187770106057076,-1.2405547121414295
1.7425525614082815,4.773335584470278,-0.018755587964668745,0.6016276670221599,-1.2838761204404938
1.7391694896425933,4.666579864186637,-0.0188340983207554,0.5845470027960699,-1.326226307790375
1.7357712169106545,4.562892522127719,-0.018924487589676155,0.5675345756363792,-1.36748182051159
1.732355745499691,4.462261302340817,-0.019025194754363515,0.5505900886625259,-1.4075144638017567
1.7289213602606623,4.364673988205297,-0.019134641234842358,0.533713401732141,-1.4461907920349872
1.725466632171734,4.270118373049474,-0.019251226419917646,0.5169045444436624,-1.4833715571839683
1.7219904227661404,4.178582228255873,-0.019373322531121742,0.5001637310408004,-1.5189111107952271
1.718491889552245,4.090053268488962,-0.01949926873438315,0.4834913774804206,-1.5526567545823495
1.714970492569957,4.004519113628888,-0.019627364402151053,0.46688812096485766,-1.58444803435553
1.7114260022464887,3.9219672469364646,-0.019755861414163883,0.4503548422843025,-1.6141159717085776
1.7078585087360616,3.842384968908032,-0.019882955368357994,0.4338926913649296,-1.6414822276814343
1.704268432953035,3.765759346202554,-0.02000677555415753,0.4175031164737212,-1.6663581925746096
1.700656539536539,3.6920771549367437,-0.020125373518023015,0.40118789759084467,-1.6885439963111069
1.6970239520176738,3.6213248175464656,-0.02023671002492318,0.38494918452335347,-1.7078274343676219
1.6933721704984843,3.5534883323036475,-0.02033864018829371,0.3687895403968296,-1.723982805544253
1.689703092196218,3.4885531944582304,-0.020428896503553694,0.3527119912189044,-1.7367696600240325
1.6860190352582274,3.4265043078459243,-0.020505069474120282,0.33672008225116545,-1.7459314597483433
1.6823227663140972,3.3673258856688335,-0.020564585460658095,0.3208179419387165,-1.751194158771511
1.6786175323048598,3.311001339024859,-0.02060468130864719,0.30501035410545335,-1.7522647199377592
1.6749070972183886,3.257513151646286,-0.020622375207697673,0.28930283898980375,-1.7488295973822052
1.6711957844711844,3.2068427392302503,-0.020614433094572848,0.27370174341060094,-1.7405532341002794
1.6674885258189471,3.158970291739184,-0.020577329708063172,0.2582143398234672,-1.7270766532456736
1.6637909178661732,3.1138745971749557,-0.020507203100535873,0.2428489331124069,-1.7080162654334674
1.6601092875019394,3.071532845675005,-0.020399800946506685,0.22761497244258344,-1.6829630787617336
1.6564507679533564,3.0319204134804956,-0.02025041625996784,0.21252316305198,-1.6514825931407238
1.6528233876829521,2.99501062759602,-0.020053808966747206,0.1975855689977417,-1.6131157996536436
1.6492361751662572,2.960774514115439,-0.019804107885418046,0.18281569189761077,-1.5673819085176268
1.6456992838460271,2.92918053669635,-0.019494684561582966,0.1682285016478265,-1.51378372213986
1.642224143562467,2.9001943371940513,-0.019117985255755268,0.1538403817110419,-1.451816986059564
1.6388236479940472,2.873778498915012,-0.018665298837797425,0.1396689325005073,-1.3809856260718836
1.6355123929260131,2.8498923654154176,-0.018126424140357884,0.12573255082830853,-1.3008255368545754
1.6323069888383896,2.828491965283657,-0.01748917683323682,0.11204967285791675,-1.2109404905263672
1.6292264855606176,2.809530116064252,-0.01673863736423113,0.09863754069102858,-1.1110545838537655
1.626292970080766,2.7929568056480107,-0.01585597907856367,0.08551035282276649,-1.0010858528293116
1.6235324366182866,2.7787199669248217,-0.014816614948985467,0.07267674410154001,-0.8812438666814385
1.6209760902127361,2.7667667452532214,-0.013587234001575816,0.06013683002734847,-0.7521475426546709
1.6186623507987368,2.757045253257928,-0.01212098170952994,0.04787974769814972,-0.6149439715359909
1.616640030030251,2.7495065135990373,-0.010349249051421294,0.035884026289533466,-0.47138162832700714
1.614973672605629,2.744105632097,-0.008165833444381262,0.024125768177546372,-0.32375782276378323
1.6137539125244875,2.740799706506884,-0.005387056346079715,0.012606738379288343,-0.17464493930995298
1.6131262453499962,2.739533569701752,-0.0015870233704906186,0.0014614483443888202,-0.02635828295750764
