x,y,v_x,v_y,omega
2.375,32.48,0.0,3.128205128205128,-4.571428571428571
2.373924659565612,31.861818540280197,-0.010753404343881626,3.0536094689928612,-4.274515465187529
2.370860130703625,31.25824611500173,-0.019891884275990375,2.982114783791836,-4.00647464969791
2.3661061560023864,30.668683250378912,-0.027647862736390676,2.913513862436335,-3.7636667743223438
2.3599196221493965,30.09256998902956,-0.034217475793508666,2.8476187510571833,-3.5429951435518814
2.3525211932731787,29.52938227821214,-0.0397668129686691,2.784258357117012,-3.341813540398418
2.3441008144156803,28.9786287986103,-0.04443697560631636,2.723276438901398,-3.157851549735738
2.334822296915909,28.43984816437739,-0.048348199391394106,2.664529903427674,-2.9891537098227907
2.3248271538896037,27.912606438599347,-0.051603230871662444,2.607887354352776,-2.8340296653317765
2.314237820234031,27.396494918714623,-0.05429010568406445,2.5532278444944523,-2.6910131281420004
2.3031603652399664,26.89112815453229,-0.05648444425657885,2.500439797328897,-2.5588279307350197
2.2916867851790244,26.3961421678795,-0.05825135635284354,2.449420069198976,-2.4363598220391434
2.2798969468420336,25.91119284799975,-0.05964702701706315,2.400073129598544,-2.3226329361934854
2.267860239953441,25.435954500915532,-0.0607200418688631,2.3523103412436233,-2.216790082030246
2.2556369859390726,24.97011853428854,-0.061512498274819756,2.306049325026283,-2.1180761705274875
2.2432796421181336,24.51339226202507,-0.062060939934572325,2.261213397608417,-2.0258242304419793
2.2308338335941795,24.065497815111893,-0.06239714530496921,2.2177310715233585,-1.9394435672652117
2.2183392396012245,23.626171147025424,-0.06254879462457746,2.175535609341356,-1.8584097039163219
2.205830356561388,23.195161123609708,-0.06254003577378585,2.1345646248157832,-1.7822558080056912
2.193337156427141,22.7722286886249,-0.06239196556868906,2.0947597250322922,-1.7105653637389429
2.1808856558550462,22.35714609727293,-0.062123040152259335,2.0560661884873688,-1.6429658893952486
2.168498409262953,21.949696210947447,-0.061749425768673975,2.0184326747674812,-1.5791235359765472
2.156194936758795,21.549671847258967,-0.061285299272903555,1.9818109621173194,-1.5187384307701846
2.143992096216589,21.1568751800772,-0.060743106149159766,1.946155709700344,-1.4615406525114125
2.1319044073497913,20.771117184928514,-0.060133782518812386,1.9114242417865035,-1.4072867436055871
2.119944334442334,20.39221712560328,-0.059466946555762235,1.8775763514658597,-1.3557566802858791
2.1081225334016382,20.02000207827718,-0.05875106385119655,1.8445741217951377,-1.3067512342847227
2.096448067961997,19.654306489843,-0.05799359054521403,1.8123817625466296,-1.2600896700982298
2.0849285991632747,19.294971767493017,-0.05720109744200771,1.780965460953214,-1.2156077306314128
2.07357055163651,18.941845896894115,-0.05637937782564263,1.7502932450358293,-1.1731558712562646
2.062379259726264,18.594783086563965,-0.055533541276816506,1.7203348582656968,-1.1325977083585401
2.0513590960543167,18.253643436291682,-0.05466809544265651,1.6910616444571156,-1.093808653505702
2.0405135847680853,17.91829262765485,-0.05378701741965574,1.6624464419112164,-1.0566747086108232
2.0298455014096626,17.588601634869775,-0.05289381616456968,1.634463485939501,-1.0210914010358527
2.019356961079052,17.264446454376756,-0.051991587141535164,1.6070883189907013,-0.9869628405872989
2.0090494963409653,16.945707851708946,-0.05108306023933441,1.5802977076874127,-0.9542008829019387
1.9989241261325064,16.632271124325023,-0.050170641845256346,1.5540695661517931,-0.9227243858767251
1.9889814167642808,16.32402587920347,-0.049256451836999955,1.5283828850637176,-0.8924585476290952
1.9792215359657925,16.020865824101964,-0.04834235614787994,1.5032176659513588,-0.8633343160337796
1.9696443008039828,15.722688571480408,-0.047429995470217354,1.4785548602642027,-0.8352878612133586
1.9602590773707287,15.429397184342196,-0.046422238862324744,1.4543590111179154,-0.8054314227648189
1.9510738306272866,15.140898165939841,-0.045430228572097386,1.430631172905624,-0.7769297634163465
1.9420853606593136,14.857099573804465,-0.044454471107631344,1.407354748448152,-0.7497054474452086
1.933290378043461,14.57791270962273,-0.04349535505089548,1.3845138933692012,-0.7236863034692269
1.9246855259400502,14.303251972971783,-0.04255316598321109,1.3620934731402847,-0.6988050097213124
1.916267399377295,14.03303472335342,-0.04162809964434145,1.340079023043342,-0.674998716350521
1.9080325620590455,13.767181149967033,-0.04072027353815227,1.318456710820527,-0.6522087010628668
1.8999775609881326,13.50561414870484,-0.039829737170977715,1.2972133018014091,-0.6303800548193925
1.892098939162479,13.24825920589305,-0.03895648108555931,1.2763361263164819,-0.6094613946649301
1.884393246570601,12.995044288339134,-0.03810044483321877,1.2558130492226627,-0.5894046010748376
1.8768570496863437,12.745899739278705,-0.03726152400935597,1.2356324413816042,-0.5701645774841565
1.8694869396392013,12.500758179846017,-0.03643957646206666,1.2157831529452887,-0.5516990299087269
1.8622795392159603,12.259554415719915,-0.03563442777034166,1.196254488315724,-0.5339682647848459
1.8552315088312588,12.02222534862267,-0.03484587607667465,1.1770361826567253,-0.5169350033465274
1.8483395515887173,11.78870989237241,-0.03407369634874099,1.1581183798458823,-0.5005642110303221
1.8416004175402512,11.558948893211422,-0.03331764413592078,1.1394916117639882,-0.4848229405496112
1.8350109072387935,11.332885054152271,-0.03257745887865646,1.1211467788275378,-0.46968018741555684
1.8285678746687464,11.11046286310177,-0.03185286682181425,1.103075131677475,-0.4551067568024675
1.8222682296288415,10.891628524539595,-0.031143583577235227,1.085268253944264,-0.4410751407629397
1.8161089396335772,10.676329894543606,-0.030449316375406793,1.0677180460156348,-0.42755940489427924
1.81008703139188,10.464516418968135,-0.02976976604156695,1.0504167097390822,-0.4145350836437079
1.804199591914974,10.256139074594586,-0.029104628727490294,1.033356733996421,-0.4019790835168818
1.7984437692995625,10.051150313085696,-0.028453597426626585,1.0165308810924791,-0.38986959352329986
1.792816773227189,9.84950400758601,-0.027816363297109452,0.9999321739043769,-0.37818600225415855
1.787315875216041,9.651155401821388,-0.027192616814371205,0.9835538837418394,-0.3669088210438954
1.7819436875297017,9.456242498017922,-0.026529260049019808,0.9655751542928271,-0.3922004557929408
1.7767001082470317,9.264914299827076,-0.02590653277768114,0.9477068276156205,-0.4191264506148018
1.771577102682428,9.07714902300803,-0.025323522868355066,0.9299459405748598,-0.447578116854458
1.7665668237334715,8.89292546436208,-0.024779266621210095,0.912289645884637,-0.4774491798736701
1.7616616216349588,8.712222978978904,-0.02427275436391825,0.8947352079471236,-0.5086355418840219
1.7568540526441012,8.535021458276002,-0.023802935544655405,0.8772799990819036,-0.5410350498628481
1.752136886753883,8.361301308754246,-0.023368723357527287,0.8599214961356723,-0.5745472675858946
1.7475031145249413,8.191043431394224,-0.022968998931889948,0.842657277464542,-0.6090732508165175
1.7429459531203615,8.024229201619388,-0.022602615113909336,0.8254850202838242,-0.6445153246900414
1.7384588516223982,7.860840449752722,-0.022268399865722033,0.8084024983828443,-0.6807768623233849
1.7340354957053568,7.700859441893922,-0.021965159304693088,0.7914075802051403,-0.7177620636639747
1.729669811734638,7.544268861143674,-0.021691680402492374,0.7744982272973258,-0.7553757335679473
1.7253559703582888,7.39105178910064,-0.021446733361002883,0.7576724931330104,-0.7935230580652729
1.7210883896542475,7.241191687555187,-0.02122907367940753,0.7409285223215125,-0.8321093777281932
1.716861737893892,7.094672380301564,-0.02103744392414931,0.7242645502147116,-0.8710399570086407
1.7126709359803973,6.951478034987158,-0.020870575210795588,0.707678902929348,-0.9102197483493804
1.7085111596189047,6.81159314491358,-0.020727188404132575,0.6911699978064336,-0.9495531498016768
1.7043778412744874,6.67500251069951,-0.020605995040039807,0.6747363443342772,-0.9889437547984227
1.700266671973502,6.541691221709378,-0.020505697969814246,0.6583765455670345,-1.0282940926348476
1.6961736030040613,6.411644637144999,-0.020424991724593663,0.6420893000767687,-1.067505358098057
1.6920948475721689,6.284848366688937,-0.020362562594330363,0.6258734044838642,-1.1064771285605304
1.688026882471501,6.1612882505787105,-0.02031708841234647,0.6097277566184108,-1.1451070667101138
1.6839664498269853,6.040950338979467,-0.02028723803281301,0.5936513593740201,-1.1832906069286988
1.6799105589752554,5.923820870509502,-0.020271670484484465,0.5776433253256245,-1.2209206231525298
1.675856488548844,5.809886249757504,-0.02026903377962864,0.5617028821943435,-1.2578870758478558
1.6718017888356562,5.699133023612497,-0.020277963352252026,0.545829379255717,-1.294076635515746
1.667744284490995,5.591547856206649,-0.020297080094357788,0.5300222948027473,-1.3293722798991143
1.6636820776862593,5.487117502247116,-0.020324987953001174,0.5142812447925742,-1.363652861804006
1.6596135517865362,5.385828778485305,-0.020360271044227052,0.49860599282552653,-1.3967926441679772
1.6555373756588663,5.287668533039938,-0.020401490232473406,0.48299646162812776,-1.42866079871491
1.651452508724062,5.192623612253353,-0.020447179115570882,0.4674527462377274,-1.4591208642347828
1.647358206877914,5.100680824717962,-0.020495839345906885,0.4519751291161712,-1.4880301602300143
1.6432540294225766,5.011826902060982,-0.020545935207467805,0.43656409745364744,-1.51523915139462
1.63913984716622,4.9260484560194335,-0.020595887356099254,0.4212203629618202,-1.540590758165287
1.635015851868995,4.843331931273482,-0.02064406561615035,0.40594488449768695,-1.5639196084446165
1.6308825672363465,4.763663553433105,-0.020688780710334777,0.3907388939060939,-1.585051225605307
1.6267408616872454,4.687029271490612,-0.02072827478067386,0.3756039255188316,-1.603801148126721
1.622591963155564,4.613414693958706,-0.020760710536139464,0.3605418498002302,-1.61997397681869
1.6184374762183324,4.542805017810643,-0.020784158836179043,0.34555491168040364,-1.633362346735858
1.614279401885978,4.4751849492263105,-0.020796584487365245,0.33064577416293883,-1.643745822847079
1.6101201604381405,4.410538615027427,-0.020795829991008798,0.31581756782589476,-1.650889721687345
1.605962617746068,4.348849463560782,-0.02077959692971819,0.3010739468405573,-1.6545438661495326
1.601810115591502,4.290100153667627,-0.020745424615938767,0.28641915209100877,-1.6544412880917696
1.5976665065760962,4.23427243027281,-0.0206906655381201,0.2718580818571673,-1.6502969047397618
1.5935361943204243,4.181346985059609,-0.020612457018599657,0.2573963702748632,-1.6418062116948946
1.589424179786309,4.131303300698885,-0.02050768832255415,0.24304047333238343,-1.6286440602582726
1.5853361147342082,4.084119477226917,-0.020372962198453394,0.22879776138729063,-1.6104636234461405
1.5812783635707224,4.039772039496775,-0.020204549436403624,0.21467661591411702,-1.586895708872378
1.5772580751853438,3.9982357252894154,-0.019998334417383717,0.20068652615949478,-1.5575486553565543
1.5732832668782126,3.959483254853563,-0.01974974865392679,0.18683817819902204,-1.522009164735068
1.5693629232369353,3.9234850846333025,-0.019453687758845473,0.17314352400357366,-1.4798445863618133
1.5655071139874104,3.890209151156398,-0.01910440473640544,0.1596158107654687,-1.4306074100167823
1.5617271366809526,3.8596206160872377,-0.01869536832817195,0.14626953992613032,-1.373843059611887
1.5580356930175596,3.831681631093076,-0.018219068305755693,0.1331203100154691,-1.309102543579282
1.5544471123507853,3.8063511524048614,-0.017666738361990463,0.12018447686667116,-1.2359621269685952
1.550977643628951,3.783584850719272,-0.017027948856350728,0.10747853998920501,-1.1540529223586824
1.5476458495610648,3.763335182658146,-0.016289991822512378,0.09501814062206146,-1.0631040116496568
1.5444731571011832,3.745551713351748,-0.015436932776302873,0.08281655244191592,-0.9630029902711933
1.5414846510570341,3.730181797970797,-0.014448127665187905,0.07088260136759025,-0.8538766762472798
1.538710250342128,3.7171717226728305,-0.013295879483874597,0.05921815161205768,-0.736190167253018
1.5361864938517082,3.706468328431466,-0.011941685420321136,0.047815790801593615,-0.6108513239031715
1.5339593244837424,3.6980209137196383,-0.010330008259338164,0.03665835631667301,-0.4792872056118693
1.5320886365171553,3.6917826968680387,-0.008376871406533494,0.025723812199326457,-0.3434315548956751
1.530656564993176,3.6877099893501004,-0.005943843833257757,0.015003262980051515,-0.20554418140272904
1.5297872672071018,3.685753552973434,-0.0027491340274844304,0.004561100786599773,-0.06780482174689167
