x,y,v_x,v_y,omega
2.375,32.48,0.0,3.0256410256410255,-4.448979591836735
2.373881880265885,31.85227136763329,-0.010648759372524567,2.952726901660948,-4.156052970555352
2.3706974760024364,31.23953141408976,-0.019678900279364142,2.882891703515528,-3.8920462850236586
2.365761912492131,30.641155475310427,-0.027326466485447926,2.815926761049546,-3.6532627023259923
2.359344666523845,30.05656064120042,-0.033790161783943465,2.7516430876171953,-3.4365640940328364
2.351676724705568,29.485201883140263,-0.039237855532984395,2.6898688939081152,-3.2392748740362642
2.3429565066763987,28.926568661035233,-0.0438118399829103,2.630447507092142,-3.05910433166178
2.3333547876991494,28.380181933329162,-0.0476331026575611,2.5732356139180603,-2.8940835292813136
2.3230188062285886,27.845591508488123,-0.05080481610968321,2.5181017655204,-2.742513749939736
2.312075704339104,27.322373688053204,-0.053415201885410664,2.4649250957645505,-2.6029241638557945
2.300635419562787,26.8101291603763,-0.05553989122236741,2.4135942154440717,-2.4740368973102855
2.288793123702372,26.308481111238105,-0.05724387887682392,2.3640062525387187,-2.354738078517775
2.276631286047777,25.817073523172756,-0.05858314640503168,2.3160660147503385,-2.24405373470541
2.2642214240280962,25.33556963983281,-0.059606015687169195,2.269685255153913,-2.1411296459148583
2.2516255928371023,24.863650575375853,-0.06035428136991539,2.2247820253885062,-2.0452144408306143
2.2388976563462952,24.401014051829456,-0.06086416139967604,2.181280103624814,-1.955645360591983
2.226084374181058,23.94737324983801,-0.06116709731686963,2.1391084867699206,-1.871836227246219
2.2132263338098386,23.502455760222063,-0.061290430028077846,2.098200938143836,-1.7932672411147033
2.200358751594391,23.066002625471615,-0.06125797202379974,2.058495583289016,-1.7194763010520242
2.1875121627455396,22.637767461714596,-0.06109049320335745,2.01993454773023,-1.6500515973137313
2.1747130168467197,22.21751565290109,-0.06080613440445185,1.9824636314460051,-1.5846252715211673
2.1619841929071657,21.80502360996244,-0.060420760257966444,1.9460320155887425,-1.5228679743368143
2.1493454456773393,21.400078088574205,-0.059948260978475075,1.9105919976325492,-1.4644841807337294
2.136813793112933,21.002475559898258,-0.05940081106348818,1.8760987516621916,-1.409208146553501
2.1244038533399934,20.612021629322506,-0.05878909153594235,1.8425101109640032,-1.3568004094908863
2.112128138195731,20.228530498773388,-0.05812248126655212,1.8097863704561872,-1.3070447535788157
2.099997309351773,19.851824468659956,-0.05740922200923856,1.7778901068145985,-1.2597455693534054
2.0880204021318987,19.48173347593022,-0.05665656103718511,1.746786014420946,-1.2147255526936307
2.0762050213847667,19.1180946650894,-0.05587087464978618,1.7164407554916397,-1.1718236942836204
2.0645575131391682,18.76075198935368,-0.055057775308294116,1.6868228229438054,-1.1308935190806642
2.0530831152350033,18.40955583939838,-0.05422220473137209,1.6579024147256902,-1.091801541364886
2.0417860896710107,18.064362697411134,-0.05336851492570201,1.6296513184861534,-1.0544259061196404
2.030669839026782,17.725034814383584,-0.052500538828859085,1.6020428055857898,-1.0186551918250029
2.019737008990618,17.391439908772913,-0.051621651991747834,1.5750515335634296,-0.9843873533864284
2.0089895787471197,17.06345088484053,-0.05073482651776012,1.548653456268774,-0.9515287869857616
1.9984289407413887,16.740945569131846,-0.0498426782987258,1.5228257409568011,-0.9199935012295712
1.9880559711340167,16.423806463701407,-0.04894750843815079,1.4975466917140496,-0.8897023811599668
1.9778855871775871,16.111922507613748,-0.04791329114689273,1.472776699596993,-0.8566854118042229
1.967930892414308,15.805186736589487,-0.04689332564624149,1.4485163577769347,-0.8252367733321974
1.9581888032432748,15.503494096279848,-0.04588847598264671,1.4247468832672332,-0.7952629093325276
1.9486560721137836,15.20674338314528,-0.04489943953631724,1.4014503846810398,-0.7666769034022493
1.9393293203106743,14.914837062795147,-0.04392676811234181,1.3786098091297496,-0.7393979334036967
1.930205066578694,14.627681099083045,-0.042970886477947084,1.3562088928902847,-0.7133507765350556
1.9212797520888687,14.34518479319891,-0.042032108663245527,1.3342321155300394,-0.6884653599401106
1.9125497621875711,14.067260632061455,-0.041110652301494334,1.3126646572076208,-0.6646763521854452
1.9040114453147445,13.793824145370817,-0.040206651249234254,1.2914923588937115,-0.6419227914609897
1.8956611294305077,13.524793770732593,-0.039320166695878456,1.2707016852798418,-0.6201477468225097
1.887495136248144,13.260090726311002,-0.03845119694567989,1.2502796901638957,-0.5992980092010043
1.8795097935354952,12.999638890511186,-0.037599686031928196,1.2302139841200732,-0.5793238092614668
1.8717014457153056,12.743364688229384,-0.03676553130321155,1.2104927042780294,-0.5601785595083991
1.8640664629675276,12.491196983244812,-0.035948590104196314,1.1911044860512192,-0.5418186183133478
1.8566012490124695,12.243066976359263,-0.03514868565826339,1.1720384366682872,-0.5242030737852568
1.8493022477325027,11.998908108919842,-0.034365612246182405,1.1532841103738118,-0.5072935456216847
1.842165948771482,11.758655971387114,-0.03359913976353731,1.1348314851759917,-0.4910540032714293
1.8351888922347015,11.522248216635582,-0.03284901772961076,1.11667094102907,-0.4754505989098954
1.8283676725978646,11.289624477696037,-0.03211497881169433,1.098793239347548,-0.4604515138802802
1.821698941920916,11.060726289669994,-0.03139674192114851,1.081189503757639,-0.44602681738862654
1.8151794124514566,10.835497015565544,-0.030694014930846194,1.0638512019990436,-0.43214833636101935
1.8088058586926516,10.61388177582145,-0.0300064970577712,1.0467701288970654,-0.4187895354784152
1.8025751190018986,10.39582738130246,-0.029333880949401616,1.0299383903314074,-0.40592540650031916
1.796484096778872,10.181282269563617,-0.028675854507993804,1.01334838813375,-0.3935323660740971
1.7905297612948265,9.970196444195171,-0.028032102482916443,0.9969928058514615,-0.3815881613032908
1.784714411511137,9.76265835662582,-0.02735218117126892,0.9795604090947335,-0.3961858676745862
1.7790382004812497,9.558768804825046,-0.026706971494323602,0.9622448461507261,-0.41278545811859096
1.773493869762516,9.3585035983794,-0.02609617820790448,0.9450428342840047,-0.4312723355414597
1.768074232405958,9.16183922266017,-0.02551941566407422,0.9279512201848672,-0.451535106479437
1.7627721910701057,8.968752812220906,-0.024976216105948336,0.9109669744747959,-0.4734653316947387
1.757580754463817,8.779222125303807,-0.02446603728727916,0.894087186640447,-0.4969572850627284
1.7524930522547568,8.593225519366957,-0.0239882694656725,0.877309060377179,-0.5219077197790182
1.7475023485703671,8.410741927548159,-0.02354224181422964,0.8606299093256482,-0.5482156409447456
1.7426020542091494,8.231750835984283,-0.023127228292606293,0.8440471531874563,-0.5757820836114271
1.7377857376718593,8.056232261907734,-0.022742453014919457,0.8275583142082593,-0.6045098953835465
1.7330471351146914,7.884166732443855,-0.022387095148584453,0.8111610140191442,-0.6343035226874394
1.7283801593197148,7.715535264034749,-0.02206029337500204,0.7948529708294975,-0.6650687998190433
1.7237789077716381,7.550319342416113,-0.02176114994001403,0.7786319969670432,-0.6967127398805901
1.7192376699244227,7.3885009030744335,-0.021488734319181024,0.7624959967632481,-0.7291433267071545
1.7147509337362892,7.230062312111876,-0.02124208652018427,0.746442964784915,-0.7622693068678952
1.7103133915472608,7.074986347445829,-0.02102022004199132,0.7304709844155445,-0.7959999808035116
1.7059199453695295,6.923256180268936,-0.02082212450782924,0.714578226792973,-0.8302449921305101
1.7015657116576297,6.774855356693813,-0.02064676798645538,0.6987629501129502,-0.8649141141038438
1.6972460256226154,6.6297677795042205,-0.020493099013679947,0.683023499311727,-0.8999170321818215
1.6929564451522063,6.48797768993132,-0.020360048323551806,0.6673583061444633,-0.9351631215802244
1.6886927543971488,6.349469649369713,-0.020246530296041867,0.6517658896803802,-0.9705612186356231
1.6844509670828955,6.214228520943056,-0.020151444125419752,0.6362448572401468,-1.006019384720128
1.6802273296050936,6.082239450823199,-0.02007367471078831,0.6207939058060981,-1.0414446613603776
1.6760183239673854,5.953487849199689,-0.020012093267384585,0.6054118239416034,-1.0767428151115117
1.671820670620615,5.827959370788271,-0.019965557654239446,0.5900974942623674,-1.1118180706211986
1.6676313312638098,5.705639894757198,-0.019932912410571945,0.5748498965097567,-1.1465728301884974
1.663447511669267,5.586515503938795,-0.019912988489835425,0.5596681112845556,-1.1809073779764343
1.659266664596793,5.470572463180471,-0.01990460267658223,0.5445513245090091,-1.2147195668748192
1.6550864928656939,5.357797196673964,-0.01990655666721872,0.5294988326958109,-1.2479044858303507
1.6509049526575579,5.248176264083828,-0.019917635791221452,0.5145100491150254,-1.2803541052641882
1.6467202571283164,5.141696335275526,-0.019936607344410592,0.49958451096404016,-1.3119568979832419
1.6425308804146166,5.038344163419815,-0.019962218500349328,0.48472188766177526,-1.3425974327617094
1.6383355621273041,4.938106556222614,-0.019993193759769542,0.46992199040681654,-1.3721559375265744
1.6341333124339723,4.84097034499808,-0.020028231891010224,0.4551847831601791,-1.4005078288296526
1.6299234178432154,4.746922351266338,-0.020066002306675837,0.4405103952373538,-1.4275232040372121
1.6257054478156563,4.655949350515666,-0.02010514081293359,0.425899135721433,-1.4530662924285052
1.6214792623412189,4.5680380327212475,-0.02014424465789931,0.4113515099396937,-1.476994861185522
1.6172450206387485,4.483174959158159,-0.020181866794199,0.39686823828018375,-1.4991595721058986
1.6130031911532918,4.401346514984169,-0.020216509257769983,0.3824502776625637,-1.5194032848205228
1.6087545630484827,4.322538856997674,-0.020246615549935152,0.3680988460183458,-1.537560302407328
1.6045002594170499,4.246737855896967,-0.020270561892282758,0.35381545017884986,-1.5534555556507945
1.6002417524620165,4.173929032278831,-0.020286647203273618,0.33960191761293235,-1.5669037229297738
1.5959808809354814,4.104097485517208,-0.02029308162087043,0.32546043249777934,-1.5777082840079402
1.591719870161911,4.037227814557777,-0.020287973365514182,0.3113935766396521,-1.5856605081163284
1.5874613550199819,3.9733040295538053,-0.020269313700477833,0.29740437577912604,-1.5905383800384572
1.5832084063130392,3.91230945315759,-0.020234959698976523,0.2834963518038757,-1.5921054729877964
1.5789645610258534,3.854226610178447,-0.02018261446469651,0.2696735813308147,-1.5901097847033538
1.5747338570485048,3.7990371042361772,-0.020109804367195106,0.25594076097652224,-1.5842825645374172
1.5705208730528715,3.74672148000068,-0.020013852734076576,0.24230327936153603,-1.5743371760430072
1.5663307743425594,3.697259069649043,-0.019891849268894268,0.22876729541595928,-1.5599680641091827
1.5621693656776507,3.650627822345694,-0.019740614206426005,0.2153398217588012,-1.5408499315401762
1.5580431523243718,3.6068041159434117,-0.0195566558248,0.20202881064388803,-1.516637282168393
1.553959410933745,3.5657625508406916,-0.019336119324029212,0.1888432379534308,-1.4869645633304533
1.5499262723725002,3.527475727205765,-0.019074724116395825,0.1757931776172842,-1.451447249963489
1.5459528194120429,3.4919140088717455,-0.01876768503081879,0.16288985413529544,-1.4096843696464798
1.5420492033875988,3.4590452805278673,-0.018409610440075216,0.1501456539016248,-1.3612631909867396
1.5382267858332668,3.4288347099447236,-0.017994366267850132,0.13757406593783836,-1.3057671090620815
1.5344983141109203,3.4012445346181472,-0.017514888230686834,0.125189508600983,-1.2427881832707812
1.5308781448845874,3.3762339032610313,-0.01696291392486343,0.11300698051440998,-1.1719463242935064
1.5273825370806149,3.3537588177573134,-0.016328588970114414,0.10104145285434385,-1.0929177524485794
1.5240300485200677,3.3337722404455334,-0.015599873511287077,0.08930690249595495,-1.0054759062544176
1.5208420905352327,3.31622445237689,-0.014761631106190613,0.07781488863397674,-0.9095480481755469
1.5178437269982248,3.3010637619989396,-0.013794212103405673,0.06657263877506726,-0.8052894506141326
1.5150648556038655,3.2882376497255166,-0.012671229747635827,0.05558081144802334,-0.6931724577904567
1.512541994668723,3.2776943492660386,-0.011356017253720032,0.04483157388034766,-0.5740772604222729
1.5103210588184064,3.269384635335598,-0.009795752749296201,0.03430855879050046,-0.44935286488709136
1.5084618889850265,3.2632630809476098,-0.007910626616227647,0.023991959190324576,-0.32079378348864807
1.507046552805269,3.2592869377376132,-0.005568765571940426,0.013876071381066502,-0.19046514219888053
1.5061994529670257,3.2574070299987135,-0.0024988519351384,0.004027811846544297,-0.06033301375187114
