x,y,v_x,v_y,omega
2.375,32.48,0.0,3.435897435897436,-6.530612244897959
2.3733102653776057,31.801652655920257,-0.0168973462239444,3.3475760048999725,-6.068218210907881
2.368514553649606,31.14056056187322,-0.031059771056050987,3.2633449355703883,-5.655194501597043
2.3611171520278935,30.495936441755106,-0.04291424516107466,3.182896265610758,-5.28473562701695
2.3515442084662816,29.867051293419074,-0.05281519045504211,3.1059552177495373,-4.951146026895498
2.3401568765693046,29.253228240799807,-0.0610581285147307,3.032275308443162,-4.649633258243794
2.327262015826969,28.653837271115066,-0.06789047890862478,2.9616343884042204,-4.37614445482891
2.3131209511171074,28.068290692280023,-0.07352016818999035,2.8938313999462424,-4.127235994776587
2.297956680254606,27.49603918298759,-0.07812254043502496,2.8286836929780557,-3.899968895081539
2.2819598323520487,26.93656833551508,-0.08184593859054694,2.7660247817470607,-3.691824308014684
2.265293614744166,26.389395612007306,-0.08481623748828102,2.705702453330674,-3.5006348465671406
2.2480979365710025,25.85406765068646,-0.08714054424335443,2.6475771598777924,-3.3245284630029555
2.2304928588289554,25.330157870493785,-0.08891023317711372,2.591520642048955,-3.161882347696517
2.2125814909327057,24.817264332029318,-0.09020344578538515,2.5374147425957063,-3.0112848748526932
2.1944524305140587,24.315007820003355,-0.09108715840108629,2.4851503776639303,-2.87150404667279
2.176181824793914,23.823030118239203,-0.09161889880035556,2.4346266399775853,-2.7414612130334945
2.1578351172697103,23.3409924529308,-0.09184817644168304,2.3857500131064717,-2.6202090949675685
2.1394685318133755,22.868574083626534,-0.09181767812166744,2.3384336799361924,-2.5069133354888975
2.121130336930481,22.4054710244806,-0.09156427070727992,2.29259691152312,-2.400836954047056
2.1028619253981793,21.951394880834474,-0.09111984461573533,2.2481645249381392,-2.3013272011068073
2.084698738399171,21.50607178827748,-0.09051202537434472,2.205066400631809,-2.207804404489648
2.0666710583079753,21.069241443074,-0.08976477553761542,2.163237051403006,-2.119752474814177
2.048804690235381,20.640656214302957,-0.08889890518832683,2.122615236307373,-2.036710797902752
2.031121549117616,20.22008032928575,-0.08793250598932384,2.0831436138647064,-1.9582672906506662
2.013640166406871,19.807289124922853,-0.08688132111812354,2.0447684297642743,-1.8840524360950164
1.996376128167177,19.402068358450304,-0.0857590612788168,2.007439234961222,-1.8137341452195896
1.979342454514799,19.004213571890734,-0.0845776752449631,1.9711086306344847,-1.7470133189043215
1.9625499287938466,18.613529505131336,-0.08334758196456157,1.9357320369595012,-1.6836200045586234
1.946007383588222,18.22982955312988,-0.08207787009168557,1.9012674830550793,-1.6233100592993395
1.9297219495940714,17.852935263243666,-0.08077646984981948,1.8676754158070463,-1.5658622457828806
1.9136992724750688,17.482675869106675,-0.07945030134020607,1.8349185255628544,-1.5110756985617693
1.897943702065715,17.118887857856386,-0.07810540275333279,1.802961586940056,-1.4587677085743562
1.8824584576505838,16.76141456784191,-0.07674704139797721,1.771771313204681,-1.408771781465706
1.8672457725098055,16.410105814235557,-0.07537981000980672,1.7413162228588654,-1.3609359321771344
1.8523070204664172,16.064817540226137,-0.0740077104240763,1.7115665172353387,-1.315121183873157
1.8376428267858822,15.725411491699251,-0.07263422638127354,1.6824939680335098,-1.2712002439931136
1.8232531654507675,15.391754913510795,-0.07126238696987408,1.6540718138510693,-1.2290563341791816
1.8091374445549868,15.063720265638793,-0.06989482198793134,1.6262746648689497,-1.1885821541721373
1.795294581324408,14.74118495765806,-0.06853381031786032,1.599078414938362,-1.1496789625867474
1.7817230680675609,14.424031100124392,-0.06718132225061034,1.572460160398309,-1.1122557598666385
1.768421030186338,14.112145271582357,-0.06583905656161777,1.5463981250220322,-1.076228560745132
1.755386277227426,13.805418300024893,-0.06450847302750154,1.5208715905525876,-1.0415197452625127
1.7426163478270644,13.503745057735404,-0.06319082097611436,1.4958608323422875,-1.0080574788600762
1.7301226623238046,13.20702702203782,-0.061746034056484114,1.4713195246335362,-0.9717754937995358
1.7179149526892934,12.915169165490422,-0.060331062288628716,1.4472590408404515,-0.9371530825912912
1.7059872555963203,12.628077044547513,-0.058945908641102614,1.423662168588642,-0.9040946532117738
1.694333617428596,12.34565957912232,-0.057590473036141,1.400512485663289,-0.8725111650603641
1.6829481133729383,12.067828899121725,-0.05626456752043457,1.3777943143426414,-0.8423196085819086
1.6718248636679005,11.79450019979961,-0.05496792952994454,1.3554926788784862,-0.8134425317388493
1.6609580473662637,11.525591605324667,-0.053700233486424796,1.3335932658709662,-0.7858076086283776
1.6503419139243514,11.261024040006742,-0.0524611009326963,1.3120823873082716,-0.7593472460603425
1.639970792892359,11.000721106669666,-0.0512501093872283,1.2909469460624898,-0.7339982243692096
1.6298391019460725,10.744608971698263,-0.05006680007563542,1.270174403651546,-0.7097013691363775
1.619941353470829,10.492616256323714,-0.04891068467680049,1.2497527500939447,-0.6864012508546476
1.6102721598827434,10.244673933744508,-0.04778125120405553,1.2296704756981232,-0.6640459098806638
1.6008262378496543,10.000715231710508,-0.04667796912683536,1.2099165446418634,-0.6425866042989336
1.591598411554456,9.760675540225371,-0.04560029382514875,1.1904803702095095,-0.6219775785671222
1.582583615126158,9.524492324047834,-0.044547670457827954,1.1713517915658702,-0.6021758510306
1.5737768943488164,9.29210503969567,-0.04351953731558896,1.1525210519557665,-0.5831410185881089
1.5651734077451307,9.063455056677363,-0.04251532872126879,1.133978778227315,-0.5648350769628564
1.5567684271198003,8.838485582696098,-0.041534477532034014,1.1157159615853351,-0.5472222551869046
1.548557337637424,8.617141592588684,-0.04057641729173211,1.097723939488797,-0.530268863043632
1.5405356375006747,8.399369760778495,-0.039640584075760314,1.0799943786130846,-0.5139431503352728
1.5326989372865238,8.185118397036778,-0.0387264180657475,1.0625192588040886,-0.49821517695177225
1.52504295899126,7.974337385360684,-0.03783336488689109,1.0452908579568323,-0.48305669281493674
1.5175635348288825,7.766978125789347,-0.03696087673688251,1.0283017377565256,-0.468441026859422
1.5102566058220022,7.562993478991224,-0.036108413331922204,1.0115447302246854,-0.45434298429062064
1.5031182202195792,7.362337713467024,-0.035275442692308014,0.9950129250172967,-0.4407387514300095
1.4961517884397384,7.165142443758604,-0.03438887510610021,0.976939772066898,-0.4628565484761849
1.4893580352714357,6.971550454235306,-0.03354865657692549,0.9589801231661019,-0.4867388009282903
1.48272779945099,6.781539352797118,-0.032753701627534645,0.9411308912157856,-0.5122719193744891
1.4762521415901313,6.595087352522299,-0.03200287698105255,0.923389111532412,-0.5393450350943771
1.4699223531753096,6.412173247646365,-0.03129500716716309,0.9057519372269117,-0.5678497486124575
1.4637299644969413,6.232776390423542,-0.03062887961652047,0.888216635001334,-0.5976798846602185
1.457666751607305,6.056876668788405,-0.030003249279842843,0.8707805813500176,-0.6287312525187209
1.4517247423988433,5.88445448473793,-0.029416842804773132,0.8534412591547494,-0.6609014107291626
1.4458962218883256,5.715490733355846,-0.028868362300405643,0.8361962546660989,-0.6940894351670124
1.44017373678665,5.549966782402649,-0.028356488716349406,0.8190432548658746,-0.7281956894759254
1.4345500994289844,5.387864452395213,-0.02787988486030584,0.8019800452084778,-0.7631215968506178
1.4290183911354184,5.2291659971001785,-0.027437198075354396,0.7850045077418629,-0.7987694121429547
1.423571965068339,5.073854084364804,-0.027027062595441423,0.768114619611894,-0.8350419932423802
1.418204448649302,4.9219117772078995,-0.026648101594930078,0.7513084519571579,-0.8718425706500895
1.412909745595262,4.773322515091703,-0.026298928945467787,0.7345841692048029,-0.9090745141255241
1.4076820376316315,4.628070095293047,-0.02597815069083725,0.7179400287817673,-0.9466410952332667
1.4025157859377628,4.4861386542888795,-0.025684366247850355,0.7013743812599201,-0.9844452445575756
1.3974057323791085,4.347512649067067,-0.025416169338693895,0.6848856709582019,-1.0223893022798352
1.392346900579498,4.2121768382682525,-0.025172148657411693,0.6684724370299352,-1.0603747607302716
1.3873345968867188,4.080116263058347,-0.02495088827037748,0.6521333150691349,-1.0983019974284571
1.382364411284917,3.951316227623831,-0.024750967747642176,0.6358670392760064,-1.1360699970163817
1.3774322183082637,3.8257622791733326,-0.024570962018889836,0.6196724452289941,-1.1735760603621777
1.3725341780119382,3.7034401873185487,-0.024409440944366725,0.6035484733188564,-1.2107154989708786
1.3676667370587503,3.5843359226957148,-0.024264968587511627,0.5874941729094669,-1.2473813126798756
1.3628266299827931,3.468435634674716,-0.024136102172060813,0.57150870730054,-1.2834638484401493
1.3580108806953801,3.3557256279867147,-0.02402139070207029,0.5555913595794588,-1.31885043778931
1.3532168043033204,3.246192338082462,-0.02391937321852623,0.539741539463072,-1.353425010408845
1.348442009315375,3.139822305011556,-0.023828576660927567,0.5239587912459748,-1.3870676809263618
1.3436844003196484,3.0366021455879917,-0.023747513296338965,0.5082428029896775,-1.419654305875765
1.3389421812228315,2.936518523578272,-0.023674677671830586,0.4925934171075065,-1.4510560074676395
1.3342138591517654,2.8395581176151836,-0.023608543038831312,0.4770106425233774,-1.48113866055458
1.3294982491289231,2.74570758650194,-0.023547557189592082,0.4614946686090755,-1.509762338911368
1.3247944796463111,2.6549535315275676,-0.02349013763652871,0.4460458811346511,-1.5367807167026477
1.3201019992772085,2.5672824553640794,-0.023434666054497608,0.43066488050023605,-1.5620404208035652
1.3154205844823772,2.4826807170585425,-0.0233794818938157,0.4153525025551166,-1.5853803295051825
1.3107503487872192,2.401134482567919,-0.02332287505776439,0.40010984235112457,-1.6066308131255582
1.306091753529241,2.322629670210624,-0.0232630775220186,0.3849382812218148,-1.625612912230965
1.3014456204016014,2.247151890325913,-0.023198253754376525,0.369839517625307,-1.642137449653992
1.2968131460491057,2.174686378339892,-0.02312648977058128,0.35481560223488573,-1.6560040734270347
1.2921959190085637,2.105217920336038,-0.02304578063483976,0.3398689778036478,-1.6670002293487256
1.2875959393270535,2.038730770119539,-0.02295401618026149,0.32500252436133914,-1.6749000644817178
1.2830156412407823,1.9752085566521203,-0.02284896468245154,0.3102196103128454,-1.6794632668971015
1.2784579193560177,1.9146341806225848,-0.022728254165192988,0.2955241499825063,-1.6804338530900145
1.2739261588450226,1.856989698818186,-0.02258935094475731,0.28092066806146493,-1.6775389236421927
1.2694242702585743,1.8022561948892388,-0.02242953491972467,0.26641437122799905,-1.6704874212749325
1.264956729669439,1.750413635080026,-0.02224587097162846,0.25201122686413063,-1.6589689454111347
1.2605286250088141,1.7014407075740046,-0.022035175634621793,0.23771804819608242,-1.6426527066297054
1.2561457096572226,1.6553146443337639,-0.021793977881293867,0.22354258420630826,-1.6211867471122272
1.2518144646296938,1.6120110248031772,-0.021518472393993387,0.2094936110995627,-1.5941976153336426
1.2475421710959365,1.57150356172734,-0.021204462943580485,0.1955810196587933,-1.5612907733568513
1.243336995570477,1.5337638708542407,-0.02084729231101427,0.18181588907220894,-1.5220521450937656
1.2392080910111132,1.498761228731361,-0.020441753282623695,0.16821053215658302,-1.476051400041707
1.2351657184659741,1.4664623266595207,-0.019981972168765978,0.15477848856180448,-1.4228478302745267
1.2312213961202834,1.4368310347435411,-0.019461251288141742,0.14153443059799672,-1.3620000432191375
1.2273880861201827,1.4098281986869203,-0.01887184871286397,0.12849392996820103,-1.2930811804521836
1.2236804352138717,1.3854115043956128,-0.01820466035024657,0.11567301294487767,-1.2157019838346508
1.220115094364834,1.3635354621935463,-0.017448748140131518,0.1030874090757989,-1.1295446995829566
1.2167111571292009,1.3441515829166484,-0.016590624216200237,0.0907513836931927,-1.0344113096418388
1.213490779961174,1.3272088384110745,-0.015613147464067226,0.07867606136253272,-0.9302893242612146
1.2104800847370738,1.3126545074309206,-0.014493804776935322,0.06686724843902345,-0.8174361104581049
1.2077105032736284,1.3004354778746325,-0.013202009857518878,0.05532304712386774,-0.6964762395452575
1.2052208244113174,1.290499955385524,-0.011694778765589992,0.04403217776721376,-0.5684927035330731
1.2030604043608837,1.282799227160357,-0.009909421738748031,0.03297510448443959,-0.4350709613455365
1.201294524931067,1.2772884906864803,-0.007749372559420634,0.02213226025434472,-0.29823142346986053
1.200014790445922,1.2739242613346882,-0.005047972292029971,0.011510033263565703,-0.1601807173161637
1.1993683248822142,1.272649323666375,-0.0014166833450479713,0.0012393434195659934,-0.022869667734977533
