x,y,v_x,v_y,omega
2.375,32.48,0.0,2.8205128205128203,-4.448979591836735
2.374070414496567,31.922150080677092,-0.0092958550343305,2.7579863727162146,-4.185498099839461
2.3714099718683546,31.376570177755056,-0.017308571247792108,2.6978126565041465,-3.9451746571206106
2.3672584291258927,30.84280420977826,-0.024206856176826483,2.6398470232638225,-3.72535106732227
2.3618242118412174,30.32042378013235,-0.030135316669926773,2.5839572731952605,-3.523731736993839
2.3552888537969006,29.80902583180503,-0.035218263773243004,2.530022210077942,-3.3383271182772405
2.347810742093001,29.308230569445936,-0.039562853265754275,2.477930413513009,-3.1674070489603823
2.3395282877666896,28.817679609262385,-0.04326168999735561,2.427579188322506,-3.0094620680308397
2.330562619076926,28.3370343244776,-0.04639499690028266,2.378873659525334,-2.863171195947445
2.3210198765208325,27.86597435973261,-0.04903242866065095,2.3317259879245684,-2.7273749836311425
2.3109931742642766,27.40419629230067,-0.05123459390490849,2.286054686394826,-2.601052877227431
2.3005642811547053,26.95141242157576,-0.05305433719080423,2.241784020854283,-2.4833041347955125
2.28980506521249,26.507349671196828,-0.05453782223135226,2.198843482935045,-2.3733316792479715
2.2787787379905664,26.071748590529296,-0.055725449987879594,2.157167323740266,-2.270428388718737
2.2675409290846074,25.644362444159956,-0.05665263907171165,2.116694139953136,-2.173965418253216
2.256140616083637,25.2249563796589,-0.05735049093799289,2.0773665050574195,-2.083382220693778
2.2446209311528316,24.813306665190314,-0.05784635837006323,2.0391306396284437,-1.9981779939737385
2.233019862062559,24.40919998966522,-0.05816433253265861,2.0019361156225117,-1.917904329865276
2.2213708626834716,24.01243281906484,-0.05832566125821792,1.9657355903812475,-1.8421588779617684
2.2097033856476913,23.622810803355392,-0.05834910909958342,1.9304845667132413,-1.7705798701799906
2.1980433479439148,23.2401482290893,-0.05825126793818547,1.896141175947716,-1.702841376797805
2.1864135385997123,22.86426751336489,-0.05804682550383499,1.8626659812963664,-1.6386491861390349
2.1748339762512483,22.494998735312485,-0.05774879798080652,1.8300217992276813,-1.5777372173780229
2.1633222232634104,22.13217920170304,-0.05736873189757096,1.798173536866777,-1.5198643902738165
2.1518936621050035,21.77565304364696,-0.056916879686499666,1.7670880436940029,-1.4648118875244684
2.140561738873875,21.42527084167396,-0.05640235262478571,1.7367339760360063,-1.4123807553083698
2.1293381781809657,21.0808892767673,-0.05583325430430516,1.7070816730305547,-1.3623897958153175
2.118233173019891,20.74237080517357,-0.05521679730644292,1.678103042906767,-1.3146737124580548
2.1072555527530437,20.40958335502689,-0.054559405362031896,1.6497714585600656,-1.2690814742323169
2.0964129319224933,20.0824000430189,-0.053866802943472555,1.6220616615197903,-1.2254748705523797
2.085711842232629,19.76069890951592,-0.05314409395517027,1.5949496735100324,-1.1837272319865442
2.075157849742019,19.444362670675584,-0.05239583095093062,1.5684127148933305,-1.143722295781087
2.064755659036354,19.133278486249807,-0.0516260761057185,1.542429129364455,-1.105353197997098
2.0545092059259513,18.827337741880427,-0.05083845499830799,1.5169783143293065,-1.0685215765787965
2.0444217400145264,18.526435844801163,-0.05003620411594029,1.4920406564633582,-1.0331367717957582
2.0345066501070033,18.230474273182878,-0.04911469495929114,1.4675750597194712,-0.9959734788070509
2.024775483286319,17.939358020154593,-0.04819697324755104,1.443587470563415,-0.9605109997401681
2.0152273241827596,17.65299319198978,-0.04728461778804571,1.4200608110847173,-0.9266513373471454
2.0058609630941615,17.371289232321164,-0.04637899309793496,1.396978785601422,-0.8943032102214301
1.996674936431556,17.094158770208203,-0.045481273528120175,1.374325835528167,-0.8633815195112865
1.987667562611273,16.821517476920164,-0.0445924646747082,1.352087097352249,-0.8338068636254602
1.9788369739042067,16.55328393083815,-0.0437134223959562,1.3302483634679019,-0.8055050961134365
1.9701811446932846,16.28937948992716,-0.04284486971326308,1.308796045641985,-0.7784069224353962
1.9616979165379005,16.029728171272474,-0.0419874118405781,1.2877171409048696,-0.7524475318054737
1.9533850203981578,15.774256537214107,-0.04114154955684907,1.2669991996787862,-0.7275662607045402
1.9452400963314511,15.52289358764898,-0.040307691110217744,1.2466302959725046,-0.7037062850226954
1.9372607109384228,15.275570658103113,-0.03948616282006612,1.2265989994861723,-0.6808143381131503
1.9294443728040884,15.032221323206134,-0.038677218523276116,1.206894349483613,-0.6588404523235928
1.9217885461523805,14.792781305227617,-0.03788104799380313,1.1875058303015567,-0.6377377218230715
1.9142906629080452,14.557188387359833,-0.03709778444955189,1.1684233483762696,-0.6174620847659233
1.9069481333383602,14.325382331454406,-0.03632751124729781,1.1496372106780108,-0.5979721230327886
1.899758355428153,14.09730479994133,-0.03557026785477466,1.1311381044527609,-0.5792288779653141
1.8927187231247913,13.872899281678169,-0.03482605517884041,1.112917078178856,-0.5611956806683823
1.8858266335749418,13.652111021494925,-0.03409484031965493,1.0949655236535982,-0.5438379955938974
1.8790794934616861,13.434886953216399,-0.03337656081290097,1.077275159131672,-0.527123276245317
1.8724747245388844,13.221175635958897,-0.032671128415115276,1.0598380134433605,-0.5110208319539836
1.8660097684492676,13.010927193511943,-0.0319784324810546,1.04264641102616,-0.49550170477840816
1.8596820909035023,12.804093256628477,-0.03129834297659784,1.0256929578085197,-0.48053855566733045
1.8534891852892534,12.600626908058715,-0.030630713165892744,1.0089705278891057,-0.46610555910780865
1.8474285757719424,12.400482630173876,-0.02997538200721629,0.9924722509592633,-0.45217830555179434
1.8415031693812112,12.20379423897446,-0.029278681900097345,0.9744116610348967,-0.47421881941076566
1.8357131847197965,12.010706638074968,-0.028621164714049366,0.9564643479600193,-0.49800654244701303
1.830050861657361,11.821197479578235,-0.028002065910304415,0.9386272370072994,-0.5234289863304699
1.8245085992316132,11.635245018392794,-0.02742055834717295,0.920897374847117,-0.5503762918183032
1.8190789675348098,11.452828088404875,-0.026875758620861598,0.9032719250320677,-0.578740983237599
1.8137547183871892,11.273926079512602,-0.026366732855343186,0.8857481638906752,-0.6084177288398385
1.8085287949036837,11.09851891544173,-0.025892501979713774,0.8683234768180327,-0.6393031060362194
1.8033943400529158,10.926587032264553,-0.025452046527964275,0.8509953549537402,-0.67129537053422
1.7983447043008414,10.758111357545161,-0.02504431099277846,0.833761392240171,-0.7042942283999911
1.793373452425382,10.593073290035463,-0.024668207761817804,0.8166192828568035,-0.7382006100680961
1.7884743695830059,10.431454679846865,-0.024322620661941012,0.7995668190291519,-0.77291644530959
1.783641466703421,10.273237809022579,-0.0240064081339069,0.7826018892137281,-0.8083444381511863
1.7788689852843007,10.118405372434854,-0.023718406057298188,0.765722476663534,-0.844387840711925
1.7741514016543052,9.966940458930317,-0.023457430242655786,0.7489266583818416,-0.8809502248889152
1.7694834307695295,9.818826532644579,-0.023222278605102106,0.7322126044755272,-0.9179352507798321
1.764860029605916,9.674047414404722,-0.023011733031031815,0.715578577923039,-0.955246430676298
1.7602764002081397,9.532587263134793,-0.022824560946731295,0.6990229347762512,-0.9927868873983534
1.7557279924539642,9.394430557175163,-0.02265951659502498,0.6825441248200679,-1.0304591056651302
1.751210506592141,9.259562075421279,-0.022515342023206673,0.6661406927187684,-1.0681646751096765
1.746719895611564,9.12796687818102,-0.022390767782563686,0.6498112796838141,-1.1058040234456883
1.742252367499637,8.999630287642212,-0.02228451333670477,0.6335546257042829,-1.1432761381796201
1.7378043874487046,8.874537867832945,-0.0221952871726203,0.6173695723883742,-1.1804782751322132
1.7333726800709535,8.752675403946839,-0.022121786604890958,0.6012550664726768,-1.2173056518877834
1.7289542316844972,8.634028880893045,-0.022062697259671277,0.5852101640652675,-1.2536511241266433
1.7245462927364348,8.518584460916578,-0.022016692220953208,0.5692340356994023,-1.289404842614891
1.7201463804326294,8.406328460117962,-0.02198243081710159,0.5533259722867662,-1.3244538884259094
1.715752281648851,8.297247323681965,-0.021958557020680555,0.5374853920732041,-1.3586818837491352
1.7113620562038752,8.191327599603063,-0.02194369742908009,0.5217118487158281,-1.391968575404661
1.7069740405822356,8.088555910669616,-0.02193645878731735,0.5060050406186531,-1.424189387928825
1.7025868522027512,7.988918924439272,-0.021935425007526817,0.49036482168479556,-1.4552149428297363
1.6981993943388034,7.892403320904084,-0.021939153631949378,0.4747912136670749,-1.4849105403388627
1.693810861807854,7.798995757504784,-0.021946171677545267,0.45928442032593647,-1.513135599715399
1.689420747561047,7.708682831108764,-0.021954970790524723,0.4438448436342563,-1.5397430539096466
1.685028850319203,7.621451036515033,-0.021964001627913732,0.4284731023030393,-1.5645786941835773
1.6806352834193614,7.537286720990693,-0.021971667370501716,0.4131700529403737,-1.5874804601560637
1.6762404850566277,7.456176034276844,-0.02197631625683733,0.3979368141981129,-1.6082776707383635
1.6718452301298508,7.378104873426427,-0.021976233010931375,0.38277479430605293,-1.6267901916273964
1.6674506439271148,7.303058821751762,-0.021969629016429428,0.3676857224406083,-1.6428275355391775
1.6630582179188274,7.231023081065519,-0.021954631066444182,0.35267168442183033,-1.6561878923503865
1.6586698279631973,7.1619823962958336,-0.021929268489857056,0.33773516327501024,-1.666657088000756
1.6542877552722075,7.095920971445896,-0.021891458420038572,0.3228790852243791,-1.6740074737227224
1.6499147105373968,7.032822375753877,-0.02183898892807079,0.30810687169579004,-1.6779967513845515
1.6455538616760106,6.972669438796725,-0.02176949968578903,0.2934224978757505,-1.6783667471489225
1.641208865732612,6.9154441331812215,-0.021680459748198763,0.27883055827927244,-1.6748421552597865
1.6368839055637523,6.861127443395507,-0.021569141940397465,0.26433633957787217,-1.6671292880240776
1.6325837320511587,6.8096992193808035,-0.021432593185539497,0.24994590056914862,-1.6549148890505023
1.6283137127433491,6.761138013470312,-0.021267599892556416,0.23566615853576603,-1.6378650975860922
1.6240798880346476,6.715420899596598,-0.021070647194456758,0.22150498020135762,-1.6156246967476389
1.619889036282882,6.672523274193395,-0.02083787032319977,0.2074712738306867,-1.5878168438992564
1.6157487496890273,6.632418639167518,-0.020564995615348084,0.19357507642807176,-1.5540435763778346
1.6116675233892446,6.595078368923605,-0.02024726738247844,0.17982762601106278,-1.5138875228082243
1.6076548611657864,6.560471466027508,-0.01987935485210146,0.16624140294990566,-1.4669154464709628
1.6037214026710709,6.528564314177537,-0.01945523009505294,0.1528301155498099,-1.4126845245116064
1.599879079412043,6.4993204433758756,-0.018968002495226836,0.13960859246680424,-1.350752650264425
1.5961413105049704,6.472700331388875,-0.018409686575497207,0.12659252740320176,-1.2806945565212944
1.592523255269696,6.448661278645371,-0.017770865777247954,0.11379800003182759,-1.2021261913473533
1.5890421495082094,6.427157411193203,-0.01704019183761711,0.10124067448986751,-1.1147404562609566
1.5857177680490917,6.4081398873610915,-0.016203622753562814,0.0889345638312581,-1.0183578764601953
1.5825730813329981,6.391557403709829,-0.01524324440737108,0.0768902726813595,-0.9129953570432768
1.5796352139950423,6.377357101495846,-0.014135428972189577,0.06511274945846128,-0.798953504721429
1.576936878317093,6.365485936307838,-0.012847927807301951,0.053598902421623705,-0.6769156561235586
1.574518567510596,6.355892433143023,-0.011335180257667853,0.042336129226523904,-0.5480367938496176
1.5724320242429441,6.3485284091434195,-0.00953025241884875,0.03130411076950311,-0.4139774063082474
1.5707461311645003,6.343349525115034,-0.007328678365591457,0.020484729514363257,-0.27681455181505266
1.5695587926555825,6.340311741133952,-0.0045447067235858665,0.00989311029644798,-0.1387613885391736
1.5690337668048198,6.339351580847129,-0.0007055517840407078,-0.00029150742821483673,-0.0017203068717099035
