x,y,v_x,v_y,omega
2.375,32.48,0.0,2.6666666666666665,-2.8571428571428577
2.374434583019272,31.952341069857297,-0.005654169807282755,2.609922634760326,-2.696162394861311
2.3728134095338262,31.435831677385757,-0.010557565047170488,2.5551712899550854,-2.5485586423670568
2.3702771921523547,30.930084583741415,-0.014804608767545517,2.502299646488321,-2.412876066353753
2.3669490449555397,30.43473427887158,-0.018476863200604387,2.4512034022100315,-2.287847190871771
2.3629368630513543,29.949435331732136,-0.02164495584125019,2.4017860691844044,-2.1723649136959073
2.3583353485597107,29.473860903341905,-0.02437018907518497,2.3539582147179017,-2.0654593689276544
2.3532277406370876,29.007701402322294,-0.026705890151049044,2.307636795478216,-1.9662785136284415
2.3476872969024134,28.550663265712615,-0.028698547195693168,2.2627445706185862,-1.8740717786522458
2.341778565359837,28.10246785041364,-0.03038876823006863,2.219209582371141,-1.7881762514131985
2.3355584792154196,27.66285042271758,-0.0318120932141048,2.1769646945894694,-1.7080049591465956
2.3290773015314348,27.231559235125747,-0.032999683625744916,2.1359471813288606,-1.6330369013517616
2.3223794422034647,26.80835468110832,-0.033978909653953206,2.0960983588454094,-1.5628085441220316
2.3155041660857996,26.39300851967957,-0.03477385152269957,2.0573632554420973,-1.496906540461655
2.3084862080753634,25.985303162690972,-0.035405728581662646,2.0196903144438787,-1.4349614821409664
2.3013563084712487,25.585031018618082,-0.03589326745948508,1.983031126285017,-1.3766425222191665
2.2941416798585372,25.191993887362433,-0.03625301866762746,1.9473401862714725,-1.3216527346764704
2.286866415043616,24.80600240122898,-0.03649962948158532,1.9125746750630583,-1.2697250999005574
2.279551844131057,24.42687550779036,-0.03664607964400211,1.878694259323139,-1.2206190230529927
2.2722168476288958,24.05443999082579,-0.03670388537761401,1.8456609103225665,-1.1741173073784912
2.2648781314588833,23.68853002593643,-0.03668327632250905,1.813438738571027,-1.1300235169312463
2.2575504688978407,23.3289867678001,-0.036593349287919845,1.781993842792282,-1.0881596734700754
2.250246913758403,22.975657966344134,-0.036442202106457704,1.7512941717673756,-1.0483642408113953
2.2429789885101177,22.62839760939262,-0.03623705037639541,1.721309397747772,-1.0104903570420973
2.2357568505267196,22.2870655895885,-0.035984329457581385,1.6920108002934107,-0.9744042809380578
2.2285894392075187,21.951527393606874,-0.03568978373443067,1.6633711595228406,-0.9399840239144406
2.221484606347728,21.621653811866878,-0.03535854486347743,1.635364657877137,-0.9071181430185236
2.2144492318140174,21.297320667119273,-0.034995200473626836,1.6079667895989143,-0.8757046740008647
2.2074893263089868,20.978408560437916,-0.034603854576679346,1.5811542772146505,-0.8456501864776687
2.2006101227745702,20.664802633277993,-0.034188180767483776,1.5549049943845759,-0.8168689457175787
2.1938161577836315,20.356392344384425,-0.03375146914190804,1.529197894551096,-0.789282167724921
2.187111344096208,20.053071260441776,-0.03329666773232025,1.5040129448754282,-0.7628173561106257
2.180499035407894,19.754736859453843,-0.032826419150823544,1.4793310650039035,-0.7374077107928557
2.1739886428930393,19.46129140358837,-0.03227750599772331,1.45512349365081,-0.7110207281158225
2.1675882705510974,19.172640646273088,-0.0317262174216953,1.4313840795020218,-0.6858340235727995
2.161298252272185,18.88869261484325,-0.031173965367428925,1.4080962347963542,-0.6617788489192181
2.15511865671548,18.609358579063617,-0.030621990199620325,1.385244122999946,-0.6387911379079875
2.149049319764136,18.334552905160393,-0.030071379313820992,1.3628126160323182,-0.6168111368851883
2.143089873463353,18.06419291811815,-0.029523083694011555,1.3407872543901023,-0.595783068408713
2.1372397718284697,17.79819877168512,-0.028977932654821462,1.3191542099401987,-0.5756548245978748
2.1314983138652788,17.536493325573637,-0.028436646977086106,1.2979002511746132,-0.5563776872833822
2.1258646641055683,17.27900202938241,-0.02789985062001736,1.277012710737628,-0.5379060723452053
2.1203378709264533,17.025652812803393,-0.027368081171133922,1.2564794550525527,-0.5201972959063318
2.1149168828917597,16.776375981709116,-0.026841799175803274,1.2362888558902487,-0.5032113602980577
2.1096005633270387,16.53110411974658,-0.026321396471402938,1.216429763735119,-0.48691075793141936
2.1043877033162603,16.28977199509142,-0.0258072036363846,1.1968914828164563,-0.47126029140325987
2.099277033287458,16.052316472041365,-0.025299496651638338,1.1776637476840919,-0.4562269083373267
2.094267233336268,15.818676427151228,-0.02479850286026226,1.1587367012172867,-0.44177954961342164
2.089356942420048,15.588792669633008,-0.02430440630193662,1.1401008739648957,-0.4278890097733054
2.0845447665409145,15.362607865764211,-0.023817352489400936,1.1217471647230766,-0.41452780851283416
2.079829286023286,15.14006646706547,-0.023337452686882282,1.1036668222643193,-0.40167007227744156
2.075209061980239,14.921114642025199,-0.02286478774358883,1.0858514281383935,-0.38929142507412834
2.070682642052935,14.705700211164157,-0.022399411529448864,1.0682928804720384,-0.37736888769893007
2.066248565498486,14.493772585246965,-0.021941354015041027,1.0509833786998872,-0.36588078465558216
2.061905367693678,14.285282706460546,-0.021490624033039803,1.033915409164306,-0.35480665810982775
2.0576515841149323,14.08018299239146,-0.021047211754414995,1.0170817315265572,-0.34412718828542344
2.05348575384859,13.878427282645202,-0.020611090909009828,1.0004753659360357,-0.33382411976319026
2.0494064226799966,13.67997078796077,-0.020182220776921576,0.9840895809082846,-0.32388019319413053
2.0454154323298215,13.484950045309791,-0.019727682724832704,0.9661178456014949,-0.3500046496785364
2.041511961436332,13.293512648102404,-0.019307026210058115,0.9482561264723947,-0.3777363563478826
2.0376892946340264,13.105636887687456,-0.018919641813000793,0.9305014776770607,-0.40696857513340007
2.033940844927959,12.921301633188506,-0.018564855247672755,0.9128510673124485,-0.4375968836756496
2.0302601660409594,12.740486309120751,-0.01824193362232529,0.8953021733650982,-0.4695189459025222
2.0266409635624743,12.563170873780443,-0.01795009116252599,0.8778521800379697,-0.5026342871686463
2.0230771050028924,12.38933579833206,-0.017688494433292384,0.8604985744458796,-0.5368440730341597
2.0195626288502155,12.218962046520222,-0.017456267093473095,0.8432389436725002,-0.5720508907628478
2.0160917527196363,12.052031054934531,-0.017252494212322573,0.826070972184407,-0.608158532614867
2.0126588806808923,11.888524713756063,-0.017076226175117733,0.8089924396002646,-0.6450717799974298
2.0092586098432115,11.728425347914442,-0.016926482201688325,0.7920012188159502,-0.6826961875176406
2.0058857362731572,11.571715698583919,-0.016802253498851706,0.7750952744892667,-0.7209378659547363
2.002535260316779,11.4183789049459,-0.016702506064930827,0.7582726618909383,-0.7597032631338544
1.9992023913941095,11.26839848614362,-0.01662618316176553,0.7415315261318496,-0.7988989416395406
1.9958825523312456,11.12175832335243,-0.0165722074668743,0.7248701017800414,-0.8384313522538765
1.9925713832929923,10.978442641885941,-0.0165394829156584,0.7082867128848711,-0.8782066019405845
1.989264745377353,10.83843599325445,-0.016526896240732943,0.6917797734300408,-0.9181302151218826
1.985958723932021,10.701723237087247,-0.016533318212588227,0.6753477882419854,-0.9581068869082505
1.9826496316524826,10.568289522824504,-0.016557604582795392,0.6589893543854622,-0.9980402268415274
1.9793340115214195,10.438120271077537,-0.016598596727836118,0.6427031630842159,-1.0378324915977128
1.9760086396498044,10.311201154547973,-0.016655121988316,0.6264880022114048,-1.0773843049661935
1.9726705280814958,10.18751807838661,-0.016725993694770597,0.6103427594022178,-1.116594363275511
1.9693169276252744,10.067057159861395,-0.01681001086744231,0.594266425849931,-1.1553591242708376
1.9659453307812063,9.94980470719073,-0.016905957573239594,0.578258100856728,-1.1935724772636513
1.9625534748320297,9.83574719738284,-0.01701260191852537,0.5623169972221579,-1.2311253921684748
1.9591393451750423,9.72487125290409,-0.017128694651348777,0.5464424475653415,-1.2679055448139418
1.955701178975792,9.617163616978331,-0.01725296734115407,0.5306339116922578,-1.303796915665378
1.9522374692318984,9.512611127295415,-0.01738413009778239,0.5148909851369228,-1.338679358823744
1.9487469693436579,9.411200687879184,-0.017520868784623004,0.4992134090253774,-1.372428137872648
1.9452286982979003,9.3129192388332,-0.017661841672951636,0.48360108143448033,-1.4049134248344846
1.9416819465830375,9.217753723645355,-0.017805675475677143,0.4680540704439654,-1.4359997581746609
1.9381062829665956,9.125691053689913,-0.01795096068874236,0.4525726291104776,-1.465545455469505
1.9345015622820114,9.03671806951619,-0.018096246157099233,0.4371572126267354,-1.4934019760450048
1.9308679343893744,8.950821498456726,-0.018240032769270824,0.42180849796792,-1.5194132286249478
1.9272058544954735,8.86798790802283,-0.018380766169738154,0.40652740637105156,-1.5434148188360508
1.9235160950423609,8.788203654481581,-0.01851682836138744,0.39131512904142013,-1.5652332313604336
1.9197997594011669,8.711454825924182,-0.01864652805055237,0.3761731565325789,-1.5846849416852762
1.9160582976396963,8.637727179040752,-0.018768089564154152,0.3611033123017094,-1.6015754528974306
1.912293524669161,8.567006068710796,-0.018879640141198376,0.34610779099785144,-1.6156982539851423
1.9085076411182245,8.499276369401798,-0.01897919536816767,0.3311892020921183,-1.626833697899663
1.9047032573326295,8.434522387242676,-0.019064642487780527,0.3163506194991148,-1.63474780057521
1.9008834209578187,8.372727761507257,-0.019133721260327363,0.3015956378550971,-1.639190966758955
1.8970516486325928,8.31387535411261,-0.019184001991931692,0.28692843609136076,-1.639896655669861
1.8932119624076353,8.257947125619477,-0.019212860257643377,0.2723538488399915,-1.6365800103644006
1.8893689316090643,8.204923996136962,-0.01921744772806702,0.257877445985163,-1.6289364909613802
1.8855277210024466,8.154785689513254,-0.019194658338109207,0.24350562025190894,-1.6166405760882436
1.8816941462900707,8.107510559288965,-0.019141088785649338,0.2292456819909886,-1.5993446327440646
1.877874738214768,8.063075395180018,-0.019052991967378977,0.21510595909846744,-1.5766781076094496
1.8740768168813215,8.021455209466286,-0.01892622136708577,0.20109589803886838,-1.5482472704794459
1.8703085783974145,7.982623003779317,-0.018756163471985336,0.18722615883081398,-1.5136358541740655
1.86657919667251,7.946549518692475,-0.018537653777059453,0.17350869203761515,-1.4724071008291921
1.8628989443484996,7.913202971639649,-0.018264869463045175,0.15995677849063988,-1.4241079635222476
1.8592793386261697,7.882548793628082,-0.017931187760253754,0.14658500162503652,-1.3682765525433418
1.8557333206229734,7.85454938279112,-0.01752899227170844,0.1334091067445944,-1.3044543886808155
1.8522754815588802,7.829163904081042,-0.017049398369224218,0.12044568035617229,-1.2322056559454795
1.8489223566868858,7.806348180391058,-0.01648185035071939,0.10771155654366589,-1.1511464198910741
1.845692820366634,7.786054741599209,-0.015813512851798727,0.09522283137484529,-1.0609875696025615
1.84260863607658,7.768233122758119,-0.015028330048742183,0.08299335703607146,-0.9615956512782778
1.8396952483286286,7.75283052348361,-0.014105547430771737,0.07103263570901026,-0.8530748049917257
1.8369829573787009,7.7397929373148,-0.013017362068505964,0.059343225979075244,-0.735868668334424
1.8345087076188458,7.7290667878406225,-0.011725135530046112,0.047918268762697565,-0.6108700374111524
1.832318886401033,7.720600883817205,-0.01017307664808292,0.036740771471460806,-0.479504885997484
1.8304739128690504,7.714347984156355,-0.008276658671741384,0.025788225137030708,-0.34372793335102036
1.8290566188871722,7.710264110346031,-0.00589628114703921,0.015050512966203997,-0.20584552107065288
1.8281922253145129,7.708300025932534,-0.002747654579555427,0.0045903311687784006,-0.06810122664875976
