x,y,v_x,v_y,omega
2.375,32.48,0.0,3.5897435897435894,-5.061224489795919
2.3736143380609347,31.771560791382647,-0.01385661939065451,3.4946484964299227,-4.688410823295604
2.3696910986478112,31.08168806203426,-0.02537577474057634,3.4040787970539403,-4.357077520443824
2.363659767062755,30.40951083312566,-0.03493754110998903,3.317693492032061,-4.061293663286748
2.3558805048259703,29.754222764822753,-0.04285508125785471,3.235187190997,-3.796126349435534
2.346656238759072,29.115075529478357,-0.0493875794111302,3.156285162446973,-3.557450133981858
2.3362424376297146,28.491373086455948,-0.05475043188244325,3.0807392677771155,-3.341796983470753
2.3248550613029217,27.882466701119824,-0.05912333138548588,3.0083245855841003,-3.1462372603792508
2.312677056126114,27.287750584364726,-0.06265672038259358,2.938836581966879,-2.968284681051868
2.2998636868930107,26.706658054365494,-0.0654769719484383,2.8720887180254397,-2.8058199410825706
2.2865469325965315,26.13865814142408,-0.06769057101635455,2.8079104113886917,-2.6570289818821733
2.2728391249517417,25.58325257154769,-0.06938750543154042,2.7461452873752408,-2.520352817553153
2.2588359715334705,25.03997307587767,-0.07064402875117211,2.6866496693249453,-2.3944465463966016
2.2446190765713205,24.508378982133813,-0.07152492087032761,2.6292912681136253,-2.2781457021066562
2.2302580499594153,23.988055051439186,-0.07208534524872688,2.57394803883264,-2.17043850239746
2.215812277377468,23.478609529681105,-0.07237238057074431,2.520507178748176,-2.070442860650284
2.2013324104704926,22.97967238726364,-0.07242628849901112,2.4688642454264498,-1.9773872631479499
2.1868616249590254,22.49089372495489,-0.07228156661565881,2.418922377661062,-1.890594798079201
2.1724366857150157,22.011942326707334,-0.07196782582443852,2.3705916048145066,-1.8094697656296916
2.1580888507555267,21.54250434296904,-0.07151052377045408,2.323788232568452,-1.7334864106913623
2.143844640404419,21.082282090212065,-0.07093157974062408,2.2784342950012877,-1.662179408170959
2.1297264932630435,20.630992954264237,-0.07024989167312967,2.234457064477017,-1.5951358009499628
2.1157533268906477,20.188368386605234,-0.06948177205082645,2.191788612113006,-1.5319881463288765
2.101941018048605,19.754152984128602,-0.06864131636960127,2.1503654126533163,-1.4724086713973843
2.0883028148722036,19.328103644017858,-0.06774071539441243,2.1101279884541007,-1.4161042736023464
2.074849691291099,18.9099887863702,-0.06679052041663484,2.0710205880224732,-1.3628122316858766
2.0615906523386562,18.499587638051192,-0.06579986910779348,2.032990895167615,-1.3122965155697965
2.0485329976029014,18.096689572000027,-0.06477667824975136,1.9959897653440337,-1.264344602788788
2.0356825489229857,17.701093496844727,-0.06372780854940475,1.9599709862089572,-1.2187647245987456
2.0230438474811265,17.31260729224459,-0.06265920586919108,1.9248910597924322,-1.1753834775988004
2.010620324645664,16.93104728586526,-0.06157602248543338,1.8907090040008503,-1.134043747150358
1.998414450257653,16.556237768320052,-0.060482721394674886,1.8573861714512276,-1.094602897487025
1.9864278614982136,16.188010542787737,-0.05938316619971883,1.8248860838719443,-1.0569311905303032
1.9746614750079539,15.826204506349367,-0.058280698702879635,1.7931742805117488,-1.0209104013332977
1.9631155845378117,15.470665260380432,-0.057178205998541724,1.7622181791775937,-0.9864326029899243
1.95178994608015,15.121244747594936,-0.0560781785780751,1.731986948677383,-0.9533990979486666
1.9406838521496013,14.777800913569262,-0.054982760727412226,1.702451391579367,-0.9217194761021594
1.9297961966465609,14.440197390779467,-0.05389379430299085,1.6735838363185802,-0.8913107829038122
1.9191255315353946,14.108303203369132,-0.05281285680867352,1.6453580377847523,-0.8620967831855928
1.9086701163986022,13.781992491028898,-0.05174129455925118,1.6177490856175791,-0.8340073083947508
1.8984279617825974,13.461144250515563,-0.05068025160079442,1.590733319515784,-0.8069776766953252
1.8883968671264384,13.145642093470233,-0.049630694960797014,1.5642882509375229,-0.7809481768450537
1.8785744539584814,12.835374019313221,-0.04859343671877235,1.5383924906325923,-0.7558636080028277
1.868958194954779,12.530232202099697,-0.0475691533182495,1.5130256815026593,-0.7316728686816656
1.8595454393747608,12.230112790315907,-0.046558402481934484,1.4881684363352488,-0.7083285889667544
1.8503436028517535,11.934917151313037,-0.04545996274813861,1.4637879536934342,-0.6829294431801188
1.8413589480829893,11.644550170235036,-0.044386584939503815,1.4398818570865988,-0.6586862843443722
1.8325864878732463,11.358918657361173,-0.043338017157925166,1.416433271652022,-0.6355328548172741
1.824021290810005,11.077932721169148,-0.04231395347448811,1.3934260902682314,-0.6134074146613913
1.815658491154856,10.801505619175416,-0.04131404307700542,1.3708449296691085,-0.5922523846826074
1.8074932970254998,10.529553617254471,-0.04033789821655462,1.3486750895403323,-0.5720140214330958
1.7995209970932233,10.26199585686415,-0.039385101106208284,1.3269025143628825,-0.552642120986762
1.7917369659920905,9.99875422964892,-0.03845520990512112,1.3055137577894245,-0.5340897486461379
1.7841366686111944,9.73975325893414,-0.03754776390384032,1.2844959493583774,-0.5163129920486125
1.7767156634196355,9.484919987661545,-0.036662288011748714,1.2638367633675616,-0.4992707354121905
1.7694696049550005,9.234183872350314,-0.03579829663460163,1.2435243897447368,-0.4829244529013439
1.7623942455896509,8.987476682699214,-0.03495529701889563,1.223547506766271,-0.467238019306024
1.7554854366747543,8.744732406473808,-0.034132792130069776,1.2038952554877642,-0.4521775364150262
1.7487391291494392,8.505887159348848,-0.03333028312308178,1.184557215761846,-0.4377111736316635
1.7421513736914762,8.270879099399792,-0.03254727145654718,1.1655233837287038,-0.42380902152773625
1.7357183204762987,8.039648345959495,-0.03178326069522845,1.146784150674255,-0.41044295716335893
1.7294362186027674,7.812136902576128,-0.031037758040084667,1.1283302831594038,-0.39758652011729795
1.723301415236736,7.588288583827033,-0.030310275620229005,1.11015290433155,-0.38521479827681115
1.7173103545170234,7.368048945760222,-0.02960033157689754,1.0922434763365771,-0.373304322529066
1.7114595762627511,7.151365219750968,-0.02890745096582488,1.0745937837559556,-0.3618329695793555
1.7057457145160506,6.938186249575427,-0.028231166501181036,1.057195917999459,-0.35077987219568835
1.7001654959497936,6.728462431516547,-0.027571019161387864,1.0400422625893384,-0.34012533624589236
1.69471573816619,6.5221456573299434,-0.026926558674650193,1.023125479276685,-0.3298507639530398
1.6893933479087386,6.319189259908757,-0.02629734389986093,1.0064384949351817,-0.3199385828485346
1.6841953192070895,6.119547961497087,-0.025682943116631617,0.9899744891815367,-0.3103721799502925
1.6791240174568784,5.923353655131464,-0.025030074385479828,0.9719685744746747,-0.33622296934338275
1.6741791724111907,5.730749448935214,-0.0244183760713971,0.9540734874878141,-0.36371844920912755
1.6693526418982678,5.541713475356509,-0.023846929057830184,0.9362862482992365,-0.3927503306825257
1.6646364726913823,5.356224451253706,-0.02331476301102771,0.9186039927287848,-0.423212772365141
1.660022910190013,5.174261655169296,-0.022820862002663728,0.9010239681152945,-0.45500214428370617
1.6555044070269886,4.995804905409539,-0.022364169627580623,0.8835435294822888,-0.4880167970918559
1.6510736306990421,4.820834538853205,-0.02194359365188517,0.866160136081049,-0.5221568355575912
1.6467234703115214,4.6493313904148295,-0.0215580102233195,0.8488713483027156,-0.5573238953863344
1.6424470425219209,4.481276773089192,-0.021206267672688607,0.8316748249536458,-0.5934209224296499
1.6382376967614385,4.316652458504738,-0.020887189932132448,0.8145683208908836,-0.6303519533227042
1.6340890198089095,4.155440657913918,-0.02059957959315812,0.7975496850173195,-0.6680218965790831
1.6299948397871367,3.997624003548289,-0.02034222062457168,0.7806168586389641,-0.7063363131493388
1.625949229647905,3.8431855302654157,-0.02011388076774448,0.7637678741897798,-0.7452011954191915
1.6219465102087314,3.692108657413165,-0.01991331362399055,0.7470008543327403,-0.784522743584156
1.617981252801713,3.544377170834963,-0.019739260446193365,0.7303140114492813,-0.8242071382888924
1.6140482815926762,3.399975204936723,-0.019590451644175527,0.713705647533112,-0.8641603083611027
1.6101426756271962,3.2588872247325575,-0.01946560801062492,0.6971741545085507,-0.9042876924004819
1.606259770658969,3.1210980077818817,-0.01936344167164586,0.680718014998191,-0.944493992902191
1.6023951608154883,2.9865926259250735,-0.01928265676316108,0.6643358035698951,-0.9846829215005107
1.5985447001560307,2.855356426718192,-0.01922194983141525,0.648026188498927,-1.0247569338106315
1.5947045041776207,2.7273750144595397,-0.019180009952684474,0.6317879340876097,-1.064616952223727
1.5908709513259585,2.602634230691546,-0.019155518563937202,0.6156199035923311,-1.10416207487123
1.5870406845703076,2.4811201340506948,-0.01914714899257287,0.5995210628161916,-1.1432892688172502
1.5832106131041068,2.362818979325553,-0.01915356566943389,0.5834904844352409,-1.1818930453620182
1.5793779142366648,2.247717195568299,-0.01917342300498572,0.5675273531373027,-1.2198651151428488
1.5755400355457838,2.1358013630880635,-0.01920536390382321,0.5516309716650427,-1.2570940205014054
1.5716946973666601,2.027058189134614,-0.01924801788741527,0.5358007678694652,-1.2934647423463665
1.5678398956990027,1.9214744820579952,-0.01929999878915954,0.5200363028967093,-1.3288582784790277
1.5639739056221578,1.819037123703307,-0.019359901979288927,0.50433728065018,-1.36315119006705
1.5600952853172447,1.7197330397690855,-0.019426301069841275,0.48870355869205084,-1.3962151126512639
1.5562028808060961,1.6235491678225422,-0.01949774404164509,0.47313516077339457,-1.427916227757425
1.5522958315293378,1.5304724226241007,-0.019572748725938525,0.45763229121103227,-1.4581146908680205
1.5483735769004792,1.4404896583667934,-0.019649797562648636,0.44219535136202986,-1.4866640112029499
1.5444358639896842,1.3535876273821934,-0.01972733154530086,0.42682495848395446,-1.5134103784843325
1.5404827565102797,1.269752934802721,-0.019803743248742466,0.411521967310758,-1.538191931653344
1.5365146453034035,1.1889719885995973,-0.019877368820019302,0.3962874947204897,-1.5608379644159645
1.5325322605419602,1.111230944335393,-0.019946478794414954,0.3811229479215678,-1.581168062593733
1.5285366859047915,1.036515643879433,-0.02000926757727362,0.36603005663803684,-1.598991168653604
1.5245293750063649,0.9648115472327312,-0.0200638414069921,0.35101090982899447,-1.6141045696463663
1.5205121704072302,0.8961036564968907,-0.02010820458435356,0.33606799752941613,-1.6262928063270856
1.5164873255771423,0.830376430899701,-0.02014024371652567,0.32120425844247064,-1.6353265038005036
1.5124575302376846,0.7676136916618042,-0.020157709678052065,0.3064231339365091,-1.6409611281199425
1.5084259395766635,0.707798515359535,-0.02015819693215906,0.291728629086187,-1.6429356795851195
1.504396207905688,0.6509131143189428,-0.02013911977759528,0.2771253813197214,-1.6409713430756543
1.5003725274299975,0.596938702481868,-0.020097684979309874,0.26261873705102134,-1.634770130146464
1.4963596729230797,0.5458553451446448,-0.020030860089869294,0.2482148363212128,-1.6240135690250208
1.4923630532593908,0.4976417910276396,-0.019935336547021093,0.23392070484882294,-1.6083615303412455
1.4883887709747738,0.4522752853588514,-0.0198074862991488,0.2197443518390899,-1.5874513231326854
1.4844436913253727,0.4097313631548971,-0.019643310194860056,0.20569487020042182,-1.5608972642901073
1.4805355227499142,0.3699836228231206,-0.019438375559725676,0.19178253311736618,-1.5282910250626824
1.4766729112860604,0.3330034818379133,-0.019187739078812466,0.17801887673468125,-1.4892032045944168
1.4728655524796985,0.2987599189334631,-0.018885848984806723,0.1644167523098121,-1.4431867921159556
1.4691243258733815,0.2672192115377712,-0.018526417078361154,0.1509903216471005,-1.3897834818013914
1.4654614596272892,0.238344683792576,-0.01810224538256284,0.13775495580486236,-1.3285342275059688
1.4618907368110663,0.21209649041818324,-0.017604982779665428,0.12472697793909743,-1.258995995994391
1.4584277613931054,0.18843147595472232,-0.01702477139994608,0.11192316669551453,-1.1807673991131589
1.4550903125500465,0.16730316827764824,-0.016349717030639845,0.09935991007522466,-1.0935266782974304
1.4518988331962985,0.14866198896987726,-0.015565076506840744,0.08705188300251893,-0.9970860909375641
1.4488771266601224,0.1324557860839306,-0.014651988854922306,0.07501014585697804,-0.8914663590028886
1.4460533807330074,0.11863080205842635,-0.01358547041622774,0.06323969439809453,-0.7769918670208518
1.443461712531204,0.10713314627366799,-0.012331211601806058,0.051736863449503505,-0.6543988617181528
1.4411445579293845,0.09791067969104716,-0.010840334416388103,0.040487802376735486,-0.5249314199924572
1.4391565043104961,0.09091482048457067,-0.009040201772495026,0.02947078968805667,-0.3903728185670411
1.4375709499600593,0.08610091667116393,-0.006815341731873703,0.01866824844602044,-0.252933848562019
1.4364941816825492,0.08342355253136446,-0.003952341043227047,0.00810539295199981,-0.11492114138978546
