x,y,v_x,v_y,omega
2.375,32.48,0.0,3.435897435897436,-7.63265306122449
2.373035819803349,31.801683744940668,-0.01964180196650821,3.3472651146958423,-7.091852641710441
2.3674605830652373,31.140678138446717,-0.03611056541461151,3.2627909502436956,-6.6088870515356835
2.3588593444101096,30.496183786176815,-0.049901821136666136,3.182152572455315,-6.175756522500342
2.347726510006588,29.86746212076355,-0.061426522898550065,3.1050640816773294,-5.785774614607558
2.3344811445989726,29.25382867763542,-0.07102713117760079,3.0312703496039877,-5.433320791900238
2.3194794040769477,28.654647396166972,-0.07899027404264852,2.96054246508047,-5.113645624197805
2.3030246965657937,28.069325744679585,-0.0855568010688908,2.8926740497934103,-4.82271610251359
2.2853760335699964,27.497310515334714,-0.09092982888908421,2.827478243655289,-4.557091854772914
2.266754928290657,26.938084169747672,-0.09528122390430888,2.7647852122151266,-4.313825390795686
2.2473511201016465,26.391161641946255,-0.0987568579857975,2.7044400657990524,-4.09038119355913
2.2273273449845994,25.856087524665654,-0.10148089318467308,2.6463011070069475,-3.884569706692369
2.2068233264073767,25.33243357968315,-0.10355929258755152,2.5902383428180937,-3.694493179660861
2.1859591261003586,24.819796524198367,-0.10508271048263161,2.536132212029765,-3.5185010134189465
2.1648379668726356,24.317796054041498,-0.10612888179459942,2.483872489538905,-3.355152763685666
2.143548618151088,23.826073071377493,-0.10676460542087562,2.4333573371011386,-3.203187350891974
2.122167417947713,23.344288090029153,-0.10704739661287506,2.384492476382286,-3.0614973269210966
2.100759991443695,22.87211979590434,-0.10702686842730084,2.3371904648658353,-2.9291072818416133
2.0793827155551616,22.409263743531575,-0.10674589045803791,2.2913700588618107,-2.8051556555482566
2.058083970132838,21.95543117257106,-0.10624156376519912,2.2469556507433146,-2.688879361824268
2.0369052094001154,21.51034793051567,-0.10554604356202349,2.2038767698106136,-2.5796007449217
2.0158818815073283,21.073753489735417,-0.10468723536584777,2.1620676379918873,-2.4767164781440183
1.9950442194071678,20.645400048632133,-0.10368938563575694,2.1214667730409418,-2.379688085263252
1.9744179224281269,20.22505170802154,-0.10257358415465258,2.0820166330650327,-2.288033822835749
1.9540247447752979,19.812483714997967,-0.10135819237363854,2.0436632971706654,-2.2013217076041136
1.9338830045907391,19.407481767501125,-0.10005920947194732,2.0063561777977816,-2.11916351050861
1.9140080250555984,19.009841373625513,-0.09869058587946154,1.9700477609583131,-2.0412095691802126
1.8944125172306627,18.619367260416585,-0.09726449236989497,1.9346933711309688,-1.9671442955552658
1.8751069128447728,18.235872827502334,-0.09579155148900473,1.9002509580115543,-1.8966822755414072
1.856099653998177,17.8591796414318,-0.09428103697695252,1.8666809026937472,-1.829564874345861
1.837397445707288,17.4891169670452,-0.09274104593193787,1.8339458411722538,-1.7655572748395862
1.819005476343351,17.125521332595063,-0.09117864770743135,1.8020105033290954,-1.704445887722597
1.8009276102817235,16.768236125682876,-0.089600012908843,1.770841565792795,-1.6460360817154462
1.7831665564574366,16.417111217377975,-0.08801052533402684,1.7404075172562008,-1.5901501898811956
1.7657240159973462,16.07200261215165,-0.08641487926687606,1.7106785350070388,-1.5366257547645894
1.7486008116537386,15.732772121493898,-0.08481716416920027,1.6816263715704864,-1.4853139805497697
1.731797001385745,15.399287059287975,-0.08322093851073518,1.6532242504887382,-1.436078365070644
1.7153119781126278,15.071419957201933,-0.08162929422043723,1.6254467703716846,-1.3887934884103326
1.6991445573879924,14.74904829851997,-0.08004491302591632,1.5982698164479316,-1.3433439381216332
1.683293054508881,14.432054268982327,-0.07847011576519958,1.5716704789284992,-1.2996233538904483
1.6677553523723176,14.120324523332638,-0.07690690560043217,1.5456269775683853,-1.257533576831908
1.652528961219072,13.81374996638828,-0.07535700593202482,1.5201185918751967,-1.2169838906230945
1.6376110712558338,13.512225547553715,-0.07382189370035547,1.4951255964704493,-1.177890343393578
1.6230150939982941,13.215653825267662,-0.07213787887504189,1.4705916263900807,-1.135497621297149
1.6087524654852916,12.923940789407855,-0.07048840625498264,1.4465387322080043,-1.0950441373430748
1.5948162753181523,12.636991950387731,-0.06887349541641191,1.422949657993236,-1.0564181589605195
1.5811996212797181,12.354716190315337,-0.06729304496793076,1.3998079427307246,-1.019515614739845
1.5678956317590198,12.077025608627753,-0.06574685023905166,1.377097874145107,-0.9842394855237758
1.5548974848595192,11.803835376640325,-0.06423461875595403,1.35480444572916,-0.9504992503628418
1.5421984246059912,11.53506360039568,-0.06275598377932753,1.3329133167172769,-0.9182103818201809
1.5297917746136687,11.270631191247116,-0.06131051614389528,1.3114107747683779,-0.8872938857214715
1.5176709495384126,11.010461743655856,-0.059897734608666146,1.2902837011442223,-0.8576758809826945
1.5058294645874963,10.754481419722591,-0.0585171149004964,1.2695195381884248,-0.8292872156212486
1.4942609433363896,10.502618840010864,-0.05716809761057242,1.2491062589288426,-0.8020631154729205
1.4829591240669848,10.25480498025382,-0.05585009508347367,1.2290323386416147,-0.7759428625055018
1.4719178648165252,10.010973073566738,-0.05456249742112207,1.2092867282292032,-0.7508694999455786
1.4611311473035316,9.77105851781607,-0.05330467770881515,1.189858829277476,-0.7267895617235316
1.4505930798769127,9.53499878782149,-0.05207599655737179,1.1707384706683286,-0.7036528239976693
1.4402978996167826,9.302733352091185,-0.05087580604393007,1.1519158866347061,-0.6814120767456707
1.4302399736999993,9.074203593812285,-0.04970345312390237,1.13338169615428,-0.6600229136135993
1.420413800129827,8.849352735838202,-0.04855828257782094,1.1151268835865316,-0.6394435383926891
1.4108140079171316,8.628125769432977,-0.04743963954913178,1.097142780465729,-0.6196345866545165
1.4014353567899913,8.410469386549472,-0.046346871722272344,1.079421048369299,-0.6005589612183585
1.3922727364993164,8.196331915433795,-0.04527933118447634,1.0619536627874826,-0.5821816802524912
1.383321165779911,7.98566325936245,-0.04423637600957962,1.0447328979259825,-0.564469736925669
1.3745757910191967,7.77841483833199,-0.04321737159756256,1.02775131237861,-0.5473919696275694
1.3660318846794828,7.574539533532949,-0.04222169179957646,1.0110017356117857,-0.5309189418689378
1.3576848435140556,7.373991634451055,-0.04124871985469474,0.9944772552071661,-0.5150228310547216
1.3495388186424115,7.176905031002455,-0.040211528861746476,0.9763887792788348,-0.5354411604071212
1.3415952159003774,6.983424683273132,-0.039224498558594424,0.9584146980144042,-0.5576709733061146
1.3338441270284183,6.793528024776585,-0.03828639016099805,0.9405518869510678,-0.5815960652942075
1.326275895762643,6.607193101377625,-0.03739592249675316,0.9227973470385299,-0.6071030729922254
1.3188811257746433,6.4243985466881846,-0.036551777383243604,0.9051481998558587,-0.6340812141284207
1.311650687586017,6.245123558376427,-0.03575260450302043,0.8876016832617247,-0.6624220345356333
1.3045757245543594,6.069347875303876,-0.034997025813554516,0.8701551474637718,-0.6920191610437127
1.2976476580206076,5.897051755407929,-0.03428363952396455,0.8528060514957014,-0.7227680592140578
1.2908581917013748,5.728215954249013,-0.03361102366836261,0.8355519600934762,-0.7545657948750516
1.2841993154042926,5.562821704143175,-0.03297773930246014,0.8183905409648987,-0.7873107984213118
1.2776633081393252,5.400850693801711,-0.032382333347212945,0.8013195624497438,-0.8209026308359604
1.2712427406945508,5.242285048399673,-0.03182334110053138,0.7843368915706355,-0.8552417503833378
1.264930477740956,5.087107309994806,-0.03129928843541665,0.7674404924780199,-0.8902292788994901
1.258719679527386,4.9353004182174125,-0.03080869370028318,0.7506284252959251,-0.9257667665789768
1.2526038032238913,4.786847691149944,-0.030350069334665285,0.7338988453787724,-0.9617559541186552
1.246576603969329,4.641732806312731,-0.029921923210959562,0.7172500029933647,-0.9980985310315502
1.2406321356772032,4.499939781668957,-0.02952275971029643,0.7006802434443827,-1.0346958888861282
1.2347647516523697,4.3614529565578835,-0.029151080538038075,0.6841880076663427,-1.0714488681575363
1.2289691050703921,4.2262569724602415,-0.028805385281736918,0.667771833310089,-1.1082574972968882
1.2232401493710556,4.094336753493472,-0.028484171711627558,0.6514303563575901,-1.1450207225316253
1.2175731386178095,3.965677486527195,-0.028185935820833157,0.6351623133051929,-1.181636126803453
1.2119636278757855,3.8402646008004098,-0.027909171599407253,0.6189665439626747,-1.2179996361294532
1.2064074736625383,3.7180837469117876,-0.027652370533064973,0.6028419949235434,-1.254005211535785
1.200900834527838,3.5991207750423087,-0.02741402081393872,0.58678772377124,-1.2895445245611177
1.1954401718217567,3.483361712255551,-0.027192606246874133,0.5708029040963447,-1.3245066141579704
1.1900222507140086,3.3707927387047363,-0.026986604830607074,0.5548868314117871,-1.3587775226341525
1.184644141532091,3.261400162556896,-0.026794486988570006,0.5390389300666214,-1.392239908073769
1.1793032214913344,3.155170393422793,-0.026614713418996263,0.5232587612743923,-1.4247726304588135
1.1739971768966004,3.0520899140563778,-0.02644573252834289,0.5075460323897437,-1.4562503084805392
1.1687240059031916,2.9521452500587024,-0.026285977405745176,0.4919006075869984,-1.4865428437887058
1.163482021933703,2.8553229372882782,-0.02613386228914024,0.4763225201172438,-1.5155149091832838
1.1582698578582162,2.7616094866419267,-0.02598777846572653,0.4608119863462792,-1.543025397017944
1.153086471057603,2.6709913458268133,-0.025846089540406993,0.4453694218048601,-1.5689268238739895
1.1479311495040014,2.583454857694811,-0.025707125995608746,0.42999545951517826,-1.5930646874015444
1.1428035190090262,2.4989862146539465,-0.02556917895414457,0.41469097089344886,-1.6152767711475757
1.1377035518092842,2.4175714086078415,-0.02543049304327661,0.39945708956759585,-1.63539239324972
1.1326315766807111,2.3391961758020194,-0.02528925824245419,0.3842952384906336,-1.6532315951463545
1.1275882907985888,2.2638459358756506,-0.02514360057876961,0.3692071607730569,-1.6686042670456525
1.1225747735894895,2.191505724328458,-0.024991571512223584,0.3541949546988854,-1.681309207966039
1.1175925028556393,2.1221601175159925,-0.024831135826279795,0.3392611134257668,-1.6911331199325148
1.1126433734923882,2.0557931491841224,-0.02466015780623112,0.3244085698929241,-1.6978495387110648
1.10772971916716,1.9923882174487382,-0.02447638544604978,0.3096407474609252,-1.7012177077516761
1.1028543373855821,1.9319279810259076,-0.024277432369728503,0.29496161676739535,-1.7009814084581207
1.0980205184406573,1.8743942434314818,-0.02406075707952092,0.2803757591768647,-1.6968677694727197
1.093232078828575,1.8197678238146793,-0.023823639041302243,0.2658884369911626,-1.6885860917446538
1.0884933998273332,1.768028413094683,-0.023563150971115165,0.25150567020879355,-1.6758267467412227
1.0838094720830065,1.7191544141751365,-0.02327612647215275,0.23723431898667124,-1.658260235142599
1.0791859472509835,1.6731227652834946,-0.022959121848077985,0.22308216992973318,-1.6355365368665087
1.0746291980239815,1.6299087460192467,-0.022608370421941807,0.20905802271275253,-1.6072849462008076
1.0701463882903333,1.5894857666447528,-0.02221972691454074,0.19517177103216948,-1.5731146765116428
1.0657455557779183,1.55182514273368,-0.02178859820960931,0.18143446807857233,-1.5326166489904096
1.0614357104695016,1.5168958598215347,-0.021309854874558012,0.16785836104287716,-1.4853670646891841
1.0572269535163763,1.4846643366283345,-0.020777714656695034,0.1544568708891362,-1.4309336182151742
1.0531306236411644,1.455094201347464,-0.020185584095425153,0.14124448191956684,-1.368885566654667
1.0491594816119454,1.4281461041670873,-0.01952583619676462,0.12823648988418945,-1.2988093354786592
1.0453279490973912,1.403777601391809,-0.01878948894877666,0.11544853786859299,-1.2203319171992586
1.0416524273555565,1.3819431626995033,-0.017965728469571625,0.10289584905445968,-1.1331549217747359
1.0381517357552845,1.3625943723343887,-0.017041187533147557,0.09059205459668818,-1.037102527315609
1.0348477331215133,1.3456804131073916,-0.015998838804564378,0.07854753767328307,-0.9321861634704305
1.0317662210547156,1.3311489270630048,-0.014816281863412368,0.06676732277060254,-0.8186863147403515
1.0289382858663265,1.3189473121199775,-0.013463070020478333,0.05524882665966113,-0.6972452589507192
1.026402333097085,1.309024389591812,-0.01189645767193541,0.0439803986220057,-0.5689512932746164
1.024207263550079,1.3013320791946015,-0.010054237798125658,0.03294270535009437,-0.4353745094549841
1.022417756068886,1.295826096955249,-0.007840837013802117,0.02211711704341557,-0.29849354254072635
1.0211245076514508,1.292463236567876,-0.00509164716055014,0.011511486830323533,-0.16045018732696537
1.0204730081693154,1.2911863415273324,-0.0014233476608037018,0.0012574635751136862,-0.023126261664245057
