x,y,v_x,v_y,omega
2.375,32.48,0.0,3.948717948717949,-4.571428571428571
2.3737468278296765,31.740012812144673,-0.013191286003404093,3.8406208708117733,-4.220847329383087
2.3702073689455925,31.020056973682195,-0.02406617593432403,3.7378616393195734,-3.910970857278799
2.364784457480108,30.319157400157117,-0.03301710264972402,3.6400286083128237,-3.635745851987309
2.3578131889960665,29.636413108603655,-0.0403646708664996,3.546753408039406,-3.390175316668213
2.3495732014374657,28.970989559767176,-0.04637204027666989,3.45770500076563,-3.170110125876308
2.3402985219997876,28.32211203122325,-0.05125616433046477,3.37258477338098,-2.972086193738616
2.330185506331999,27.689059845521292,-0.0551966321725729,3.291122444534348,-2.7931963157280846
2.319399272755977,27.071161314361447,-0.05834266862765904,3.2130726203061575,-2.6309886006434327
2.3080789419584598,26.467789287544083,-0.06081870818831176,3.1382118725081787,-2.483385454985407
2.2963419232141806,25.878357216595543,-0.06272885754094439,3.066336242739611,-2.3486185690294414
2.284287435543137,25.302315659350512,-0.06416048636477516,2.997259096681787,-2.2251764462403
2.2719994119454245,24.73914916460653,-0.06518713045325342,2.9308092690443153,-2.1117618276503674
2.2595489038593324,24.188373486143284,-0.06587084940034901,2.86682945162146,-2.00725696864167
2.2469960789671735,23.649533083555724,-0.06626414946447973,2.805174786142297,-1.9106951823254426
2.2343918867463395,23.122198873951305,-0.06641155812324674,2.7457116307463343,-1.8212374106431382
2.221779451481432,22.60596620395133,-0.06635091834946626,2.6883164745165775,-1.7381528496546883
2.2091952408823623,22.10045301587347,-0.06611445637758023,2.632874978934561,-1.6608028597403688
2.1966700492885565,21.60529818565167,-0.06572966566248216,2.5792811286633466,-1.5886275496444264
2.1842298271462597,21.120160013121364,-0.06522004109853517,2.5274364769187923,-1.5211345465249908
2.1718963826162603,20.644714847878284,-0.06460569079619573,2.477249473008369,-1.4578895606987399
2.1596879764895824,20.178655836098585,-0.06390384737936054,2.4286348615147877,-1.3985084297631736
2.1476198278168095,19.72169177555893,-0.06312929654456544,2.3815131441657593,-1.342650386906576
2.1357045446047076,19.27354606767401,-0.06229473726703314,2.3358100967281867,-1.2900123460134256
2.123952491455172,18.833955756721885,-0.06141108535965478,2.2914563343468024,-1.2403240343410078
2.1123721040013104,18.402670647591776,-0.06048772994415678,2.2483869196543127,-1.1933438341532938
2.1009701583432765,17.979452494393897,-0.05953275066672306,2.2065410087444324,-1.1488552193492225
2.0897520023308154,17.564074253142287,-0.058553102096026384,2.1658615307462115,-1.1066636930537883
2.078721754423559,17.156319392479023,-0.05755477061193589,2.126294897288127,-1.0665941483174026
2.06788247493882,16.75598125706871,-0.05654290817479039,2.0877907386098933,-1.028488587247616
2.0572363137336853,16.362862478869967,-0.055521946616098994,2.050301663482152,-0.9922041446715892
2.0467846377346794,15.976774431997367,-0.05449569547870307,2.0137830404399577,-0.9576113712667451
2.036528141200708,15.597536727332823,-0.0534674259315186,1.9781927981341845,-0.9245927383725838
2.0264669411645593,15.224976743438095,-0.052439942870051034,1.9434912428629527,-0.8930413327046255
2.016600660129543,14.858929190667059,-0.051415646972224754,1.909640891569003,-0.8628597141681754
2.006928497788533,14.499235705683557,-0.050396588196301606,1.8766063187836672,-0.8339589141045921
1.9974492932724486,14.145744473863154,-0.0493845119730082,1.8443540161679357,-0.8062575547484433
1.9881615792158802,13.798309877299484,-0.04838089914876277,1.8128522634496296,-0.7796810735534315
1.979063628742212,13.456792166351615,-0.047387000574060395,1.7820710096858488,-0.754161038457962
1.9701534963136573,13.12105715286151,-0.04640386709493656,1.7519817638942028,-0.7296345421887306
1.961429053258461,12.790975923342849,-0.04543237559134071,1.722557494196975,-0.7060436654087517
1.9528880186742934,12.466424570596576,-0.044473251610425445,1.6937725347111472,-0.6833349999588336
1.9445279863104041,12.147283942346927,-0.04352708906209234,1.6656024994956777,-0.6614592246628903
1.9363464479487769,11.833439405615835,-0.04259436737608832,1.6380242029368977,-0.6403707272040879
1.9283408137341183,11.52478062566545,-0.04167546646242403,1.6110155860145234,-0.62002726646065
1.9205084298422126,11.221201358439242,-0.04077067976816242,1.5845556479455505,-0.6003896704420362
1.912846593824421,10.922599255522972,-0.039880225682274194,1.5586243827520416,-0.5814215656087259
1.905352567921621,10.62887568072901,-0.03900425750509572,1.5332027203422882,-0.5630891339090841
1.8980235906025844,10.339935537481797,-0.03814287216897188,1.5082724717336313,-0.5453608943390144
1.8908568865487774,10.055687106249508,-0.03729611787110405,1.483816278079945,-0.5282075062362154
1.8838557403907934,9.776042696921092,-0.03640015747609437,1.4598090832717934,-0.5099025502238137
1.8770227182265085,9.50091764947405,-0.03552639162164176,1.4362440477496796,-0.4923963301155243
1.8703536459498182,9.230229395397298,-0.03467436918562522,1.4131059951635203,-0.47564483458975876
1.8638444366481333,8.963898186834577,-0.033843623463689396,1.3903804107598798,-0.45960693611600884
1.8574910931654736,8.701846974329992,-0.03303367635378016,1.368053405077844,-0.4442441718574066
1.8512897099264845,8.44400129124676,-0.03224404195136965,1.3461116800088169,-0.4295205434441373
1.8452364741261156,8.19028914442696,-0.031474229631459426,1.3245424970417317,-0.415402333804513
1.8393276663761875,7.940640910692601,-0.03072374668357269,1.3033336475304547,-0.4018579394323971
1.8335596608882958,7.694989238817978,-0.029992100557394444,1.2824734248340015,-0.38885771663942065
1.827928925262259,7.453268956630442,-0.029278800769306952,1.261950598192695,-0.3763738404908022
1.8224320199403792,7.2154169829217345,-0.02858336051363774,1.2417543882147457,-0.36438017525696986
1.8170655973799827,6.981372243874819,-0.0279052980168531,1.2218744438580282,-0.3528521553316612
1.8118264009899143,6.751075593732196,-0.02724413766807624,1.202300820801183,-0.34176667567254315
1.806711263870714,6.52446973945095,-0.026599410955085723,1.1830239611066677,-0.3311019909142237
1.8017171073930098,6.3014991691076325,-0.02597065723127249,1.1640346740861311,-0.32083762238718105
1.7968409396441354,6.082110083832326,-0.025357424335828223,1.145324118285525,-0.3109542723508123
1.7920798537690006,5.8662503330663895,-0.02475926908664239,1.1268837845138098,-0.3014337448155414
1.78743102622779,5.653869352952306,-0.024175757662944733,1.1087054798449745,-0.29225887238864057
1.7828917149900132,5.4449181076768305,-0.02360646589259837,1.0907813125284604,-0.2834134486319079
1.7784592576817932,5.239349033600568,-0.023050979457085265,1.0731036777479848,-0.27488216546731375
1.7741310697009385,5.037115986018051,-0.02250889402559592,1.0556652441732521,-0.266650555209786
1.7699046423123272,4.838174188402544,-0.021979815328208696,1.0384589412531589,-0.25870493684500845
1.7657775407343421,4.642480183999222,-0.021463359176895014,1.021477947202872,-0.2510323662049198
1.761747402225548,4.449991789639089,-0.02095915144199219,1.0047156776406254,-0.24362058972495418
1.75781193417943,4.2606680516540685,-0.020466827990826334,0.9881657748332618,-0.23645800149532928
1.753973224253195,4.074671410300567,-0.019940644916913115,0.9696936078351704,-0.2718410846651902
1.7502304378806905,3.8921744867859793,-0.01945710637260565,0.951326639686791,-0.3085496973922549
1.746575590712101,3.7131575501688516,-0.019014969086232396,0.9330621668092884,-0.3464817739055654
1.7430009371870137,3.537601373335555,-0.018612962756791068,0.914897589330659,-0.38553699669662433
1.739498975309777,3.365487213589848,-0.018249793845702418,0.8968304079925888,-0.42561657394219987
1.736062450741076,3.1967967937963415,-0.017924148982727428,0.8788582214127467,-0.4666230192587428
1.732684360276716,3.031512284010706,-0.01763469801053774,0.860978723699191,-0.508459932838476
1.7293579547802,2.8696162835297407,-0.01738009668962791,0.8431897024162129,-0.5510317830020829
1.7260767416318434,2.711091803294348,-0.01715898908254664,0.8254890369036991,-0.5942436871799832
1.7228344867537926,2.555922248577769,-0.016970009633777986,0.8078746969550247,-0.6380011913030083
1.7196252162674792,2.404091401890188,-0.016811784958997173,0.7903447418616156,-0.6822100465433268
1.7164432178376652,2.2555834060289435,-0.01668293535483307,0.772897319835706,-0.7267759822970911
1.713283041755378,2.110382747201033,-0.01658207603766366,0.7555306678265065,-0.7716044742407102
1.7101395018106542,1.9684742381413542,-0.016507818117323055,0.7382431117490668,-0.8166005062220576
1.7070076760051651,1.8298430011459779,-0.016458769308878053,0.7210330671496201,-0.8616683246652687
1.7038829071544552,1.6944744509348233,-0.016433534382806453,0.703899040336233,-0.9067111840719776
1.7007608034297492,1.5623542772520054,-0.016430715350941556,0.6868396300092373,-0.9516310820916107
1.6976372388900818,1.4334684271050584,-0.016448911382398866,0.6698535294323087,-0.9963284825073112
1.6945083540569228,1.3078030865357206,-0.01648671844032805,0.6529395291922989,-1.0407020243407066
1.6913705565855564,1.185344661805054,-0.016542728626687316,0.6360965206041841,-1.0846482151164214
1.688220522090286,1.066079759864099,-0.016615529218264716,0.6193234998269225,-1.1280611061442878
1.6850551951841337,0.9499951679676926,-0.016703701372810624,0.6026195727668227,-1.1708319474719087
1.6818717907981804,0.837077832273387,-0.016805818479329427,0.5859839608574422,-1.21284881993092
1.6786677958511274,0.7273148352490928,-0.016920444121228978,0.569416007819324,-1.2539962414455605
1.6754409713461804,0.620693371691921,-0.017046129615055725,0.5529151875193424,-1.294154744490928
1.6721893549800693,0.5172007231360851,-0.01718141108085146,0.5364811130684164,-1.3332004212802888
1.6689112643580875,0.41682423039934946,-0.017324805992639844,0.5201135473182406,-1.3710044329268327
1.6656053009196263,0.31955126398453615,-0.01747480914905503,0.5038124149429236,-1.4074324784680017
1.662270354690988,0.22536919201451155,-0.01762988799450853,0.48757781632046954,-1.442344219265397
1.658905609996524,0.13426534533513745,-0.0177884772103747,0.47141004346239584,-1.4755926539098774
1.6555105522756297,0.046226979369805576,-0.017948972483249292,0.4553095982779391,-1.5070234383855463
1.6520849761721221,-0.03875876774935705,-0.01810972334314562,0.4392772135027114,-1.5364741459027191
1.6486289950844417,-0.12070492131582711,-0.018269024948228733,0.4233138766706674,-1.563773460536731
1.6451430523903339,-0.19962472106801954,-0.018425108673960192,0.4074208575629091,-1.5887402986640966
1.6416279345887386,-0.27553167780104815,-0.018576131342832078,0.39159973962684197,-1.6111828522557932
1.6380847866351433,-0.3484396363783162,-0.018720162905537584,0.37585245592338284,-1.6308975484962924
1.6345151297854368,-0.4183628460625002,-0.018855172354531182,0.3601813302259521,-1.6476679211335694
1.6309208823083172,-0.4853160392100193,-0.01897901161515013,0.34458912395846675,-1.6612633907047554
1.6273043834788723,-0.5493145195087976,-0.01908939711584813,0.32907908971288813,-1.6714379537282884
1.6236684213278234,-0.6103742610826757,-0.019183888684666018,0.3136550321173976,-1.6779287856992537
1.6200162646946041,-0.6685120199311001,-0.0192598653492214,0.29832137681338167,-1.6804547701410677
1.6163517002215606,-0.7237454593083399,-0.019314497524921773,0.2830832482102108,-1.6787149773343923
1.6126790750365385,-0.7760932907528968,-0.01934471494899357,0.26794655646936943,-1.6723871335483218
1.6090033460103692,-0.8255754325230384,-0.0193471695369983,0.2529180937426673,-1.661126147416532
1.6053301366575186,-0.8722131871266754,-0.019318192071958066,0.23800563892717436,-1.6445627986226656
1.6016658029937312,-0.91602943937108,-0.019253741231067236,0.22321806890868467,-1.6223027512993455
1.5980175100086476,-0.9570488757717968,-0.01914934282244289,0.20856547215149224,-1.593926139308426
1.5943933209115022,-0.9952982250519469,-0.01900001609487688,0.19405925711328037,-1.5589880956299544
1.5908023020597928,-1.0308065175314738,-0.01880018234416804,0.17971224267120534,-1.517020781670933
1.5872546476446037,-1.063605357999002,-0.01854354834203446,0.1655387096185682,-1.4675377396512812
1.5837618300519312,-1.0937292015226205,-0.018222952633465416,0.15155438010371977,-1.4100417753665595
1.5803367848014203,-1.1212156136805547,-0.017830155266647645,0.13777627419029054,-1.3440381180048209
1.5769941438455848,-1.1461054847191576,-0.017355539005304486,0.1242223683213051,-1.2690553305921726
1.5737505390662756,-1.168443149942341,-0.016787669197949624,0.11091094981743137,-1.1846773505510706
1.570625011125961,-1.188276345552893,-0.016112624910626507,0.09785953029365711,-1.0905909882176108
1.5676395808146384,-1.2056559018884343,-0.015312957313821098,0.08508316797519666,-0.9866537423047348
1.5648200761290973,-1.2206350525979062,-0.014366039376086274,0.07259210265084741,-0.8729857426433247
1.5621973675623002,-1.2332682413814737,-0.013241419221777968,0.06038883191302777,-0.7500845603437991
1.559809263922827,-1.2436093881794505,-0.011896513825309063,0.04846534490780118,-0.6189484561914191
1.557703507736215,-1.2517098306463126,-0.010269340770606303,0.03680247053287613,-0.48116822272959237
1.5559427519279083,-1.2576167524566202,-0.008264930895779472,0.02537565378616268,-0.3389127176029766
1.554613874975127,-1.2613742602305464,-0.005723247554550044,0.014177059623579683,-0.19470908823859015
1.553851535843149,-1.2630340204735475,-0.0023013748873237237,0.0032941008290365715,-0.0509491476513349
