x,y,v_x,v_y,omega
2.375,32.48,0.0,2.923076923076923,-5.3061224489795915
2.3738505834522745,31.902041403580085,-0.011494165477257116,2.8565090411222065,-4.981632184922319
2.3705652545341276,31.337134769143994,-0.02135912370421099,2.7925573032387043,-4.686703910330855
2.365447779063842,30.784773778701098,-0.029815630998646037,2.7310526011902394,-4.417825595827707
2.3587610288186194,30.244484381277825,-0.03705187145357659,2.671841373042483,-4.171981340179008
2.350732963100919,29.715821878849116,-0.04322878572343031,2.6147836512446236,-3.946571066983525
2.3415616414324445,29.198368370840925,-0.04848443096131364,2.55975142883729,-3.7393448491367107
2.3314194415663914,28.691730499911014,-0.05293756769921791,2.5066272804618084,-3.5483488934545133
2.32045662224452,28.19553745292373,-0.05669062551949658,2.4553031894110426,-3.3718808835532004
2.308804343058187,27.709439179701953,-0.05983216634383262,2.4056795428067366,-3.2084528807188284
2.2965772325160043,27.23310479890708,-0.062438939077994866,2.357664265141974,-3.0567603641911436
2.283875578598138,26.76622116573133,-0.0645776001006659,2.3111720666155398,-2.915656285306743
2.2707872026700135,26.308491580327377,-0.06630615918057707,2.2661237874239757,-2.784129236738698
2.2573890668747283,25.85963461930117,-0.06767519877227914,2.222445822838098,-2.661285014927011
2.243748656448317,25.41938307534308,-0.0687289054918289,2.1800696167427978,-2.5463309926706144
2.229925171366157,24.987482992312906,-0.06950594532977537,2.13893121355895,-2.4385628286058076
2.215970555994414,24.563692784933068,-0.07004020838765332,2.0989708602394233,-2.337353127553304
2.2019303907256442,24.147782433764583,-0.07036144430004478,2.060132651445462,-2.2421417354737536
2.187844665717673,23.73953274740543,-0.07049580577966476,2.0223642121460386,-2.1524274088291393
2.17374845366888,23.338734684910605,-0.07046631470826648,1.9856164128021927,-2.067760643414856
2.159672495923545,22.945188732325654,-0.07029326274508663,1.9498431130473384,-1.987737484448742
2.145643714006706,22.55870432798206,-0.06999455642330418,1.915000930388605,-1.911994169620747
2.1316856568579183,22.17909933184711,-0.06958601506456955,1.8810490309609,-1.8402024812803122
2.1178188925022576,21.806199534772436,-0.06908162849203851,1.847948939785833,-1.7720657040359382
2.104061351612244,21.439838203959994,-0.06849378040809645,1.8156643683385643,-1.7073151006058132
2.0904286293334344,21.079855661374125,-0.06783344237999903,1.784161057520111,-1.6457068324585957
2.0769342508344586,20.726098892184012,-0.0671103426097586,1.753406634381017,-1.5870192631525382
2.063589905270934,20.37842118063063,-0.0663331130254867,1.723370481152802,-1.5310505917458255
2.050405652198659,20.036681770983066,-0.06550941769726351,1.6940236153228532,-1.4776167715544217
2.0373901039156337,19.700745551486605,-0.06464606513299369,1.6653385796417277,-1.4265496761527314
2.024550586738971,19.370482759414088,-0.06374910663363303,1.637289341083473,-1.377695480071398
2.011893283818566,19.04576870551643,-0.0628239225704147,1.6098511978930825,-1.3309132263280061
1.9994233617435975,18.72648351633178,-0.06187529817927058,1.5830006939534238,-1.2860735568792003
1.9871450829015371,18.41251189295751,-0.0609074902413344,1.5567155397892702,-1.2430575854286505
1.9750619052947558,18.103742885018544,-0.05992428582647733,1.5309745396003878,-1.2017558948644786
1.9631765713007385,17.800069678680448,-0.05892905411369533,1.5057575237805858,-1.1620676440146525
1.9514911866730462,17.50138939765873,-0.057924792163229204,1.481045286436586,-1.1238997704675853
1.9400193272644586,17.20760575406592,-0.05679380192264487,1.4567911494915133,-1.0836590172708869
1.9287726264985707,16.918625863368185,-0.055673205736233834,1.4330077574858193,-1.04524918007106
1.9177488739547401,16.634357252907222,-0.05456431970207197,1.4096783471238448,-1.0085653249596387
1.9069456161943836,16.354710726150447,-0.053468257901495043,1.3867869204438956,-0.9735096719193275
1.8963601948209723,16.079600214031142,-0.05238595583261781,1.3643182007491417,-0.9399910295799864
1.885989780119682,15.808942634799209,-0.05131819118028452,1.3422575915701793,-0.9079242805983301
1.8758314007780763,15.542657761800633,-0.050265602235772026,1.3205911384155813,-0.8772299126031012
1.8658819701304217,15.280668098650157,-0.049228704240774676,1.2993054930891976,-0.8478335902043497
1.8561383093166954,15.022898761303928,-0.048207903896488644,1.2783878803730786,-0.8196657640554339
1.846597167702119,14.769277366577327,-0.04720351224927772,1.2578260668929335,-0.7926613133881509
1.837255240863307,14.519733926688108,-0.04621575613884208,1.23760833199925,-0.7667592188224865
1.8281091864121715,14.274200749437004,-0.045244788372512244,1.2177234405117876,-0.741902262589291
1.8191556378979388,14.032612343666994,-0.04429069676981237,1.1981606171883157,-0.7180367536023075
1.8103912170005172,13.794905329669128,-0.04335351220440322,1.1789095227903306,-0.6951122750802099
1.801812544204517,13.561018354227173,-0.042433215755601564,1.159960231629216,-0.673081452653823
1.7934162481220968,13.33089201001565,-0.041529745068600694,1.1413032104860221,-0.65189974110211
1.7851989736141318,13.104468759086362,-0.04064300001104653,1.1229292988068331,-0.6315252280459737
1.7771573888426726,12.881692860197312,-0.039772847703548095,1.104829690083672,-0.6119184530941567
1.7692881913730334,12.66251029975513,-0.03891912699284144,1.086995914338147,-0.5930422410829332
1.7615881134308966,12.44686872615815,-0.03808165242852778,1.069419821631631,-0.5748615481829416
1.7540539264083002,12.23471738734181,-0.03726021779743565,1.0520935665317717,-0.5573433197642392
1.7466824447021971,12.026007071341574,-0.03645459926359719,1.0350095934705918,-0.5404563590160566
1.7394705289601893,11.82069004970107,-0.03566455815647982,1.0181606229344433,-0.5241712054121892
1.7324150888000025,11.618720023564563,-0.03488984344538832,1.0015396384306219,-0.5084600221977265
1.7255130850620863,11.420052072303537,-0.03413019393377304,0.9851398741796271,-0.49329649214894433
1.7187679784663772,11.224826314229627,-0.03332087202331846,0.9671177065594768,-0.5153367506615706
1.712180451198671,11.033193748368738,-0.03255440065374382,0.9492079520493979,-0.5391018474281233
1.7057420295097314,10.84513219631577,-0.03182981623565043,0.931407568480298,-0.5644789280909014
1.699444437635397,10.660620075992696,-0.031146102507694277,0.9137136347504513,-0.5913577419268383
1.69327960775483,10.479636377879064,-0.03050219629797547,0.8961233463858556,-0.6196303933774682
1.6872396888481824,10.302160642089106,-0.029896992768501753,0.8786340115137405,-0.6491910994280653
1.681317054553448,10.128172936213996,-0.029329350178842424,0.8612430472373729,-0.6799359518202311
1.6755043101153912,9.957653833849957,-0.028798094201725053,0.8439479764030267,-0.7117626830935132
1.6697942985132046,9.790584393734381,-0.028302021820141403,0.8267464247527284,-0.7445704354555566
1.664180105847941,9.626946139413189,-0.027839904832494863,0.8096361184591844,-0.7782595314766924
1.6586550660657502,9.466721039363051,-0.027410492989414434,0.7926148820421817,-0.8127312455935692
1.6532127650885031,9.309891487491956,-0.027012516783055312,0.7756806366687704,-0.8478875753871565
1.6478470444194997,9.156440283940807,-0.026644689906978596,0.7588313988427142,-0.8836310115728413
1.642552004288599,9.006350616107326,-0.02630571140202787,0.7420652794920943,-0.9198643056039556
1.637322006398299,8.859606039811357,-0.025994267500972834,0.7253804834676119,-0.9564902337443799
1.6321516763299972,8.716190460517783,-0.025709033182043775,0.7087753094681175,-0.9934113564102548
1.627035905667912,8.576088114529544,-0.02544867343880758,0.6922481504142703,-1.0305297715145876
1.6219698538969207,8.439283550058512,-0.025211844271107814,0.6757974942960572,-1.067746860470865
1.6169489501299121,8.305761608076377,-0.024997193398976488,0.6594219255252851,-1.1049630254218081
1.6119688947201656,8.175507402840832,-0.024803360698490432,0.6431201268301767,-1.1420774161561795
1.607025660814771,8.048506301984219,-0.024628978355454467,0.6268908817359694,-1.178987645059089
1.6021154959062747,7.924743906042316,-0.02447267072950669,0.6107330776830678,-1.2155894883085219
1.5972349234415528,7.8042060272897125,-0.024333053917714443,0.5946457098429697,-1.2517765713818683
1.59238074454949,7.686878667735211,-0.024208735002914337,0.5786278857020385,-1.2874400367701877
1.5875500399524092,7.572747996115563,-0.024098310967891293,0.5626788304944288,-1.3224681916141587
1.5827401721304273,7.461800323708292,-0.024000367251929135,0.5467978935782793,-1.3567461327738857
1.5779487878131113,7.354022078764071,-0.02391347592122964,0.530984555863926,-1.3901553466253171
1.5731738208790775,7.249399779335718,-0.023836193419109586,0.515238438419604,-1.4225732806403202
1.568413495751601,7.147920004253837,-0.02376705785565642,0.49955931239919643,-1.453872883558217
1.5636663313870804,7.049569361968082,-0.023704585789548576,0.48394711045834865,-1.483922110698772
1.558931145963435,6.9543344569372465,-0.023647268446904728,0.4684019398500142,-1.5125833907082658
1.5542070623874273,6.862201853210394,-0.023593567313173074,0.452924097418524,-1.5397130497840517
1.5494935147537068,6.773158034794257,-0.023541909024033407,0.43751408674282954,-1.5651606892079888
1.5447902559043187,6.687189362348494,-0.023490679469846464,0.42217263771480507,-1.5887685118640105
1.5400973662558264,6.604282025689276,-0.023438217015076347,0.4069007288773679,-1.6103705933618584
1.5354152640824208,6.524421991512607,-0.023382804718980306,0.3916996128893184,-1.6297920934991255
1.5307447174678992,6.4475949456708435,-0.023322661426234795,0.3765708455283196,-1.6468484041563054
1.5260868581677363,6.373786229249156,-0.023255931575396575,0.3615163186885731,-1.661344230463388
1.5214431976553708,6.302980767593056,-0.02318067354825795,0.34653829787241813,-1.673072603387568
1.5168156456652553,6.2351629913348035,-0.023094846352895375,0.3316394647100987,-1.681813824037833
1.5122065315904147,6.170316748357699,-0.022996294395511284,0.3168229650609422,-1.687334343349878
1.5076186291460687,6.108425205527716,-0.022882730047949645,0.3020924632388867,-1.689385585961152
1.5030551847758489,6.049470738919332,-0.02275171365424857,0.28745220284496587,-1.687702734815264
1.4985199503570976,5.993434811180133,-0.022600630533264245,0.27290707454701213,-1.6820035045096808
1.49401722086244,5.940297834638081,-0.02242666441331159,0.2584626908735068,-1.671986948300979
1.4895518777651349,5.89003901878975,-0.02222676655974114,0.24412546760981002,-1.657332368436804
1.4851294391495207,5.842636200969885,-0.021997619596399284,0.22990271058883283,-1.6376984355989552
1.4807561177272262,5.798065659372291,-0.021735594626546006,0.21580270538710639,-1.6127226757588433
1.4764388883000163,5.7563019082911815,-0.021436699645551876,0.20183480542399507,-1.5820215588608884
1.472185566708333,5.717317476662977,-0.02109651627128144,0.18800951085803955,-1.5451915335979087
1.468004903053579,5.681082672979748,-0.020710120276260242,0.1743385259742548,-1.5018115100766916
1.4639066931335827,5.647565342804558,-0.020271978923702604,0.1608347757776585,-1.4514475158138653
1.4599019138321476,5.616730629986158,-0.019775814090646774,0.14751235240634528,-1.3936605627197334
1.4560028910592915,5.5885407599569845,-0.019214413637916213,0.1343863478853759,-1.328019186395386
1.452223513404565,5.56295487404433,-0.018579362909348286,0.12147251124116541,-1.2541186657386367
1.4485795119953897,5.53992895828663,-0.017860651182404805,0.10878664633583235,-1.1716095705508218
1.4450888388135175,5.5194159288829745,-0.017046080636317087,0.09634364770073683,-1.0802388771368525
1.44177219451104,5.501365956989844,-0.01612036238845656,0.08415607123057224,-0.9799070446656586
1.4386537865973956,5.48572713066477,-0.015063716747985637,0.07223219202014894,-0.8707432641882696
1.4357624462464154,5.472446542735309,-0.013849686761817512,0.060573687274476096,-0.7531968520109623
1.4331333095094845,5.461471821491557,-0.012441680607493313,0.04917352516304478,-0.6281328210366444
1.4308104099945629,5.452752916821481,-0.01078731454172243,0.03801552153771233,-0.49690172060511234
1.428850853486476,5.446243502325263,-0.008808250539146972,0.027078623424484218,-0.36133026631893694
1.4273322546011245,5.4419003895871185,-0.006377738314365809,0.016352503956947775,-0.22356361098598868
1.4263696380967148,5.439676420859211,-0.0032484267297322837,0.0058871833221383445,-0.08570677486582634
