x,y,v_x,v_y,omega
2.375,32.48,0.0,2.6153846153846154,-7.142857142857143
2.373508786773406,31.936812618438758,-0.014202030729465824,2.5578285423414737,-6.728772877026466
2.3692354028868388,31.405480062346044,-0.02649686342831896,2.502481515684377,-6.350369436974099
2.3625545702472843,30.885553865221482,-0.03713011409124536,2.4491965521685723,-6.003596589554344
2.3537930985595987,30.376614892061298,-0.04631247341052343,2.397841287452234,-5.684957437896237
2.3432366292559603,29.878270482322794,-0.0542253294812718,2.3482959481525922,-5.391420493088198
2.3311353070262104,29.390151981064495,-0.061025358421107935,2.3004516828788275,-5.12034774327815
2.317708573003265,28.9119125907668,-0.06684829894027731,2.2542091770992103,-4.869435422732946
2.303149233667184,28.44322549025969,-0.07181207568906338,2.209477494397087,-4.636664945677224
2.2876269288707243,27.983782177868097,-0.07601939856293509,2.166173099808553,-4.420262036624158
2.2712910986245287,27.53329100415642,-0.07955993711511873,2.1242190307788156,-4.218662515263554
2.2542735296763223,27.091475866109615,-0.08251214810589202,2.083544188714575,-4.030483517974983
2.2366905482217785,26.65807503966772,-0.0849448181278611,2.044082729779648,-3.8544991866312213
2.2186449133777626,26.232840131557612,-0.08691837086276775,2.005773537935683,-3.6896200478013306
2.200227456652285,25.81553513458143,-0.08848597890368486,1.9685597665993664,-3.534875455668139
2.1815185050512045,25.405935573107573,-0.08969451253517483,1.9323884379135763,-3.3893985901098604
2.162589119284938,25.003827727604126,-0.0905853519054577,1.8972100906907012,-3.2524135949673783
2.1435021734853006,24.6090079287616,-0.091195084281566,1.8629784697143013,-3.1232245161234387
2.1243132986866544,24.221281913151735,-0.09155610427697153,1.829650250379649,-3.0012057588672323
2.105071708890693,23.8404642335245,-0.09169713187503971,1.7971847936892336,-2.8857938323012187
2.0858209256824725,23.466377717804583,-0.09164366058420378,1.7655439274528295,-2.776480187708752
2.066599414987786,23.098852971649297,-0.09141834603185792,1.734691750216584,-2.6728049897228647
2.047441147572152,22.73772792010207,-0.09104134364085051,1.7045944549950878,-2.574351685278527
2.0283760932102606,22.382847384442904,-0.09053060266287209,1.6752201703303287,-2.480742256833299
2.009430657046075,22.034062690818175,-0.08990212271032816,1.646538816571818,-2.391633064100933
1.9906280654727762,21.691231307642376,-0.0891701779877537,1.6185219755786764,-2.3067111932677764
1.9719887078518674,21.354216509115176,-0.08834751363994874,1.5911427722993827,-2.225691244916169
1.9535304395319384,21.022887062499457,-0.08744551797842233,1.5643757668979448,-2.1483125021125935
1.935268850895452,20.69711693706639,-0.08647437379763893,1.5381968562741624,-2.074336428692571
1.9172175065360952,20.37678503284006,-0.08544319152956885,1.5125831839765895,-2.003544454980888
1.899388158133096,20.061774927470875,-0.08436012659423209,1.4875130576346938,-1.9357360142609532
1.8818163685693756,19.751982130971008,-0.08299025020310696,1.4628945280783163,-1.8640426157930161
1.8645335119744497,19.447305915332464,-0.08160838403428203,1.4387837160982833,-1.7957521492515582
1.8475416482056388,19.14764164779335,-0.08021888995439339,1.4151616890361685,-1.7306615700119632
1.8308419761273407,18.85288857494571,-0.07882560602939788,1.3920104333223,-1.6685822599762739
1.8144349375961766,18.56294963568581,-0.07743190379121419,1.3693127977243313,-1.6093388390706205
1.798320310091921,18.277731285636122,-0.07604073910645825,1.3470524408441356,-1.552768087860476
1.7824972892587394,17.99714333218649,-0.07465469740003161,1.32521378248572,-1.49871796967195
1.766964562473065,17.721098779377122,-0.07327603389210541,1.3037819585558663,-1.4470467419479949
1.7517203744247252,17.44951368191343,-0.07190670942541716,1.2827427791935857,-1.3976221477395463
1.7367625855842155,17.182307007663344,-0.07054842238896102,1.262082689854867,-1.3503206792565587
1.7220887243292031,16.919400508042443,-0.0692026371825837,1.2417887351060974,-1.3050269063024815
1.7076960334156248,16.660718595741443,-0.06787060961340227,1.2218485249034146,-1.2616328632048763
1.6935815114015527,16.406188229295154,-0.06655340956823672,1.2022502031564777,-1.2200374885490834
1.6797419495640145,16.155738804032346,-0.06525194126546044,1.1829824183940714,-1.1801461126335242
1.6661739647889697,15.909302048982557,-0.0639669613540145,1.1640342963658366,-1.1418699881050132
1.6528740288617056,15.666811929349041,-0.06269909509611851,1.1453954144295393,-1.1051258597095475
1.6398384945381133,15.428204554187325,-0.061448850842855424,1.1270557775868144,-1.0698355695163235
1.6270636187358942,15.19341808895625,-0.06021663298780209,1.1090057960424724,-1.035925694347055
1.6145455831480824,14.962392672633584,-0.05900275356278687,1.0912362641733804,-1.0033272124749262
1.6022805125487527,14.73507033911109,-0.057807442621305424,1.073738340802756,-0.9719751969528584
1.5902644910319426,14.51139494260492,-0.0566308575387909,1.0565035306845862,-0.9418085331936216
1.5784935763991934,14.291312086836395,-0.0554730913445355,1.0395236671108876,-0.9127696586585893
1.566963812888345,14.074769057755766,-0.05433418018735385,1.0227908955617702,-0.8848043227209645
1.5556712424159582,13.861714759597675,-0.05321411002585448,1.0062976583248273,-0.8578613649560585
1.544611914487696,13.652099654071854,-0.05211282262426102,0.9900366800163227,-0.8318925102782522
1.5337917422782241,13.446030379978321,-0.050936436513567405,0.9725278351601726,-0.8362978403235227
1.5232140767617637,13.243625148340893,-0.0498032350717702,0.9551410375772442,-0.842972411621359
1.5128699075312086,13.044858698441956,-0.048712662362086344,0.9378727709840645,-0.8517876447646142
1.502750350122016,12.849706492590727,-0.04766407486831863,0.9207196656943105,-0.8626187801076922
1.4928466635227444,12.658144686012989,-0.04665674988665047,0.9036784921888991,-0.8753445854843884
1.4831502659961182,12.470150098037355,-0.04568989322407465,0.8867461551980829,-0.8898470749235661
1.4736527493509066,12.285700184473086,-0.04476264625413285,0.8699196882711455,-0.9060112371667448
1.4643458917946934,12.104773011079313,-0.04387409237646703,0.8531962488124105,-0.9237247728404411
1.4552216694882714,11.927347228029657,-0.0430232629227911,0.8365731135652883,-0.9428778391766933
1.446272266913812,11.753402045279756,-0.04220914254825179,0.8200476745290127,-0.9633628012079443
1.4374900861611537,11.58291720874817,-0.041430674143732915,0.8036174352955956,-0.9850739883875497
1.4288677552294102,11.415872977223408,-0.04068676330144212,0.7872800077973862,-1.0079074556047987
1.4203981354346356,11.252250099911542,-0.03997628236307765,0.7710331094584925,-1.0317607475735298
1.4120743280084294,11.092029794540046,-0.03929807407698198,0.7548745607462374,-1.0565326655762137
1.4038896799671141,10.9351937259339,-0.03865095488792586,0.7388022831218198,-1.0821230355406934
1.3958377893264284,10.781723984979898,-0.038033717880508036,0.7228142973924644,-1.1084324764144644
1.3879125097325442,10.631603067894275,-0.037445135394580595,0.7069087224706179,-1.135362167781284
1.3801079545766106,10.484813855707191,-0.036883961328595546,0.6910837745492262,-1.1628136156367135
1.3724185006569574,10.341339593875407,-0.03634893314429219,0.6753377667058542,-1.1906884152026473
1.3648387914505198,10.201163871931286,-0.03583877358368457,0.6596691089524432,-1.218888009615562
1.3573637400530147,10.06427060307233,-0.03535219210684005,0.6440763087519032,-1.2473134432687523
1.3499885318458704,9.930644003590487,-0.03488788605643903,0.628557972027569,-1.2758651085247432
1.342708626946927,9.800268572034419,-0.03444454155254624,0.6131128046968956,-1.3044424844399707
1.33551976250148,9.67312906799074,-0.034020834118377585,0.5977396147667051,-1.3329438660592567
1.3284179548703667,9.549210490361673,-0.033615429035083425,0.5824373150339323,-1.3612660827422698
1.321399501772514,9.428498055006571,-0.03322698142065702,0.5672049264432394,-1.3893042038778058
1.3144609844407222,9.310977171603103,-0.032854136024979115,0.5520415821612226,-1.4169512302244018
1.3075992698514822,9.196633419570361,-0.03249552672968728,0.5369465324363247,-1.4440977689878394
1.3008115130923785,9.085452522880509,-0.032149775737966894,0.5219191503241634,-1.4706316906084327
1.2940951599341697,8.977420323567632,-0.031815492435449635,0.5069589383699201,-1.496437765085261
1.28744794967904,8.872522753721736,-0.0314912718991177,0.49206553635289574,-1.5213972755135132
1.2808679183618625,8.770745805732268,-0.031175693026381714,0.4772387302134664,-1.5453876063592302
1.2743534023877112,8.672075500518389,-0.03086731625124992,0.4624784622996551,-1.568281803849614
1.2679030426964224,8.57649785345253,-0.030564680808642646,0.4477848430894809,-1.5899481057265688
1.2615157895538767,8.483998837648677,-0.030266301501317094,0.43315816456626904,-1.6102494375105854
1.2551909080800152,8.394564344247264,-0.02997066491641158,0.418598915447195,-1.6290428723721082
1.2489279846356298,8.30818013928382,-0.02967622503011675,0.40410779849035955,-1.6461790517376158
1.2427269342039018,8.224831816678442,-0.029381398129197576,0.3896857501322858,-1.6615015639096278
1.2365880089188317,8.144504746827359,-0.029084556966707992,0.37533396273516284,-1.674846278312933
1.230511807911466,8.067184020216398,-0.02878402405582224,0.36105390975016166,-1.6860406335770326
1.224499288666693,7.992854385409235,-0.02847806398963629,0.3468473741275981,-1.694902878644888
1.2185517801089873,7.921500180691897,-0.02816487465517908,0.33271648032324813,-1.7012412676264537
1.2126709976657255,7.853105258580921,-0.027842577185409823,0.31866373025747285,-1.7048532114259844
1.2068590605927774,7.7876529023288334,-0.027509204461715727,0.3046920435719414,-1.7055243925944203
1.201118511890763,7.725125733492806,-0.027162687938420815,0.29080480248547486,-1.7030278548574305
1.1954523411941433,7.6655056095787835,-0.02680084250557604,0.27700590145760523,-1.697123086002789
1.1898640110829186,7.608773510747373,-0.02642134902989782,0.26329980169867556,-1.6875551232053418
1.184357487353712,7.554909414589769,-0.026021734105402965,0.2496915902785061,-1.6740537247337497
1.1789372739018782,7.503892158082632,-0.025599346388252238,0.23618704312280278,-1.656332673166976
1.173608453022003,7.455699286056266,-0.02515132865817765,0.22279269046162156,-1.6340893053443168
1.1683767321508916,7.410306885928538,-0.0246745844000273,0.20951588218339104,-1.6070044069021354
1.1632484983862872,7.367689409167387,-0.024165737167633598,0.19636484887517786,-1.5747426694136022
1.1582308825653902,7.327819481091204,-0.02362108017424185,0.18334875185038027,-1.5369539926215294
1.1533318353572422,7.290667702402612,-0.02303651228431174,0.17047771185050606,-1.493276031937609
1.1485602188343242,7.256202448559279,-0.022407454600619856,0.1577628009431463,-1.4433385533161922
1.143925918533483,7.224389677089739,-0.02172873874072677,0.1452159749572415,-1.3867703760323165
1.1394399833958428,7.195192758726872,-0.020994453046321252,0.132849914212908,-1.323209968871235
1.135114804658455,7.168572356256661,-0.020197725404992442,0.12067772836052243,-1.2523211159118037
1.1309643504772686,7.1444863856255445,-0.019330409653925594,0.10871246812630186,-1.1738154526655336
1.1270044818799458,7.122890106898495,-0.01838262460629092,0.09696637689320234,-1.0874839874982012
1.1232533891933165,7.103736406356184,-0.01734206764732222,0.08544981874786031,-0.9932397118292078
1.1197322087504937,7.086976340188706,-0.0161929841890853,0.07416985903765207,-0.891172532303245
1.116465911168736,7.072560003032251,-0.014914611827653596,0.06312859007142327,-0.7816150678402166
1.1134846017159257,7.060437737742507,-0.013478811532444472,0.052321555545194375,-0.6652119488564439
1.1108254576528118,7.050561576396436,-0.011846370021019773,0.04173712394120257,-0.5429749234085323
1.1085357033668837,7.042886534076008,-0.00996081365448594,0.03135851720572819,-0.41629229950459035
1.1066775041548047,7.037370848138597,-0.007736321698646638,0.021171825055312975,-0.2868503904182377
1.1053374020302111,7.033972999727212,-0.005026555678434248,0.01118863600551032,-0.15642849469455117
1.1046525257040674,7.032637619665813,-0.0014960759991260023,0.001529269341129652,-0.026577820609517883
