x,y,v_x,v_y,omega
2.375,32.48,0.0,2.1538461538461537,-3.1020408163265305
2.3746272252365355,32.095746644010084,-0.00414194181627271,2.115635579375056,-2.9679637604360005
2.373548428449566,31.718282609488817,-0.007844689150052602,2.078409248639071,-2.8420607556042206
2.371838843403851,31.34743466684861,-0.011150700246781593,2.0421234473632257,-2.723661708516398
2.3695664610496063,30.983037215824467,-0.014097992578158096,2.0067371195717048,-2.6121628352884105
2.3667927825620025,30.62493182640766,-0.01672065728411008,1.9722116517261208,-2.5070191090117606
2.3635734857209165,30.272966816597723,-0.01904930761684296,1.938510679495414,-2.407737676374621
2.3599590156684602,29.926996863164696,-0.02111147074378339,1.9055999142048936,-2.313872105029996
2.3559951095292835,29.586882642103948,-0.0229319308026232,1.8734469864700882,-2.2250173451741
2.351723263066919,29.25249049588081,-0.024533029890314403,1.8420213048981027,-2.1408053068228368
2.3471811464373036,28.923692124915394,-0.025934932660971022,1.811293928050979,-2.0609009692428795
2.342402975154758,28.60036430105959,-0.027155859367311994,1.7812374481246367,-1.9849989514716653
2.3374198415788308,28.28238860107718,-0.028212291476326513,1.7518258850132205,-1.9128204832993418
2.3322600115401375,27.96965115836109,-0.029119153398040904,1.7230345896100272,-1.8441107248482764
2.3269491901312755,27.662042431314788,-0.029889973367091628,1.6948401553488843,-1.7786363902649351
2.3215107601797373,27.359456986992676,-0.03053702609444566,1.6672203371190135,-1.7161836372722326
2.3159659964809007,27.061793298740316,-0.03107145944818155,1.6401539767960838,-1.656556189611098
2.3103342584900144,26.76895355670336,-0.031503407117224234,1.613620934725672,-1.5995736638860525
2.304633163843814,26.480843490186263,-0.03184208895166926,1.5876020265753854,-1.5450700761507097
2.2988787447976,26.19737220094082,-0.03209590045071028,1.5620789650406535,-1.4928925068321368
2.293085589415989,25.918452006551796,-0.03227249267830049,1.5370343059484879,-1.442899905386216
2.2872669691399046,25.6439982931645,-0.03237884372263657,1.5124513983547958,-1.3949620184727778
2.2814349541641827,25.373929376867785,-0.03242132267427124,1.4883143382753645,-1.348958427500238
2.2755997855628927,25.10816803845752,-0.03241388400672711,1.4645894218387217,-1.3036313409625715
2.269769979995506,24.846639670362947,-0.032361733408684465,1.4412813347676487,-1.2602223672067234
2.2639532011524794,24.589270496790856,-0.03226914262494244,1.4183761493666645,-1.2186287734296175
2.2581563773467055,24.335989195688985,-0.03214001077254564,1.395860529543023,-1.1787543662158682
2.252385765565417,24.086726795137114,-0.03197789790843363,1.3737216988110987,-1.1405090084213982
2.2466470097703004,23.841416575310248,-0.03178605537064462,1.3519474103762976,-1.1038081765670384
2.2409451939965614,23.59999397565388,-0.03156745322645184,1.3305259191389214,-1.0685725549441967
2.2352848907450436,23.362396506938843,-0.03132480512374841,1.3094459554725997,-1.0347276630281372
2.2296702051110637,23.128563667888287,-0.03106059080936184,1.2886967006446577,-1.002203513143218
2.2241048150487925,22.898436866092116,-0.03077707654920437,1.2682677637572581,-0.9709342956341221
2.2185920081299857,22.671959342945097,-0.030476333659761393,1.24814916009849,-0.9408580890724434
2.2131347151201903,22.44907610236406,-0.030160255337963633,1.2283312908019093,-0.9119165932731051
2.2077355406636787,22.22973384305696,-0.029830571956613493,1.2088049237214666,-0.8840548831135854
2.20239679133984,22.013880894132754,-0.02948886497492448,1.1895611754363908,-0.8572211813439555
2.1971205013282673,21.8014671538558,-0.029136579598108912,1.170591494307516,-0.831366648750034
2.1919084558968907,21.59244403136197,-0.028775036306073306,1.1518876445128239,-0.8064451901879067
2.186762212907039,21.386764391166203,-0.028405441358943937,1.133441690995679,-0.7824132751477838
2.1816831225108793,21.184382500302796,-0.028028896376164642,1.1152459852644288,-0.7592297716304561
2.1766723452001733,20.985253977950187,-0.027646407076125708,1.0972931519867786,-0.7368557922321314
2.1717308683504117,20.789335747401974,-0.027258891254557317,1.079576076326668,-0.7152545514345552
2.16685952139101,20.596585990254795,-0.026867186072131437,1.0620878919753174,-0.6943912331883297
2.16205898972019,20.406964102692164,-0.026472054714755004,1.0448219698317238,-0.6742328679593184
2.157329827472319,20.2204306537511,-0.026074192483811064,1.027771907291183,-0.6547482184819453
2.1526724692356534,20.036947345465585,-0.025674232368030195,1.0109315181034415,-0.635907673529925
2.1480872408095992,19.856476974787437,-0.02527275014367947,0.994294822764854,-0.6176831490752449
2.143576002179619,19.679209537830555,-0.024852123522771406,0.9753433656449538,-0.6494541514160852
2.1391375365625955,19.505343809220317,-0.02446416111082324,0.9564980633576848,-0.6825337216427605
2.134766040861585,19.334860920576077,-0.024108013344847693,0.9377562549116518,-0.7168153926982553
2.130455869199728,19.167742472906788,-0.023782782898006255,0.9191153858582234,-0.7521942198751012
2.126201541104884,19.003970517675317,-0.023487529266926804,0.9005730056025621,-0.7885665533702579
2.1219977489068627,18.843527538313324,-0.02322127293331257,0.8821267650862649,-0.8258298118468551
2.1178393644216844,18.686396432119736,-0.02298299912422201,0.8637744148424938,-0.8638822560299281
2.1137214449931756,18.532560492475447,-0.02277166119254148,0.845513803427379,-0.9026227613381174
2.109639238958572,18.382003391305872,-0.022586183636386366,0.8273428762345512,-0.9419505885201774
2.105588190601689,18.234709161721497,-0.022425464773426433,0.8092596747029731,-0.9817651512235803
2.1015639446545737,18.09066218076436,-0.02228837908341202,0.7912623359318198,-1.021965779371909
2.097562350406416,17.949847152185693,-0.022173779229453044,0.7733490927200694,-1.0624514771674596
2.093579465476839,17.812249089176134,-0.02208049776584449,0.7555182740527799,-1.1031206744647446
2.089611559309546,17.677853296965914,-0.02200734853741109,0.7377683060608036,-1.1438709701785807
2.0856551164416604,17.5466453552067,-0.021953127772428332,0.7200977134860178,-1.1845988662962226
2.08170683960401,17.41861110004085,-0.021916614868132973,0.7025051216901287,-1.225199490955576
2.0777636527080614,17.29373660575607,-0.021896572864626797,0.6849892592518307,-1.26556630892984
2.0738227037762846,17.17200816591498,-0.02189174859956155,0.6675489612047154,-1.3055908177219004
2.0698813678744146,17.05341227383863,-0.021900872532326112,0.6501831729769524,-1.3451622273183763
2.065937250106481,16.937935602311384,-0.021922658222489056,0.6328909551035823,-1.384167121482428
2.0619881887365943,16.825564982360653,-0.021955801442924947,0.6156714887934489,-1.4224890982754896
2.058032258505433,16.71628738094914,-0.021998978903308795,0.5985240824455678,-1.460008387290538
2.0540677742142366,16.61008987739885,-0.022050846554429113,0.5814481792243175,-1.4966014408534785
2.0500932946549213,16.506959638344906,-0.02211003743796615,0.5644433658195128,-1.532140496205676
2.046107626971912,16.40688389099287,-0.02217515903991645,0.5475093825364633,-1.5664931054219
2.042109831549444,16.30984989442513,-0.022244790098612906,0.5306461348828507,-1.5995216295481989
2.038099227527654,16.215844908669716,-0.022317476810168116,0.5138537068439933,-1.6310826931705837
2.034075399061887,16.124856161207806,-0.022391728365014626,0.4971323760661232,-1.6610265953591061
2.030038202452539,16.036870810553946,-0.022466011738856408,0.4804826311989702,-1.6891966726901373
2.0259877742875805,15.95187590649444,-0.0225387456495723,0.4639051916844202,-1.7154286098581715
2.0219245407570843,15.869858346514281,-0.02260829357816384,0.44740103031734507,-1.739549693285266
2.017849228318775,15.790804827880432,-0.02267295573638358,0.43097139894765646,-1.7613780031768722
2.01376287591638,15.714701794778676,-0.022730959845777474,0.4146178577385181,-1.7807215397379095
2.0096668489787866,15.641535379822336,-0.022780450571931288,0.3983423084430457,-1.797377279869071
2.005562855458352,15.571291339163732,-0.022819477432894832,0.38214703220811347,-1.8111301617785038
2.001452964202013,15.50395498034408,-0.02284598097087216,0.3660347324546728,-1.8217519968100897
1.9973396259900758,15.439511081916077,-0.022857776939544,0.3500085834120328,-1.829000310754705
1.993225697626332,15.377943803769131,-0.022852538213163756,0.33407228488735785,-1.8326171214762847
1.989114469521411,15.319236586986086,-0.022827774063738593,0.31823012381315946,-1.8323276665724948
1.9850096972821252,15.263372041972282,-0.022780806372767432,0.3024870430068912,-1.8278391050419107
1.9809156379075137,15.210331823539704,-0.022708742234027524,0.2868487173551002,-1.8188392320491187
1.9768370913041677,15.160096491626607,-0.02260844224759485,0.2713216372348457,-1.8049952680362717
1.9727794479799932,15.112645356427663,-0.02247648357656853,0.2559131983089761,-1.7859528157545332
1.9687487439735942,15.06795630696396,-0.022309116494528686,0.24063179573216867,-1.7613351257843965
1.964751724352877,15.026005622632372,-0.022102212624553353,0.2254869190632589,-1.7307428792218162
1.9607959170144769,14.986767768183679,-0.021851202246559117,0.2104892414777881,-1.6937547945485656
1.9568897191054102,14.950215174102464,-0.02155099674307054,0.19565069275793445,-1.6499295069641462
1.9530424992842221,14.916318006810211,-0.02119589015901923,0.18098449937820388,-1.5988093697193182
1.9492647204277767,14.885043936926763,-0.020779430468152175,0.16650516599343737,-1.5399271099685592
1.9455680895771166,14.856357919601162,-0.020294245650291906,0.15222835984658956,-1.4728166608064712
1.9419657453992203,14.830222009407407,-0.019731800770779837,0.1381706423062266,-1.397030006205051
1.938472499026181,14.806595244282239,-0.019082047818545694,0.12434897019564686,-1.3121625108321282
1.9351051531069834,14.785433648925437,-0.018332906839205104,0.11077986710213554,-1.2178898816090662
1.9318829382979466,14.76669042718866,-0.017469479927870502,0.09747815219537538,-1.1140203605128163
1.9288281293837248,14.750316431074495,-0.016472841341261174,0.08445513796200564,-1.0005653326029658
1.9259669397563839,14.736260999343536,-0.015318154518081653,0.07171632571531077,-0.8778289026395192
1.923330851854562,14.724473225058016,-0.013971711057718387,0.05925894412379698,-0.7465098157615485
1.9209586422081726,14.714903588112278,-0.012386173902163431,0.04707035527327847,-0.6077944804900575
1.9188995641801243,14.707505590247248,-0.01049247085392872,0.03512962100485478,-0.46339708868251417
1.917218695593415,14.70223640067649,-0.008183846776176276,0.023416929781357797,-0.31547966123552973
1.9160074619579195,14.699054013351383,-0.005274304729326146,0.011942929386520291,-0.1663817439253457
1.9154140715102757,14.697901439388357,-0.0013189224667165267,0.000863447980444753,-0.01816185608972276
