x,y,v_x,v_y,omega
2.375,32.48,0.0,2.564102564102564,-5.3061224489795915
2.373905432338952,31.94734007785881,-0.010424453914742372,2.508849075337295,-5.0043080940222655
2.370766847323354,31.426071384776563,-0.019466831948097146,2.4556146683031623,-4.727893099537483
2.3658561658199186,30.91578292934703,-0.027301563322714183,2.404275383406672,-4.474070554791855
2.3594112041525293,30.41608859875293,-0.0340790239857549,2.354718241299049,-4.240404380877209
2.3516403367939787,29.926624993885483,-0.039929236571872265,2.306839900295703,-4.024772897798524
2.342726448998205,29.44704952403512,-0.04496493291168341,2.260545526850598,-3.8253221136172706
2.3328303003079465,28.977038720716983,-0.049284102233637876,2.21574783808402,-3.640426858626027
2.322093396809137,28.516286737854877,-0.052972121564548065,2.172366284412238,-3.46865829062025
2.3106404518604258,28.0645040115388,-0.05610354461365303,2.130326347169456,-3.308756604848716
2.2985815006345955,27.62141605729648,-0.058743609918064696,2.0895589313288436,-3.159608018978466
2.286013722306017,27.18676238657588,-0.06094951702077854,2.0499998374387953,-3.0202252872268045
2.2730230144610597,26.760295527145196,-0.06277151007405382,2.011589299996246,-2.8897311416425655
2.2596853568112656,26.341780134545814,-0.06425380087636502,1.9742715819026584,-2.767344171872297
2.246067995182443,25.930992183707897,-0.0654353574933741,1.9379946165536732,-2.6523667446789414
2.232230471752442,25.527718231454475,-0.06635057993520702,1.902709690621779,-2.544174636273097
2.2182255233959425,25.131754741950857,-0.06702988060288365,1.8683711617936136,-2.4422081081594453
2.2040998665939218,24.742907468260285,-0.06750018417826639,1.8349362066880677,-2.3459642037313193
2.189894884543079,24.360990884087215,-0.06778535916309311,1.802364594960207,-2.2549900805955745
2.1756472297489786,23.985827660562368,-0.06790659125690975,1.7706184862288046,-2.1688772243793477
2.1613893534204105,23.617248183575185,-0.06788270711040696,1.739662246982464,-2.087256414961348
2.1471499713327833,23.255090107712356,-0.06773045562890005,1.7094622850445007,-2.0097933367802154
2.1329544744399107,22.89919794333222,-0.06746475287464788,1.679986899528239,-1.9361847419652314
2.1188252913414467,22.549422673708563,-0.06709889568215287,1.6512061445065576,-1.8661550891944199
2.104782208720981,22.205621399524695,-0.06664474832227757,1.6230917048636135,-1.7994535929564626
2.090842655027566,21.867657008298842,-0.06611290590072638,1.5956167830016723,-1.7358516277114584
2.0770219519566875,21.535397866582528,-0.0655128376314482,1.5687559952489318,-1.6751404396614387
2.063333537675304,21.2087175330005,-0.06485301266744489,1.5424852769608546,-1.6171291257372413
2.0497891652127556,20.887494490399213,-0.06414101078539643,1.5167817954323648,-1.5616428452127984
2.0363990789913906,20.571611895545086,-0.0633836198942691,1.4916238698450228,-1.5085212342574152
2.023191396768615,20.260961730266985,-0.06240382984645184,1.4669491328035753,-1.4525814528423076
2.010190934794826,19.95543993106353,-0.06141009371344178,1.4427822881816859,-1.3993000221005711
1.9974002302216571,19.654941816343268,-0.060406140316738244,1.4191045186779772,-1.3485182393241666
1.9848210830682362,19.359366561344608,-0.059395261144413104,1.3958979098806579,-1.3000886772048195
1.972454643061492,19.06861701427962,-0.05838035796743617,1.3731453955001833,-1.2538742556460893
1.9603014870363107,18.782599523559018,-0.057363985129527895,1.3508307066007976,-1.209747400209895
1.948361687948105,18.501223775294797,-0.056348387139097615,1.3289383244870419,-1.167589278170253
1.936634876426641,18.224402640345424,-0.055335532112940275,1.3074534369355286,-1.1272891041846047
1.9251202956917142,17.95205203023047,-0.05432714155302964,1.286361897492615,-1.088743508500372
1.9138168505564082,17.684090761297263,-0.05332471687845765,1.265650187585549,-1.051855961409061
1.9027231511604494,17.42044042657282,-0.052329563083052436,1.245305381218644,-1.0165362483574871
1.8918375520030692,17.16102527477988,-0.05134280984437737,1.2253151120474248,-0.9826999907384704
1.8811581867804812,16.90577209603741,-0.05036543037074755,1.2056675426427932,-0.9502682079227529
1.8706829994764775,16.654610113803606,-0.0493982582388103,1.186351335774365,-0.9191669165694455
1.8604097721047355,16.407470882653765,-0.04844200244444914,1.1673556275574621,-0.889326763672207
1.8503361494573787,16.16428819151642,-0.0474972608637102,1.1486700023220147,-0.8606826901696623
1.840459661175439,15.924997972019838,-0.046564532297620496,1.1302844690740121,-0.833173622277368
1.8307777414224407,15.689538211626779,-0.045644227254745345,1.112189439431303,-0.8067421879902114
1.8212877464118784,15.457848871259305,-0.044736677607749936,1.0943757069256068,-0.7813344564630388
1.8119869700123634,15.229871807137087,-0.04384214524477411,1.0768344275717,-0.756899698207535
1.8028726576302656,15.005550696572698,-0.04296082982282642,1.0595571016129628,-0.7333901642483373
1.7939420185484347,14.784830967485544,-0.042092875718418736,1.0425355563599354,-0.7107608825640929
1.785192236880691,14.567659731412995,-0.04123837826009251,1.0257619300452852,-0.6889694703022523
1.776620481284975,14.353985719812641,-0.04039738931815534,1.0092286566247368,-0.6679759604021319
1.7682239135631055,14.143759223463839,-0.03956992231869889,0.9929284514591007,-0.6477426413911697
1.7600066344250673,13.937079540787703,-0.03868987899594789,0.9754494787898188,-0.6563466336191406
1.7519703575354502,13.734057853587597,-0.037846091381358624,0.9580903993064215,-0.6671027947658577
1.7441074997823318,13.534669342992103,-0.03703826817215028,0.9408477968411252,-0.6798889869896942
1.7364105493221955,13.33888989294503,-0.03626602192438485,0.9237183940833849,-0.6945865890354969
1.7288720848530896,13.146696061673719,-0.03552887778138626,0.9066990465957683,-0.7110802255422993
1.7214847931290247,12.958065054364539,-0.034826281495423134,0.8897867373011742,-0.7292575059123484
1.7142414848586596,12.772974696948836,-0.03415760679376815,0.8729785714198026,-0.7490087716657007
1.707135109121031,12.59140341090686,-0.033522162136028356,0.8562717718371009,-0.7702268512428219
1.7001587664216489,12.413330189000867,-0.032919196905706216,0.8396636748866407,-0.7928068212485646
1.6933057205036464,12.23873457185164,-0.03234790707527022,0.8231517265345499,-0.8166457731548288
1.6865694090207843,12.067596625275264,-0.03180744038055797,0.8067334789547637,-0.8416425844962162
1.6799434531719328,11.899896918298879,-0.03129690103707677,0.7904065874869968,-0.8676976936031416
1.6734216663901331,11.735616501775684,-0.030815354027681645,0.774168807972005,-0.8947128769201188
1.6669980621734686,11.574736887520174,-0.030361828988173783,0.7580179944614273,-0.9225910279532237
1.6606668611396826,11.417240027884983,-0.02993532371454963,0.7419520973023163,-0.9512359368798795
1.6544224973817983,11.263108295700302,-0.029534807312919756,0.7259691615994146,-0.980552069835889
1.648259624197841,11.112324464495924,-0.02915922301048293,0.7100673260613438,-1.0104443468687563
1.642173119264187,10.964871688924262,-0.02880749064336259,0.6942448222402026,-1.0408179175124317
1.6361580893190046,10.820733485300387,-0.028478508834565673,0.6784999741776575,-1.0715779328962527
1.630209874419733,10.67989371217191,-0.028171156872783723,0.6628311984745121,-1.1026293132495268
1.62432405183657,10.54233655082756,-0.027884296300198303,0.6472370048050186,-1.133876509602381
1.61849643964249,10.408046485648331,-0.027616772214850097,0.6317159969019234,-1.165223258412552
1.6127231000594326,10.277008284199063,-0.027367414290456048,0.6162668740434861,-1.1965723277660858
1.607000342619988,10.149206976951142,-0.027135037513780925,0.6008884330795745,-1.2278252537068004
1.6013247272041815,10.024627836518533,-0.026918442636756468,0.5855795710405164,-1.2588820651441748
1.5956930670118892,9.9032563562794,-0.02671641633745687,0.5703392883797949,-1.2896409956715378
1.590102431532978,9.785078228243968,-0.02652773108074478,0.5551666929100388,-1.319998180495565
1.584550149579585,9.670079320015784,-0.026351144665853813,0.5400610045012266,-1.349847336533993
1.5790338124480163,9.558245650677975,-0.02618539944432328,0.5250215606207568,-1.3790794235813288
1.5735512772816755,9.449563365418037,-0.02602922118749391,0.5100478228072161,-1.4075822842729624
1.5681006707112832,9.344018708684011,-0.025881317578148166,0.49513938418349396,-1.4352402603981986
1.5626803928545225,9.241597995641037,-0.02574037629576436,0.480295978130561,-1.4619337829253216
1.5572891217642546,9.142287581669926,-0.02560506265916857,0.4655174882609553,-1.4875389329118025
1.55192581842272,9.04607382961817,-0.025474016784015997,0.45080395985102717,-1.5119269702878169
1.5465897323888314,8.9529430744779,-0.025345850205399735,0.4361556129134532,-1.5349638273328643
1.5412804082169425,8.862881585124747,-0.025219141907830485,0.4215728571165884,-1.5565095635305515
1.5359976927785735,8.775875522705089,-0.025092433695682946,0.4070563087849106,-1.576417778410361
1.5307417436337187,8.691910895206949,-0.024964224826742813,0.392606810244984,-1.5945349790034493
1.525513038615871,8.610973507690797,-0.02483296581942402,0.37822545181360545,-1.610699898703788
1.5203123868151638,8.533048907590754,-0.024697051330170493,0.36391359675822593,-1.6247427647100876
1.5151409411674939,8.4581223244239,-0.024554811980971758,0.3496729095927707,-1.6364845119331353
1.5100002128848025,8.386178603165956,-0.024404504997042862,0.3355053881019562,-1.6457359424372877
1.5048920879936172,8.317202130466722,-0.02424430349043381,0.32141339950979386,-1.6522968313571473
1.4998188462866477,8.251176752790474,-0.02407228419499156,0.30739972121636383,-1.6559549830945353
1.494783183037157,8.188085685479148,-0.023886413419205742,0.29346758651055743,-1.6564852458892345
1.4897882338802584,8.12791141165658,-0.02368453093220954,0.2796207356091293,-1.6536484991861637
1.484837603332367,8.070635569831424,-0.023464331428660355,0.26586347224949675,-1.647190637471276
1.4799353975046396,8.016238829032208,-0.02322334312112432,0.2522007258382876,-1.6368415876739044
1.4750862616756442,7.964700750347877,-0.02295890286930877,0.23863811877438984,-1.6223144166253263
1.4702954235340342,7.915999633892639,-0.02266812705078699,0.225182037942169,-1.603304612972046
1.4655687431012874,7.870112350528078,-0.022347877070608986,0.21183970838696886,-1.5794896679844477
1.460912770625403,7.8270141582525525,-0.02199471793781481,0.19861926566564267,-1.5505291369683305
1.456334814142935,7.786678504146455,-0.02160486760949895,0.18552982105909677,-1.5160654445524626
1.4518430190092944,7.749076814344008,-0.021174133663268677,0.1725815103927887,-1.4757258126003319
1.4474464626085526,7.7141782769749625,-0.0206978320580827,0.15978551216955872,-1.4291258514329963
1.4431552688547549,7.681949626779346,-0.020170679882846366,0.14715401350297838,-1.375875578690332
1.438980749276151,7.652354945664882,-0.019586649437191565,0.13470009234905006,-1.315588931253039
1.4349355808923057,7.625355501469489,-0.01893876374228766,0.1224374714166087,-1.2478982236254765
1.4310340364785081,7.600909658205087,-0.018218802103405575,0.11038008348247057,-1.1724754668763904
1.427292291293329,7.578972905299615,-0.01741686632687029,0.09854137276011396,-1.0890629191302064
1.42372884365468,7.559498069766388,-0.016520730231691684,0.0869332513658731,-0.9975154738873129
1.4203651075059485,7.542435789650451,-0.015514852137179234,0.07556465450017759,-0.8978570048885415
1.4172262673675924,7.527735328784093,-0.0143788634662119,0.06443973470323544,-0.7903505860753075
1.4143425368979057,7.515345778898695,-0.013085236245091057,0.05355597849101905,-0.675576969302722
1.4117510478659532,7.505217583226507,-0.011595611678265554,0.0429030279107776,-0.5545049638900915
1.40949876647402,7.497304056723831,-0.009854687292526308,0.03246389116232006,-0.4285212485837916
1.4076472749734747,7.49156205050987,-0.007778565093619657,0.022221882303983538,-0.2993712485392026
1.4062818006779403,7.4879497095099445,-0.005225952006708825,0.012181365314360355,-0.16896077984718183
1.4055349506362795,7.486414413191984,-0.0018869055329177225,0.0024405043804923664,-0.0390069861671937
