x,y,v_x,v_y,omega
2.375,32.48,0.0,2.871794871794872,-4.938775510204081
2.374058245467618,31.940271685388772,-0.009913205604020125,2.809555808323296,-4.654773911389019
2.3713594113408187,31.412152589618593,-0.01849557467808024,2.749592568204897,-4.394945950406431
2.3671402147976734,30.895223351757654,-0.02591702051292257,2.691767830331285,-4.15659697031287
2.3616073320181257,30.389089590359887,-0.03232385085073718,2.635955973855731,-3.937390098764677
2.3549415379953436,29.89337980921293,-0.037842402020652914,2.5820417224280354,-3.735291796551726
2.3473012148637564,29.40774354129068,-0.04258205199605502,2.529918992543008,-3.548526730413208
2.3388253355576163,28.93184969571349,-0.04663773017383903,2.47948990826955,-3.3755401927152797
2.3296360095859177,28.465385078917777,-0.05009201689667564,2.4306639527379175,-3.2149666650313002
2.3198406618415994,28.00805306627956,-0.05301690672772587,2.3833572329275197,-3.0656034104636576
2.309533902699778,27.559572404444175,-0.05547529476513095,2.3374918390239374,-2.9263882025768413
2.2987991374873546,27.119676127826466,-0.057522233786693196,2.2929952832677256,-2.7963804729729556
2.287709955185696,26.68811057533985,-0.05920600096760857,2.2498000060650916,-2.6747452965019654
2.276331329548104,26.264634495523797,-0.06056900574388563,2.2078429393670134,-2.5607397415096425
2.2647206603583125,25.84901822997008,-0.06164856467497221,2.1670651190931687,-2.4537011988584068
2.2529286780800013,25.44104296637639,-0.062477564570411044,2.127411339787773,-2.3530373725943567
2.241000231458675,25.040500053742996,-0.06308503144354803,2.08882984582689,-2.2582176707937136
2.2289749745854115,24.647190373220297,-0.06349661985396413,2.0512720544120446,-2.168765780151835
2.216887967397512,24.260923758949843,-0.06373503475550214,2.014692306329582,-2.0842532444764506
2.2047702014789055,23.881518463947376,-0.0638203959666702,1.979047641064812,-2.004293897121824
2.1926490612570277,23.50880066667682,-0.06377055373730725,1.9442975933621016,-1.9285390218874234
2.1805487292115586,23.1426040144773,-0.06360136253078821,1.9104040087380867,-1.8566731370529832
2.1684905424642182,22.782769200446015,-0.06332691902016356,1.877330875801767,-1.788410313861359
2.15649330706753,22.42914357075992,-0.06295976936603073,1.8450441735255805,-1.723490954550348
2.1445735754212145,22.081580759748668,-0.06251109006886926,1.813511731855973,-1.6616789665008591
2.132745891490767,21.739940350317767,-0.06199084604110258,1.7827031042587886,-1.602759278633283
2.1210230078616985,21.40408755757098,-0.06140792900172421,1.7525894509705862,-1.54653565418634
2.1094160781166713,21.07389293370045,-0.060770278840665534,1.723143431877065,-1.4928287607276984
2.0979348275562586,20.749232092405627,-0.060084990216310356,1.6943391080684664,-1.4414744638961474
2.0865877048847836,20.429985451272024,-0.059358406325531375,1.6661518512325753,-1.3923223161426368
2.075382017140277,20.116037990691474,-0.05859620151138107,1.6385582601416755,-1.3452342157704658
2.0643240498533073,19.807279028038597,-0.05780345414093103,1.6115360835728112,-1.3000832149950108
2.053419174166062,19.50360200593725,-0.056984710987971296,1.585064149072943,-1.256752458650779
2.042671942424461,19.204904293556172,-0.05614404418677351,1.559122297043656,-1.215134237650874
2.032086173567188,18.91108699996787,-0.05528510167925968,1.533691319675297,-1.1751291434195692
2.021665029471947,18.62205479868937,-0.054411151954853354,1.508752904308926,-1.1366453113293578
2.011411083277439,18.337715762599537,-0.0535251237768117,1.4842895808471885,-1.0995977427268329
2.00133387908445,18.057983613534134,-0.05255070983359939,1.4602593566833735,-1.0614184064294743
1.9914413440351113,17.7827750345038,-0.05158123805417432,1.436673054162268,-1.0249134288211272
1.9817324047948368,17.51200713512411,-0.05061812236976577,1.413515360360762,-0.9899900926840378
1.972205737351034,17.245599870500023,-0.0496625875650025,1.3907716356822801,-0.9565617856257819
1.9628598009931943,16.983475916849336,-0.048715689885939384,1.3684278764302216,-0.9245475339942092
1.9536928685897659,16.725560554001287,-0.04777833541330827,1.346470679865012,-0.8938715771371748
1.9447030535624372,16.47178155431666,-0.04685129645331035,1.3248872115521337,-0.8644629781096055
1.9358883339133948,16.222069077610772,-0.04593522616818945,1.303665174825619,-0.8362552673454319
1.9272465736213746,15.976355571692682,-0.045030671642547676,1.2827927822068905,-0.8091861161786787
1.9187755416872867,15.73457567816292,-0.04413808555837832,1.2622587286327143,-0.7831970374226045
1.910472929079233,15.49666614313875,-0.04325783663165875,1.2420521663585342,-0.758233110503479
1.9023363637993849,15.262565732600287,-0.042390218945692636,1.2221626814147717,-0.7342427289009131
1.894363424270959,15.032215152073015,-0.04153546030089377,1.2025802715038922,-0.7111773678735629
1.8865516512221012,14.805556970382792,-0.04069372968708304,1.1832953252353067,-0.6889913706509362
1.8788985582244515,14.582535547238098,-0.039865143972386885,1.1642986026035729,-0.6676417514519267
1.871401641027309,14.363096964411575,-0.039049773892270385,1.1455812166229902,-0.6470880138511756
1.864058385813315,14.147188960308721,-0.03824764941293189,1.1271346160386113,-0.6272919831576915
1.8568662764882546,13.934760867726254,-0.03745876453507238,1.1089505690400057,-0.6082176515983274
1.8498228011057272,13.725763554616016,-0.0366830815967961,1.09102114790986,-0.5898310352134539
1.8429254575168732,13.52014936768283,-0.03592053512798176,1.07333871454474,-0.5721000414750056
1.8361717583259505,13.317872078656016,-0.03517103530278334,1.0558959067901317,-0.5549943467293487
1.8295592352241568,13.11888683308501,-0.03443447103188674,1.0386856255362515,-0.5384852826503012
1.8230854427666174,12.92315010151918,-0.03371071273168586,1.0217010225251204,-0.5225457309621606
1.8167479616507671,12.730619632941103,-0.03299961480358075,1.004935488823065,-0.5071500257596793
1.8105444015483843,12.541254410330875,-0.032301017853081565,0.9883826439161675,-0.49227386281236946
1.804478128992082,12.355222755872354,-0.031554482739573494,0.9698452977524566,-0.5214996923611953
1.7985494824152133,12.172702884615507,-0.030852323332728776,0.9514165049511845,-0.5521986484193909
1.7927501489954156,11.993674439641758,-0.030193291612509877,0.9330934421409106,-0.5842616577359795
1.787072056186196,11.81811758980842,-0.029576106379276476,0.9148733982100264,-0.6175816675153494
1.7815073776154993,11.646013008748916,-0.028999457522792732,0.8967537708373858,-0.6520534059074816
1.7760485382131026,11.477341854495094,-0.028462009870857865,0.87873206341338,-0.6875731458406296
1.770688218644111,11.312085749647917,-0.027962406644842022,0.8608058823463924,-0.7240384711828582
1.7654193591209362,11.150226762023532,-0.027499272546472,0.8429729347524088,-0.7613480442109717
1.76023516266177,10.991747385701846,-0.027071216497384122,0.8252310265284967,-0.7994013733495265
1.7551290978597476,10.836630522404313,-0.026676834050219818,0.8075780608139702,-0.8380985801185363
1.7500949012236777,10.684859463126585,-0.026314709487358534,0.7900120368463284,-0.8773401641956738
1.7451265791484085,10.53641786995004,-0.025983417620737196,0.772531049222585,-0.9170267654567893
1.7402184095705993,10.391289757953754,-0.02568152530356989,0.7551332875804189,-0.9570589218067581
1.735364943363858,10.249459477145429,-0.02540759266212839,0.737817036717744,-0.9973368215503653
1.7305610055259164,10.110911694325722,-0.025160174053045267,0.7205806771738908,-1.0377600489793204
1.7258016962097387,9.975631374795636,-0.02493781874882633,0.7034226863006877,-1.078227321765686
1.7210823916502196,9.843603763810616,-0.024739071351375028,0.6863416398574186,-1.1186362186530108
1.7163987450384601,9.71481436767801,-0.024562471930303184,0.6693362141700212,-1.1588828958232233
1.7117466873965201,9.589248934386159,-0.024406555879591143,0.6524051889020904,-1.1988617901887368
1.7071224285071003,9.466893433643587,-0.024269853482723255,0.6355474504934093,-1.2384653077141123
1.7025224579548337,9.34773403619527,-0.02415088917271471,0.6187619963309934,-1.2775834947088809
1.697943546338832,9.231757092269646,-0.024048180469410114,0.6020479397281873,-1.3161036898517537
1.6933827467198965,9.118949108994524,-0.023960236572014203,0.5854045157993999,-1.3539101545056527
1.6888373963704604,9.009296726602056,-0.023885556579943994,0.5688310883318335,-1.390883678662395
1.6843051189009448,8.902786693222257,-0.023822627309694745,0.5523271577713174,-1.4269011596157475
1.6797838268429306,8.799405838040531,-0.02376992066940337,0.5358923704573834,-1.4618351502032192
1.6752717247774602,8.699141042567064,-0.023725890546074664,0.5195265292633409,-1.495553373183235
1.670767313106058,8.601979209734086,-0.023688969152894104,0.5032296058206499,-1.5279181980303729
1.6662693925728556,8.507907230500422,-0.02365756277555364,0.4870017545337115,-1.5587860761456829
1.6617770696587217,8.416911947600664,-0.023630046846906422,0.47084332862162115,-1.588006930205145
1.657289762982772,8.328980116028124,-0.023604760268353602,0.45475489845775424,-1.615423493127613
1.6528072108633065,8.244098359785575,-0.023579998883917618,0.4387372725164487,-1.640870591964853
1.6483294802094597,8.162253124375056,-0.023554007998677948,0.42279152127850406,-1.6641743719459567
1.6438569769369935,8.083430624426729,-0.023524973816754995,0.4069190044933499,-1.6851514560130376
1.6393904581271945,8.007616785786624,-0.02349101365481476,0.3911214022446055,-1.7036080355615357
1.6349310461773667,7.9347971812934155,-0.02345016476442648,0.3754007503154814,-1.7193388888871293
1.6304802452256404,7.864956959375661,-0.023400371569534173,0.35975948039771044,-1.732126325245389
1.6260399601727629,7.798080764493832,-0.023339471092334935,0.34420046572681384,-1.741739054743672
1.6216125186705106,7.734152648338693,-0.023265176299794355,0.3287270727483384,-1.7479309879319826
1.6172006965022316,7.673155970583682,-0.023175057050511004,0.31334321940965304,-1.7504399745547543
1.6128077468484516,7.61507328788209,-0.023066518252436476,0.2980534406071206,-1.7489864993577635
1.6084374340134284,7.559886229713879,-0.022936774747807736,0.2828629611635399,-1.7432723654017932
1.6040940722929964,7.507575359644267,-0.022782822309372307,0.2677777764113078,-1.732979413884793
1.5997825707992739,7.458120020591853,-0.022601403940338306,0.25280473992989017,-1.717768356724465
1.5955084852383707,7.411498162873386,-0.022388970384956974,0.23795165710659633,-1.6972778380222313
1.5912780778863183,7.367686154180156,-0.022141633320858754,0.2232273817695244,-1.6711238986684247
1.5870983873634026,7.326658571376271,-0.021855109025622085,0.20864191090294046,-1.638900102845688
1.5829773103285492,7.288387975286049,-0.021524649235994536,0.1942064689941207,-1.6001787074646674
1.5789236980024204,7.25284467174259,-0.021144954196939538,0.1799335683054387,-1.5545134313726248
1.5749474716428744,7.219996465516747,-0.020710060114069666,0.16583702354552252,-1.5014446313192835
1.5710597630060072,7.189808418912651,-0.02021318869505783,0.1519318880765371,-1.4405080414549045
1.5672730888671709,7.162242634562421,-0.019646539082166927,0.13823426297852734,-1.3712487080005402
1.563601573561252,7.137258093168821,-0.01900099045381901,0.12476090958566717,-1.293242362170083
1.5600612413787867,7.114810592406762,-0.01826566409844965,0.11152857212020977,-1.2061271838552607
1.556670413349106,7.094852852861393,-0.017427262529767982,0.09855289677840015,-1.1096495448517019
1.553450263304914,7.0773348782031995,-0.01646905372488434,0.08584683646576217,-1.0037274111594818
1.550425620593884,7.062204671154273,-0.015369290601745583,0.0734185008913465,-0.8885335601675731
1.5476261586940276,7.04940939292684,-0.014098729396743427,0.06126863834480059,-0.7645955919817236
1.5450881949740851,7.03889696789766,-0.012616678181598827,0.04938846722550911,-0.6328978604177329
1.542857487709537,7.030617899428545,-0.010864450918907696,0.037759621923063015,-0.49494959875125216
1.5409938010986033,7.02452654587573,-0.00875330288039311,0.026359889159200983,-0.3527574579560907
1.5395792757725106,7.020579973865178,-0.006136437394267841,0.015182974109784165,-0.20862630349820752
1.5387387947523767,7.018728650458854,-0.0027107312387192792,0.004304640693618269,-0.06473979528627602
