x,y,v_x,v_y,omega
2.375,32.48,0.0,2.41025641025641,-6.040816326530612
2.3741789899719823,32.050257482247254,-0.009122333644640606,2.3646604536629834,-5.75469976717457
2.371808777337157,31.628599388266608,-0.01721336229786314,2.320429479455276,-5.488136644940274
2.368065198529517,31.214786516822738,-0.0243819577870246,2.2774913143655104,-5.239338157997454
2.3631056289675,30.80859215431873,-0.03072437067983301,2.235779380123455,-5.00671375992133
2.3570711062617717,30.409801122182902,-0.036325881606035046,2.19523208805243,-4.788845574352763
2.3500881782725433,30.018208925603926,-0.04126220716317197,2.1557923183806436,-4.584466589125806
2.342270516457157,29.63362098964823,-0.045600701896671786,2.117406970015971,-4.392441997409737
2.333720328195826,29.25585197111295,-0.04940138989589459,2.0800265692649234,-4.211753172251357
2.324529596307486,28.884725136347306,-0.052717853307883644,2.0436049281311184,-4.041483854907744
2.3147811694978,28.520071796807127,-0.055598000133070063,2.00809884453755,-3.880808212239604
2.304549723810041,28.161730795362526,-0.058084729730924524,1.973467838180221,-3.7289804784724643
2.2939026121169492,27.80954803741303,-0.06021651130342937,1.9396739168141939,-3.5853259450651698
2.282900616173296,27.463376061720815,-0.06202788807049113,1.9066813686548238,-3.4492331017208664
2.2715986136472086,27.123073646585645,-0.06354991777492716,1.874456577291533,-3.3201467636310285
2.2600461707863815,26.788505447580995,-0.0648105584564835,1.8429678560934883,-3.1975620463250976
2.2482880698918746,26.459541663571922,-0.06583500703803784,1.8121852995628425,-3.0810190711498757
2.2363647795182593,26.136057728157816,-0.06664599711324283,1.7820806494827794,-2.9700983023200185
2.224312874255058,25.817934024041577,-0.06726406136677447,1.752627174031027,-2.86441643137083
2.2121654100387094,25.505055618131983,-0.06770776325932064,1.723799558297764,-2.7636227372681033
2.199952260170743,25.197312015446855,-0.06799390194030545,1.695573804870351,-2.6673958608346906
2.187700416555123,24.894596930108438,-0.0681376937888069,1.6679271433342753,-2.5754409408989827
2.175434260098367,24.596808071915646,-0.06815293350848216,1.6408379476967496,-2.4874870669460885
2.1631758037255615,24.30384694714447,-0.06805213730046604,1.6142856608718394,-2.4032850092928024
2.1509449110417993,24.015618672372977,-0.06784667029689405,1.5882507254781055,-2.322605193103292
2.138759493301855,23.732031800253395,-0.06754686014692841,1.562714520295029,-2.2452358870698284
2.1266356870327447,23.45299815626433,-0.06716209839874046,1.537659301805732,-2.1709815814298197
2.11458801437713,23.178432685572737,-0.06670093110808782,1.5130681503230607,-2.099661533282299
2.102629527984481,22.908253309220633,-0.06617113992135028,1.4889249202558326,-2.0311084599910965
2.090774588238605,22.642385889925954,-0.06555041281060514,1.4651575163517514,-1.962812792578176
2.0790349783350797,22.38075876516818,-0.06488969722856305,1.4418105365123475,-1.8974076849333767
2.0674174573154063,22.123297537488646,-0.06419386965669942,1.4188697710380564,-1.834738183063706
2.055927947413604,21.869930311764648,-0.06346735147443701,1.3963216258952713,-1.7746592147042086
2.0445716121817012,21.62058758747369,-0.06271415110226064,1.3741530884486983,-1.7170348571243943
2.033352927398911,21.375202156917283,-0.061937902039855774,1.3523516955113795,-1.661737666603387
2.0222757454649276,21.133709009003983,-0.06114189722662296,1.330905503525274,-1.6086480637550415
2.0113433539051617,20.896045238223444,-0.060329120104110144,1.3098030607029647,-1.5576537694925134
2.000558528551185,20.662149958472263,-0.05950227271785466,1.289033380976808,-1.5086492869601666
1.9899235819022598,20.431964221418916,-0.058663801159088,1.2685859196159113,-1.4615354252380037
1.979440407122674,20.205430939118934,-0.05781591861408631,1.248450550383911,-1.416218861047572
1.969110518083998,19.982494810613417,-0.056960626260093516,1.2286175441218012,-1.3726117350650828
1.9589350858206793,19.76310225226394,-0.05609973222122352,1.2090775486501988,-1.3306312797829631
1.948914971731006,19.547201331594913,-0.05523486877514924,1.1898215698945367,-1.2901994761601692
1.9390507578229208,19.334741704431366,-0.054367507981350434,1.1708409541448899,-1.2512427365686283
1.9293427742750477,19.125674555135063,-0.05349897588390761,1.1521273713695446,-1.2136916117818832
1.9197911245571537,18.919952539756075,-0.05263046542602578,1.1336727995081155,-1.177480519965665
1.9103957083308643,18.717529731929496,-0.0517630481994119,1.1154695096760776,-1.1425474958215824
1.9011562423303974,18.518361571359023,-0.050897685139109396,1.0975100522180685,-1.1088339582068854
1.8920722794041867,18.32240481473969,-0.05003523626323081,1.0797872435523044,-1.076284494707557
1.8831432258812597,18.129617488982216,-0.04917646954706908,1.0622941537529837,-1.0448466617807286
1.8743683574109282,17.939958846610494,-0.04832206901217018,1.045024094821678,-1.014470799207318
1.8657468334105634,17.753389323212325,-0.047472642102995045,1.027970609602462,-0.9851098577083479
1.8572777102437925,17.569870496831193,-0.04662872641667924,1.0111274612989698,-0.9567192386799461
1.8489599532402394,17.389365049194367,-0.04579079584502212,0.9944886235546943,-0.9292566450937338
1.8407984316855108,17.21206922874495,-0.04489277698529658,0.9754649369943492,-0.953573710605136
1.8327947871891233,17.03818775586364,-0.04403660630789852,0.9565514283535658,-0.9793806688872292
1.8249415937857805,16.867701050145683,-0.043221098173689736,0.9377453018459129,-1.0065617279797192
1.8172316424986232,16.700590023863754,-0.04244502723916693,0.9190438790644171,-1.0350029987082647
1.809657948091794,16.5368360611236,-0.04170713283671387,0.9004445958261889,-1.064592242881012
1.8022137550724182,16.37642099755003,-0.0410061229341271,0.8819449994357009,-1.0952186240693664
1.7948925430154492,16.219327100427957,-0.040340677698861786,0.8635427463651049,-1.1267724599065583
1.7876880312804857,16.065537049223316,-0.03970945268962129,0.8452356003531288,-1.1591449748246299
1.7805941831858534,15.915033916408067,-0.03911108169518046,0.8270214309274126,-1.1922280521294513
1.7736052097018975,15.767801148512323,-0.03854417923766507,0.808898212358643,-1.225913984283965
1.766715572722568,15.623822547324771,-0.03800734275488473,0.7908640230586127,-1.26009522023169
1.7599199879719944,15.483082251160042,-0.0374991544737105,0.7729170454383828,-1.2946641085451513
1.7532134276008116,15.345564716108342,-0.03701818298387626,0.7550555662471505,-1.3295126351268531
1.7465911225255581,15.211254697178543,-0.036562984518938794,0.7372779774172732,-1.3645321541231292
1.740048564563495,15.080137229240826,-0.0361321039484286,0.7195827774462579,-1.3996131106331198
1.7335815084147175,14.95219760766894,-0.035724075482432116,0.7019685733524745,-1.434644753705633
1.7271859735434745,14.827421368574896,-0.035337423086935535,0.6844340832479907,-1.469514838015197
1.7208582460111828,14.705794268520435,-0.03497066060519599,0.6669781395793649,-1.5041093124946667
1.7145948803147713,14.587302263579687,-0.03462229157715155,0.6495996930956006,-1.538311994074965
1.7083927012857423,14.471931487616015,-0.034290808745395,0.6322978176118854,-1.5720042245427375
1.7022488061077339,14.359668229622592,-0.03397469323247337,0.6150717156483838,-1.6050645083741204
1.696160566513495,14.250498909961053,-0.03367241337018369,0.5979207250353765,-1.6373681292382107
1.690125631226043,14.1444100553148,-0.03338242315705906,0.5808443265896388,-1.668786742688779
1.6841419287135297,14.041388272153323,-0.03310316031531088,0.5638421529823111,-1.6991879423800558
1.6782076703329782,13.94142021848069,-0.032833043913038575,0.5469139989358519,-1.7284347969565343
1.6723213539447745,13.844492573614819,-0.032570471511448144,0.5300598329071644,-1.756385354584606
1.6664817680876414,13.750592005713948,-0.032313815790030564,0.5132798104358438,-1.782892111925854
1.6606879968129875,13.659705136732246,-0.03206142059501369,0.49657428936083364,-1.8078014442132424
1.6549394252881378,13.57181850444756,-0.03181159634775978,0.4799438471356597,-1.8309529930043635
1.6492357462902452,13.486918521160195,-0.03156261473993642,0.4633893005017331,-1.852179008182103
1.6435769677268621,13.404991428612082,-0.03131270263098391,0.44691172781064786,-1.8713036408978367
1.6379634213355474,13.326023248620395,-0.031060035050292166,0.43051249431922556,-1.8881421844698958
1.6323957727338207,13.249999728858405,-0.03080272719111491,0.41419328081398354,-1.9025002608516006
1.626875033012777,13.176906283149421,-0.03053882526492506,0.39795611595251823,-1.914172951297397
1.6214025720932905,13.106727925567593,-0.030266296062704087,0.3818034127344416,-1.9229438714644287
1.615980134093852,13.03944919756394,-0.029983015042167098,0.36573800952838587,-1.9285841936471957
1.6106098549947996,12.975054087259586,-0.029686752725081676,0.3497632160755389,-1.930851622517977
1.6052942829266263,12.913525939976196,-0.029375159143509865,0.33388286485102014,-1.929489336149161
1.6000364014625226,12.8548473590131,-0.029045746013199744,0.3181013680722641,-1.924224911952678
1.5948396563607172,12.799000095644413,-0.028695866229080713,0.3024237804687045,-1.9147692685161506
1.5897079862856676,12.745964927315956,-0.02832269016036245,0.28685586762524684,-1.9008156706033263
1.5846458581464598,12.695721523100062,-0.027923178053055945,0.2714041792180408,-1.8820388678802578
1.5796583078379203,12.648248295659293,-0.02749404759738198,0.25607612567939414,-1.8580944711372336
1.5747509873734236,12.60352223934228,-0.027031735341472157,0.24088005562075193,-1.8286187169793537
1.5699302196873395,12.561518754680485,-0.02653235005946226,0.22582532951028528,-1.7932288388225732
1.5652030628051965,12.522211460611544,-0.025991615297681073,0.2109223823668354,-1.7515243562989404
1.560577385703269,12.48557199741899,-0.025404796945959214,0.19618276421708583,-1.7030897271280865
1.5560619591209366,12.451569825924128,-0.024766609524402194,0.18161914128139792,-1.647498988147443
1.5516665660301012,12.420172032262276,-0.0240710914848778,0.16724523273917688,-1.584323260418225
1.547402138692345,12.391343153089437,-0.023311434490190113,0.15307564695902315,-1.5131423206537196
1.543280932695054,12.365045043819222,-0.022479743257487774,0.13912556715448626,-1.4335618507183359
1.5393167537482002,12.341236822911767,-0.02156668948533191,0.1254102207061063,-1.3452384399460051
1.5355252614061947,12.319874938263787,-0.02056100320361991,0.11194405316035512,-1.2479148257731776
1.5319243868482484,12.300913415939679,-0.019448714106893077,0.09873952821862149,-1.1414679462042945
1.5285349217799094,12.284304362228298,-0.018212008874651693,0.08580551301894836,-1.025971559936921
1.5253813660827436,12.26999878634205,-0.016827498871634053,0.07314533016159012,-0.9017723818756708
1.5224931696841302,12.257947770861485,-0.015263572224069762,0.060754841844707703,-0.7695722330268855
1.519906585283235,12.248103901343345,-0.01347625445254431,0.04862148613461058,-0.6304969906689161
1.5176675138125408,12.24042261363688,-0.011402317444055555,0.03672615504834742,-0.4861167527947319
1.5158361633961528,12.234862615407405,-0.00894602051581175,0.025051603056921938,-0.3383673387961539
1.5144958977681602,12.231383380683912,-0.005945819795218859,0.013606560537458534,-0.18932498396242314
1.513776878809665,12.229932798138055,-0.0020432797436160644,0.0025110233054031674,-0.04083332803660081
