x,y,v_x,v_y,omega
2.375,32.48,0.0,4.0,-7.020408163265306
2.3721438577239446,31.57509093317975,-0.024836019791785194,3.8687744940890774,-6.366112136739902
2.3641743914091444,30.699435687526556,-0.044463687293434556,3.7456189463735168,-5.80467337771862
2.3521677883099463,29.851268399704637,-0.05994155704741802,3.629748773817088,-5.319351142996945
2.336983509674711,29.028991279601566,-0.07209564847636922,3.5204870531661223,-4.896935994230131
2.319311332195324,28.231152138670485,-0.08157546004003781,3.4172446071041427,-4.526907348551195
2.2997072089681225,27.456425955935636,-0.08889517671823795,3.3195048079814997,-4.200814371711042
2.2786208622531436,26.703599551665473,-0.09446435993375234,3.2268117508894862,-3.9118151131165937
2.256417190101267,25.97155869814754,-0.0986110500825643,3.138760888396885,-3.654329488473073
2.233392997264635,25.259277173316583,-0.10159932240988855,3.054991501437508,-3.4237752812122126
2.209790159968461,24.565807385588617,-0.1036427410351025,2.9751805657622032,-3.216365411907168
2.1858060486640296,23.89027228534595,-0.1049147485686503,2.899037697217483,-3.0289509134748642
2.1616018268483486,23.23185834163141,-0.10555674548074845,2.826300943778538,-2.8588983380593946
2.1373090935734935,22.589809409199503,-0.10568441343103528,2.756733251281513,-2.703993335887094
2.1130352262430123,21.963421346056236,-0.10539269379053932,2.6901194717034302,-2.5623642928972497
2.0888676976025984,21.352037268302475,-0.10475972916958046,2.6262638131118883,-2.43242146030448
2.0648775787259264,20.755043349741232,-0.10385000019278723,2.5649876526380333,-2.3128081350471894
2.041122392790661,20.17186508989159,-0.10271683402691335,2.5061276504023198,-2.2023612776366885
2.017648448610229,19.60196398688662,-0.1014044197159725,2.449534114858302,-2.1000795676749204
1.994492755396903,19.044834562021045,-0.09994943431294794,2.3950695796249484,-2.0050973562532084
1.9716845990106562,18.500001691041533,-0.09838236035006888,2.342607559327343,-1.9166633202676266
1.9492468434722476,17.967018204071024,-0.0967285573752221,2.2920314578074903,-1.8341228861466194
1.9271970086577814,17.44546272165323,-0.09500913666361481,2.2432336066950813,-1.7569036910265359
1.9055481650010715,16.934937699039963,-0.09324167774255764,2.1961144160289727,-1.684503503617384
1.8843096780744235,16.43506765471207,-0.09144081727177274,2.1505816216048834,-1.6164801462961453
1.8634878296171666,15.94549756237016,-0.08961873453046011,2.1065496161508714,-1.5524430527819506
1.8430863365684989,15.46589138836972,-0.08778555284926194,2.0639388534181804,-1.4920461683578454
1.8231067856567384,14.995930758896801,-0.0859496724703929,2.022675315911554,-1.4349819567029838
1.8035489978853174,14.535313743157904,-0.08411804728109482,1.9826900383397326,-1.3809763225243372
1.7844113346699841,14.0837537405491,-0.08229641546093346,1.9439186799976838,-1.3297842950096637
1.76569095529215,13.640978461221817,-0.08048949217240715,1.906301140239553,-1.2811863457075487
1.7473840336388688,13.206728990714396,-0.07870113089960189,1.8697812119989021,-1.234985237342531
1.729485940821284,12.780758930401003,-0.0769344588185281,1.8343062689871248,-1.1910033185008044
1.7119913991380031,12.36283360644854,-0.07519199060130512,1.799826982773418,-1.1490801940095658
1.6948946119284072,11.95272934078928,-0.07347572426474573,1.7662970664375508,-1.1090707129080801
1.6781893731041353,11.55023277833001,-0.07178722203327238,1.7336730419039161,-1.0708432257395388
1.6618691595237198,11.15514026524237,-0.07012767866599134,1.7019140284233867,-1.03427807092618
1.6459272088606003,10.767257273726244,-0.06849797927417922,1.670981549977713,-0.999266256577932
1.6303565851884834,10.386397869119367,-0.06689874830944395,1.640839359647303,-0.9657083095057128
1.6151502341541684,10.01238421565036,-0.06533039111938391,1.6114532792136251,-0.9335132676860282
1.6003010293134454,9.645046117507029,-0.06379312923472663,1.5827910524675064,-0.9025977961304184
1.5858018109600365,9.284220592223367,-0.06228703036013501,1.554822210868691,-0.8728854091932298
1.5716454185721362,8.929751473682767,-0.06081203388247662,1.5275179503539238,-0.8443057849179237
1.5578247178290416,8.581489042296347,-0.059367972579215354,1.5008510182236567,-0.8167941591675115
1.5443326230058454,8.239289680147927,-0.05795459110075045,1.474795609153906,-0.7902907890830159
1.5311838706631933,7.903017983059382,-0.05638238579187733,1.4493061046595266,-0.7591830252562717
1.5183914158272716,7.572543844593866,-0.05485635191178973,1.4243820559101597,-0.7296469022883553
1.5059447718120196,7.247739756375932,-0.05337533517735725,1.4000013198979635,-0.7015828628430217
1.4938337208791064,6.928483174087415,-0.05193815119580179,1.3761428739152146,-0.6748988540014627
1.4820483198395236,6.61465626795497,-0.05054359697448302,1.3527867446277866,-0.649509672472243
1.470578903226863,6.306145688936141,-0.04919046052691277,1.3299139424924673,-0.6253363744996069
1.4594160844475836,6.00284234942864,-0.047877528858126094,1.3075064010510098,-0.6023057433474435
1.4485507552532906,5.70464121742955,-0.046603594570507126,1.2855469206802173,-0.5803498080988132
1.4379740838286925,5.411441123163186,-0.04536746129556382,1.2640191164186043,-0.559405408259792
1.4276775117451042,5.123144577279454,-0.044167948126943794,1.2429073695268933,-0.5394137993076946
1.4176527499920075,4.839657599799541,-0.04300389320433121,1.2221967824723425,-0.5203202948912096
1.4078917742672636,4.560889559053766,-0.041874156576050175,1.201873137056137,-0.5020739418852754
1.3983868196793108,4.286753019917949,-0.04077762244962717,1.1819228554292283,-0.48462722493656385
1.3891303749913742,4.017163600710564,-0.03971320092373516,1.162332963765428,-0.4679357975146654
1.3801151765177795,3.7520398381636575,-0.038679829281435256,1.1430910583815816,-0.4519582368167241
1.3713342017654084,3.4913030599267216,-0.0376764729130964,1.1241852741135163,-0.4366558201655134
1.3627806628987384,3.234877264104721,-0.036702125927512645,1.1056042547734424,-0.42199232079810023
1.354448000094425,2.982689005369849,-0.03575581150130061,1.0873371255297803,-0.40793382116885074
1.3463298748406904,2.7346672872215443,-0.034836582009435485,1.069373467064176,-0.3944485420905222
1.338420163227642,2.4907434600012763,-0.03394351897359379,1.0517032913729223,-0.3815066862139318
1.3307129492668175,2.2508511242978955,-0.033075732859663066,1.0343170190912683,-0.3690802945031215
1.3232025182715654,2.0149260394060313,-0.03223236275122475,1.0172054582292827,-0.35714311450157027
1.3158833503241552,1.7829060365246896,-0.031412575921907236,1.0003597842171794,-0.34567047930803263
1.3087501138506288,1.55473093640558,-0.03061556732614902,0.9837715211663922,-0.33463919628990346
1.3018045218756726,1.3304514604421058,-0.029780884629990692,0.9664847915594753,-0.3431511855272434
1.2950464830807256,1.1101333541997747,-0.028984670108679975,0.9493248279390686,-0.3540011080853897
1.2884671694831837,0.8937478976507016,-0.028226752478641034,0.9322878377050438,-0.3670593903445296
1.2820578058632155,0.681267225014647,-0.027506844216735726,0.9153701852171823,-0.38220068134050433
1.275809695233699,0.4726642895187112,-0.026824552561668838,0.8985683843127018,-0.3993035438271161
1.2697142418853329,0.2679128298129285,-0.026179389598035837,0.8818790913897674,-0.4182501581791594
1.2637629722098183,0.06698733791513689,-0.025570781493395842,0.8652990990258214,-0.4389260378351988
1.2579475534884983,-0.1301369714346805,-0.024998076952864837,0.8488253301030545,-0.46121975503892887
1.2522598108196372,-0.3234841901244465,-0.024460554950274594,0.8324548324166574,-0.4850226756886448
1.2466917423445187,-0.513077744832998,-0.023957431789886463,0.8161847737446747,-0.5102287021463029
1.2412355329206683,-0.6989404241101909,-0.02348786754794382,0.8000124373613622,-0.5367340228911274
1.235883566379675,-0.8810944044743252,-0.023050971938954112,0.7839352179789589,-0.5644368679279166
1.2306284364972357,-1.0595612756240698,-0.022645809647474605,0.7679506181057609,-0.5932372688771957
1.2254629567941115,-1.234362064859539,-0.022271405162300986,0.7520562448113585,-0.6230368226831684
1.2203801692786234,-1.4055172608055315,-0.02192674714629217,0.7362498068929078,-0.6537384578759313
1.2153733522340684,-1.5730468365287464,-0.021610792371576693,0.7205291124393919,-0.6852462023164602
1.2104360271479844,-1.7369702721405886,-0.021322469246545246,0.7048920667940236,-0.7174649513361615
1.2055619648744835,-1.8973065769775062,-0.021060680957809958,0.6893366709183006,-0.7503002351569457
1.2007451911159104,-2.0540743114520623,-0.02082430824717402,0.6738610201647908,-0.783657984442314
1.1959799913058193,-2.207291608670012,-0.020612211840574355,0.6584633034695558,-0.8174442927843008
1.1912609149717193,-2.3569761959116278,-0.020423234542904335,0.6431418029792815,-0.8515651748745474
1.1865827796531858,-2.503145416079512,-0.020256203009560235,0.6278948941327361,-0.8859263190395255
1.1819406744488046,-2.6458162492202177,-0.020109929202450378,0.6127210462212146,-0.920432832739015
1.177329963263995,-2.785005334233354,-0.019983211535023332,0.5976188234582258,-0.9549889795323799
1.1727462878310966,-2.9207289908894722,-0.019874835707572126,0.5825868865949613,-0.9894979059077926
1.1681855705732054,-3.0530032422872893,-0.019783575230613082,0.5676239951251575,-1.0238613562441363
1.1636440173841804,-3.1818438378917477,-0.019708191630474176,0.5527290101309756,-1.0579793740325552
1.1591181203990355,-3.3072662773073347,-0.019647434327307964,0.5379008978306331,-1.0917499873232224
1.1546046608316713,-3.4292858349562323,-0.019600040171511218,0.5231387338989156,-1.1250688761816006
1.1501007119606563,-3.547917585848623,-0.019564732619924533,0.5084417086435883,-1.1578290197361814
1.1456036423486302,-3.6631764326530885,-0.019540220528128902,0.49380913313435465,-1.1899203201756574
1.1411111193869945,-3.7750771342991527,-0.01952519652957229,0.4792404463966599,-1.2212292008074752
1.1366211132649973,-3.8836343363718413,-0.01951833496605627,0.464735223800603,-1.2516381750224803
1.1321319014712745,-3.9888626035904338,-0.019518289327185752,0.45029318679586533,-1.2810253827240234
1.1276420739465576,-4.090776454701192,-0.019523689148612945,0.4359142141672427,-1.309264090478768
1.1231505390188,-4.18939040015686,-0.019533136310148923,0.42159835501248316,-1.3362221513380788
1.1186565302666687,-4.284718983005931,-0.01954520066490545,0.4073458436750728,-1.3617614199756145
1.1141596144744774,-4.376776823472035,-0.019558414919366194,0.39315711689973454,-1.385737118507953
1.1096597008615365,-4.465578667770075,-0.019571268671424693,0.3790328335179788,-1.407997148140312
1.105157051791977,-4.5511394417813875,-0.01958220149865821,0.36497389701514954,-1.4283813416531665
1.1006522951978475,-4.633474310296691,-0.019589594972034472,0.35098148137878876,-1.4467206517838418
1.0961464389792743,-4.712598742633446,-0.01959176345034141,0.33705706067997687,-1.4628362708574243
1.0916408876814618,-4.78852858554432,-0.01958694348715772,0.32320244289282357,-1.476538677726582
1.0871374617902168,-4.861280144455556,-0.019573281654104612,0.3094198085092084,-1.4876266093994581
1.082638420036755,-4.930870274207429,-0.019548820549910476,0.29571175455052723,-1.495885956974713
1.0781464851604643,-4.9973164806104435,-0.019511482722181325,0.2820813446061525,-1.5010885891102883
1.0736648736473855,-5.0606370342754445,-0.019459052174155663,0.2685321655242882,-1.5029911118815116
1.0691973300458533,-5.120851098312606,-0.019389153056559905,0.25506839132056774,-1.5013335824919065
1.0647481665640504,-5.177978871606683,-0.01929922504607423,0.24169485471487331,-1.4958382072888607
1.0603223087849158,-5.232041749434657,-0.01918649477248583,0.22841712639791525,-1.4862080739623207
1.0559253485040019,-5.283062503151449,-0.019047942452853146,0.2152416015741544,-1.4721259966829672
1.0515636049247372,-5.33106548045685,-0.018880262584230235,0.2021755923858407,-1.453253595681777
1.047244195764211,-5.376076827258487,-0.018679817072520966,0.18922742328058476,-1.42923079582583
1.0429751202817845,-5.418124731186772,-0.018442578426838833,0.17640652392187367,-1.3996760214285062
1.0387653569262614,-5.457239685132386,-0.01816405944727624,0.16372351038781738,-1.364187500149815
1.0346249793437294,-5.493454766368025,-0.0178392238790888,0.15119023948728133,-1.3223462858987391
1.0305652961286755,-5.526805922304732,-0.017462369295293653,0.13881981213625916,-1.2737218936967283
1.0265990223208168,-5.557332246908814,-0.017026968164347688,0.12662648876882324,-1.217881838156685
1.0227404948902958,-5.5850762212059095,-0.016525444274964225,0.11462546164070156,-1.154406909994187
1.0190059513737486,-5.610083875917006,-0.015948847173272357,0.10283240541229396,-1.0829147188387012
1.0154139021536714,-5.6324048131941,-0.01528636343609447,0.0912627013450702,-1.0030948090077463
1.0119856453937084,-5.652091998282643,-0.014524564911410756,0.07993021246832911,-0.914759258294956
1.0087460037506186,-5.669201205886992,-0.013646231985021356,0.06884550583036694,-0.8179124036972437
1.0057244106993701,-5.683789995927654,-0.012628490199747612,0.05801353800150213,-0.7128406683394377
1.0029565540199235,-5.6959161368618325,-0.01143982875196338,0.0474311657739441,-0.6002156044636285
1.000486923372794,-5.705635566671198,-0.010035220353510298,0.03708561517706211,-0.48118662258019707
0.9983729015482425,-5.713000412289553,-0.008347578120849734,0.026956520634745455,-0.35741354900631456
0.9966918746034461,-5.718058527748326,-0.006270047486076178,0.01702709205026144,-0.23096316525174715
0.9955562787758869,-5.720858491528482,-0.003604698840526029,0.0073204190815530455,-0.10399412216800252
