x,y,v_x,v_y,omega
2.375,32.48,0.0,3.282051282051282,-4.571428571428571
2.373864611904604,31.831698356188863,-0.011353880953958208,3.2009651560600525,-4.261322395472047
2.3706359943555633,31.199261076685126,-0.02093229453644966,3.1234076389773255,-3.9828183307061273
2.3656425756157358,30.582006934964216,-0.029001892861828093,3.049133778231754,-3.7317555088766023
2.3591637936532335,29.979301340391185,-0.03578592676319175,2.977922167498576,-3.5046197267150343
2.3514379996182555,29.390551930358672,-0.04147201358659113,2.909571932826541,-3.298429169732806
2.3426689605410824,28.8152047155557,-0.046218377185136286,2.843900215203152,-3.110642662072089
2.333031233866777,28.252740689154408,-0.05015888955791775,2.7807400488098084,-2.9390855458091405
2.322674628326609,27.70267282845198,-0.05340716584376435,2.719938558214473,-2.781889458026741
2.311727921074116,27.164543431099226,-0.056059906681164395,2.661355415313072,-2.637443137304466
2.300301966540388,26.637921738583394,-0.05819963865611932,2.604861509845212,-2.5043520375572825
2.288492305598087,26.122401807892118,-0.05989697076689016,2.550337797067565,-2.381405015398129
2.2763813625436566,25.617600598828595,-0.0612124597774107,2.4976742935676386,-2.2675467291517206
2.2640403007624763,25.123156249684563,-0.06219815803439202,2.4467691978726975,-2.1618546731904007
2.2515305947233912,24.638726518207108,-0.06289890235645798,2.397528116901881,-2.063519992032189
2.238905365395783,24.163987368242303,-0.06335339091962995,2.3498633827461424,-1.971831390456302
2.2262105177150793,23.698631685270264,-0.06359508588740312,2.3036934469742407,-1.8861615904288933
2.213485711897616,23.242368106390348,-0.06365297228723163,2.2589423418249277,-1.8059558915844005
2.2007651948805744,22.79491995226961,-0.06355219788318231,2.215539199382442,-1.7307224758985496
2.188078513671588,22.356024250207454,-0.06331461420668233,2.1734178212391035,-1.6600241639486442
2.1754511287277682,21.925430838853888,-0.06295923523151532,2.1325162922965846,-1.5934713835382113
2.1629049424824496,21.502901546294176,-0.06250262722167238,2.0927766333005478,-1.530716154341178
2.1504587556711385,21.088209434215777,-0.06195924089143674,2.0541444874834283,-1.4714469268108639
2.1381286620740343,20.6811381017335,-0.06134169507960661,2.016568837339368,-1.4153841416179618
2.1259283906097814,20.281481043189686,-0.06066101956292123,1.9800017480987437,-1.3622763986668622
2.113869602318891,19.8890410548871,-0.059926863345983156,1.9443981349271051,-1.311897143338421
2.1019621486133135,19.503629686268376,-0.059147673709790904,1.9097155512601884,-1.2640417928434744
2.090214296198969,19.125066731540812,-0.05833085043365877,1.875913996015447,-1.2185252380962242
2.0786329232665834,18.753179758169146,-0.05748287889019422,1.8429557377011714,-1.1751796668468057
2.067223690865396,18.38780366903055,-0.056609445121682006,1.8108051536848142,-1.1338526623598348
2.0559911928016392,18.028780295353158,-0.05571553551588193,1.7794285830890981,-1.0944055390199887
2.044939086920898,17.675958017847925,-0.05480552329153324,1.7487941919632148,-1.0567118821514285
2.0340702102253485,17.329191413698478,-0.053883243663959336,1.7188718495312814,-1.0206562642683905
2.0233866799312445,16.988340927299866,-0.05295205927708218,1.689633014454839,-0.9861331141021399
2.0128899822785224,16.653272562838026,-0.052014917250137946,1.6610506301635433,-0.9530457182147137
2.0025810506547597,16.32385759698059,-0.0510743989874903,1.6330990284108093,-0.9213053379264844
1.9924603343828435,15.999972310109396,-0.05013276373167103,1.6057538403011438,-0.8908304267456779
1.9825278593398945,15.681497734667786,-0.049191986697819885,1.5789919141149518,-0.8615459355698489
1.9727832814193453,15.368319419323662,-0.04825379250767204,1.5527912393262782,-0.8333826946946297
1.963225933714623,15.06032720776399,-0.04731968453955074,1.5271308762704374,-0.8062768631654529
1.9538548681882193,14.757415031039653,-0.04639097072448714,1.5019908909729291,-0.7801694372860737
1.944668892491256,14.45948071247243,-0.0454687862451455,1.477352294699292,-0.7550058111889021
1.9356760854283863,14.166427284478065,-0.04445928438355164,1.4531819852443588,-0.7280409119587926
1.9268832822009072,13.878161222159761,-0.043468747891239126,1.429478637938659,-0.7022979310126418
1.918286672009911,13.594590787150025,-0.04249735401872272,1.4062257121586823,-0.6777071164922621
1.9098824173159055,13.315627474313509,-0.0415451929213332,1.3834074162064722,-0.654203452496291
1.90166667006359,13.04118586622544,-0.04061227960182029,1.3610086646741941,-0.6317262864459932
1.893635585664016,12.771183495888469,-0.039698564393921276,1.3390150386955326,-0.6102189896781989
1.8857853350080327,12.505540717133233,-0.03880394216591087,1.3174127488568153,-0.5896286479611814
1.8781121147514077,12.244180582191444,-0.03792826040033847,1.2961886005610903,-0.5699057789910922
1.8706121560827338,11.987028725969665,-0.037071326286401085,1.2753299616566753,-0.5510040742451983
1.8632817321596673,11.734013256588181,-0.036232912944263375,1.2548247321581651,-0.532880162849181
1.8561171643766656,11.48506465178209,-0.03541276488575467,1.234661315902748,-0.5154933953639557
1.8491148276077967,11.240115660792004,-0.03461060280293432,1.214828593998099,-0.4988056456170021
1.8422711545510277,10.999101211399168,-0.03382612776475434,1.1953158999302538,-0.48278112889764035
1.8355826392853292,10.761958321785059,-0.033059024892234154,1.1761129962108514,-0.46738623500813553
1.8290458401387055,10.528626016918665,-0.03230896657400027,1.1572100524530977,-0.4525893748156715
1.822657381953649,10.29904524919587,-0.0315756152765669,1.1385976247748328,-0.43836083908642437
1.8164139578262726,10.073158823074856,-0.030858625997196916,1.1202666364353013,-0.42467266850422486
1.8103123303864066,9.850911323469358,-0.0301576484014627,1.102208359619688,-0.4114985338843984
1.8043493326779987,9.632249047678162,-0.029472328682616327,1.084414398292282,-0.3988136256898556
1.7985218686921884,9.417119940644401,-0.028802311175485828,1.0668766720453262,-0.3865945520427252
1.792826913599264,9.20547353335224,-0.028147239753759542,1.0495874008762665,-0.3748192445019556
1.7872615137202743,8.997260884181486,-0.027506759036135097,1.0325390908312695,-0.3634668709464022
1.7818227862742777,8.792434523052599,-0.026880515423833306,1.0157245204576055,-0.3525177549648627
1.7765079189329582,8.590948398205658,-0.02626815798935901,0.999136728011801,-0.3419533012101345
1.7713192788319856,8.392928589481581,-0.02561824302036884,0.9810613592289652,-0.3658262994094668
1.7662566574413847,8.19851255314532,-0.02500797088564086,0.9630990041336547,-0.3914251540889338
1.7613122046062106,8.007677992888475,-0.024436557466098817,0.9452465984348158,-0.4186392568445422
1.7564782330374658,7.820403213316659,-0.023903158221349353,0.9275011972833491,-0.44736060143415574
1.751747229772199,7.636667096509683,-0.02340687443132012,0.909859970786397,-0.4774835431106459
1.7471118664397696,7.456449079438965,-0.022946758892971833,0.8923201999207862,-0.5089045637585593
1.7425650084394357,7.27972913216356,-0.022521821110366123,0.8748792728332534,-0.5415220418676205
1.7380997231271114,7.106487736728472,-0.02213103201287874,0.8575346815176436,-0.575236026387477
1.7337092871025188,6.936705866690524,-0.021773328233047354,0.8402840188618368,-0.6099480135122071
1.729387192681973,6.770364967198361,-0.02144761597240823,0.8231249760597767,-0.6455607254401351
1.7251271536366644,6.6074469355537175,-0.021152774480680914,0.8060553403866547,-0.6819778901442194
1.7209231102715181,6.447934102181243,-0.02088765917077914,0.7890729933380983,-0.7191040211704331
1.7167692339155067,6.2918092119337174,-0.020651104389334592,0.7721759091371554,-0.7568441964557752
1.712659930890604,6.139055405658404,-0.020441925859692473,0.7553621536159875,-0.7951038351233775
1.7085898460234699,5.989656201948549,-0.02025892281164849,0.7386298834825532,-0.8337884711690823
1.704553865761353,5.843595479001671,-0.02010087980951925,0.7219773459862096,-0.8728035229012089
1.7005471209516567,5.700857456503034,-0.01996656828744465,0.7054028790001547,-0.9120540569322688
1.696564989343104,5.561426677448711,-0.019854747798082422,0.6889049115430514,-0.9514445454473043
1.6926030978654918,5.425287989817701,-0.019764166978040648,0.6724819647670686,-0.9908786153873478
1.6886573247446406,5.292426527996486,-0.019693564230470098,0.6561326534450697,-1.0302587880872114
1.6847238015093768,5.162827693852396,-0.019641668122168734,0.6398556879958436,-1.069486207793262
1.6807989149482303,5.036477137343486,-0.019607197489295465,0.6236498770932468,-1.1084603573578193
1.6768793090750704,4.913360736542856,-0.019588861242305786,0.6075141309130369,-1.147078759261048
1.672961887165144,4.793464576943535,-0.01958535785695939,0.591447465080181,-1.1852366599474644
1.6690438139260324,4.6767749298965455,-0.0195953745341551,0.5754490053897064,-1.2228266952811893
1.6651225178719309,4.563278230018984,-0.019617586006860522,0.5595179933859158,-1.2597385347208738
1.6611956939744994,4.452961051390567,-0.01965065296745432,0.5436537928982693,-1.29585850159104
1.6572613066694228,4.345810082335969,-0.019693220083310186,0.5278558976476921,-1.3310691665813117
1.6533175933048585,4.24181209856572,-0.019743913562335035,0.5121239400548018,-1.3652489113393749
1.6493630681262919,4.14095393442005,-0.019801338223328677,0.496457701401896,-1.3982714587396585
1.645396526902125,4.043222451927477,-0.01986407401834135,0.4808571235238563,-1.43000536611186
1.6414170523057376,3.9486045073521154,-0.019930671945533253,0.46532232222977504,-1.4603134774088804
1.6374240201830617,3.857086914860389,-0.019999649281226276,0.44985360268748803,-1.4890523299943312
1.6334171068500698,3.768656406887878,-0.02006948404869147,0.4344514770376273,-1.5160715114539796
1.6293962975823504,3.6832995907298596,-0.020138608628502173,0.4191166845425636,-1.5412129616114163
1.625361896479429,3.601002900813725,-0.020205402400711565,0.40385021461876713,-1.5643102147977639
1.6213145379101268,3.5217525460370034,-0.020268183292310418,0.38865333314846434,-1.5851875774504454
1.6172551997725066,3.4455344514704294,-0.020325198083892323,0.37352761251726035,-1.6036592363878361
1.6131852188334648,3.3723341936310014,-0.020374611306525188,0.35847496587703337,-1.619528293757879
1.6091063084495576,3.3021369284248046,-0.020414492532548133,0.34349768618492493,-1.6325857258828067
1.6050205790132026,3.2349273107448617,-0.020442801831000987,0.3285984906145194,-1.6426092653001692
1.6009305615183438,3.1706894045868275,-0.02045737311758583,0.31378057096583895,-1.649362208641033
1.5968392346988547,3.109406582419954,-0.020455895077304644,0.29904765070288175,-1.6525921581836633
1.5927500562640944,3.051061412429725,-0.020435889270301114,0.2844040491993964,-1.6520297128398829
1.588666998843046,2.9956355321456414,-0.02039468494018121,0.2698547536414527,-1.6473871362311547
1.5845945913573558,2.943109506904843,-0.020329389916721473,0.25540549876651886,-1.6383570472285705
1.5805379666835657,2.8934626716149623,-0.020236856821177852,0.24106285413229334,-1.6246112045429064
1.5765029166505153,2.846672954423621,-0.020113643509326564,0.22683431778112265,-1.6057994955580406
1.572495955672534,2.802716681264407,-0.019955966270486857,0.21272841381100635,-1.5815492962668234
1.5685243946804834,2.7615683609629684,-0.019759643650018553,0.19875478920339124,-1.5514654520634081
1.564596427542636,2.7232004518544386,-0.01952002772845513,0.1849243018819005,-1.5151312499147864
1.5607212329674733,2.6875831129863528,-0.01923191802317172,0.17124908679896547,-1.4721109273178246
1.5569090961188619,2.654683946399846,-0.0188894504629438,0.15774257906609548,-1.4219545142318148
1.5531715561293533,2.6244677423189877,-0.01848594943214064,0.14441946174248096,-1.364206157980891
1.5495215888309193,2.596896247164871,-0.01801372355219966,0.13129548979870503,-1.298417566506281
1.5459738390945603,2.571927986146857,-0.017463773811389444,0.11838712038142901,-1.2241688387823955
1.5425449254222876,2.5495181886912626,-0.016825362911339084,0.1057108541745139,-1.141099700869312
1.5392538528652548,2.529618886257701,-0.016085362658988658,0.09328217016108493,-1.0489548669646338
1.5361225921161767,2.5121792756385375,-0.01522724483179231,0.08111393603054066,-0.9476474208868378
1.53317691773859,2.4971464575304054,-0.014229498944072924,0.06921424505077158,-0.8373426570497011
1.5304476552597737,2.484466646908011,-0.013063125844090338,0.057583861173176945,-0.7185595691070551
1.5279725819952956,2.4740868599230126,-0.011687606800689858,0.046214008676800145,-0.5922748420047914
1.5257994066357239,2.465956823811709,-0.01004414679502906,0.03508635243622875,-0.4599921515995731
1.5239906904013392,2.460030280853527,-0.008043015548819362,0.02417907714559392,-0.3237117483483384
1.5226330527808587,2.4562635655718132,-0.005533360655985352,0.01348807567154287,-0.18572005470619027
1.521860580934492,2.4546046407545887,-0.0021913578076803598,0.003101172500690851,-0.048152143763005195
