x,y,v_x,v_y,omega
2.375,32.48,0.0,2.5128205128205128,-5.918367346938775
2.3738130874958716,31.957934898075774,-0.011303928610746585,2.45922807693398,-5.587374254434549
2.3704070954264793,31.446920323779263,-0.02113409109775137,2.4075773925565938,-5.283735983162729
2.3650723007832335,30.94656112838799,-0.029673476933160366,2.357748277836497,-5.004474044256399
2.3580631701205323,30.456486256508306,-0.03708014842590112,2.309631454350985,-4.746999119024984
2.3496031939894846,29.976346600793605,-0.04349105282217141,2.263127171503295,-4.509052214055292
2.3398889899430846,29.505813122007723,-0.04902517619116286,2.218144055028904,-4.2886559435654
2.3290937988457094,29.04457519197178,-0.05378616759336134,2.1745981357896143,-4.084073975047602
2.3173704752044393,28.592339125112314,-0.057864533752069916,2.1324120247767255,-3.8937770998443284
2.3048540534321185,28.148826870712234,-0.06133948312717538,2.091514207605005,-3.716414713761983
2.2916639570899884,27.7137748429882,-0.06428048203596624,2.0518384373857734,-3.5507907410186825
2.2779059063166227,27.28693287009964,-0.0667485729484712,2.013323209171946,-3.3958432269495042
2.2636735691448067,26.868063246374334,-0.06879749535453587,1.9759113024976556,-3.250626974842961
2.249049994725678,26.45693987459347,-0.07047464197049849,1.9395493811296032,-3.1142987202047583
2.234108860231317,26.053347487250647,-0.07182187702341893,1.9041876411830023,-2.9861044291345964
2.2189155580961137,25.657080937388315,-0.07287623854994495,1.869779500363032,-2.8653683819472695
2.2035281460545137,25.267944551001214,-0.07367054279862474,1.8362813223712713,-2.7514837628750994
2.1879981789600063,24.885751534140574,-0.07423390572049333,1.8036521715395621,-2.6439045248450492
2.1723714384878137,24.510323428803307,-0.07459219401467597,1.7718535935772732,-2.542138337370668
2.1566885744213535,24.141489612484285,-0.07476841614208712,1.7408494189848542,-2.4457404574164503
2.140985669212534,23.77908683693675,-0.07478306203714545,1.7106055862297693,-2.3543083891391636
2.1252947358181635,23.42295880224891,-0.07465439886162055,1.6810899822258307,-2.267477219826789
2.1096441573928093,23.072955762822744,-0.07439872899889798,1.6522722980233655,-2.184915537036541
2.0940590762166673,22.728934162248585,-0.07403061553578627,1.6241238979210035,-2.106321846587017
2.078561738218327,22.39075629441834,-0.07356307968650376,1.5966177004623006,-2.0314214232486587
2.063171798586398,22.05828998852069,-0.07300777395091436,1.5697280699915022,-1.9599635361510166
2.0479065932260023,21.73140831582147,-0.07237513424333183,1.5434307176201203,-1.891718999445816
2.032781380185586,21.409989316357755,-0.07167451376063175,1.517702610605717,-1.8264780059227101
2.0178095546395127,21.093915743870674,-0.07091430096387448,1.4925218892712377,-1.7640482073057249
2.00302469936622,20.783080558829354,-0.0698938444960589,1.4678132063603606,-1.6985752454518535
1.988456484886122,20.47738063171749,-0.06885105531439727,1.4436146708955049,-1.6362178375924834
1.9741091071917023,20.176710825745417,-0.06779063701340876,1.419907290743296,-1.5767897017695178
1.959985830518056,19.880969896013127,-0.06671675987846175,1.3966729924213555,-1.5201178149323984
1.9460890933323354,19.590060302514352,-0.0656331180807829,1.3738945647098502,-1.4660413190426005
1.932420602977814,19.303888034542602,-0.06454298053370733,1.3515556064496903,-1.4144105295675438
1.9189814202256503,19.022362445658654,-0.06344923615356508,1.329640478159316,-1.3650860356556476
1.9057720348410836,18.745396098452265,-0.06235443417564009,1.3081342571396284,-1.31793788252111
1.8927924331426558,18.472904618396772,-0.061260820095101566,1.2870226957698299,-1.2728448276474575
1.8800421584207136,18.204806556154672,-0.0601703677329185,1.266292182726342,-1.229693663364488
1.867520364982825,17.94102325774569,-0.059084807866022,1.2459297068830213,-1.188378599182231
1.855225866507042,17.681478742037196,-0.05800565380810063,1.2259228236740711,-1.1488006979935657
1.8431571793076533,17.426099585060644,-0.056934224281314456,1.206259623721668,-1.1108673608975486
1.8313125610508239,17.174814810697253,-0.055871663878967436,1.1869287035487328,-1.0744918559597574
1.8196900453982128,16.927555787312194,-0.05481896138399387,1.167919138213724,-1.0395928867238609
1.8082874730042755,16.684256129949254,-0.05377696617731503,1.1492204557190697,-1.006094196728684
1.7971025192466292,16.444851607727653,-0.05274640294312603,1.1308226130580672,-0.9739242066745107
1.7861327190278806,16.209280056109975,-0.051727884854481126,1.1127159737769563,-0.9430156812275847
1.7753754889509785,15.97748129373474,-0.05072192540172849,1.0948912869395622,-0.9133054227581774
1.7648281471379534,15.749397043529974,-0.049728949008032784,1.0773396673915356,-0.8847339895799231
1.7544879309333,15.524970857844721,-0.048749300560095805,1.0600525772299147,-0.8572454365004942
1.7443520127078536,15.304148047354463,-0.04778325396796607,1.0430218083915979,-0.830787075709664
1.734417513956413,15.086875613513794,-0.0468310198552777,1.0262394662814314,-0.8053092562235117
1.724681517862241,14.8731021843457,-0.04589275247016996,1.0096979543670712,-0.7807651602756741
1.7151410804836533,14.662777953371428,-0.04496855589733163,0.9933899596736313,-0.7571106152005211
1.7058011771915176,14.456004910725461,-0.043982904027770685,0.975877113145108,-0.7629160266206902
1.696664314193351,14.252896794805576,-0.0430348388119097,0.9584858956156915,-0.7709543629050444
1.6877226305355393,14.053428430155833,-0.042124053167249806,0.9412128153342527,-0.7810996755381359
1.6789683400656057,13.857575359486624,-0.041250141784499705,0.9240545243724826,-0.7932297126968598
1.67039375112249,13.665313814130247,-0.040412610054696936,0.9070078123549241,-0.8072256372739153
1.6619912844279663,13.476620685761254,-0.03961088227410066,0.8900696006830956,-0.8229717552263931
1.653753489325369,13.291473499280329,-0.0388443091792072,0.8732369372304774,-0.8403552531168478
1.6456730585012584,13.10985038676488,-0.03811217485994027,0.8565069914881034,-0.859265943757696
1.6377428413159834,12.931730062393576,-0.037413703095061555,0.8398770501433681,-0.8795960189056408
1.6299558558602412,12.757091798255392,-0.03674806315010254,0.8233445130774524,-0.9012398079812939
1.6223052998466465,12.585915400956459,-0.03611437507460658,0.806906889769527,-0.9240935418104337
1.6147845604379358,12.418181188940302,-0.035511714532163764,0.790561796098632,-0.9480551203974799
1.607387223106731,12.253869970438572,-0.03493911719359456,0.774306951536887,-0.9730238837488336
1.6001070796157335,12.092963021970498,-0.03439558272066691,0.7581401767304962,-0.9989003847636628
1.59293813520175,11.935442067309666,-0.03388007836489134,0.7420593914679015,-1.025586163202413
1.5858746150420995,11.781289256836605,-0.03339154220320739,0.7260626130374486,-1.0529835197286097
1.5789109700776414,11.630487147194764,-0.032928886029728203,0.7101479549800999,-1.0809952889971486
1.5720418822629068,11.483018681166012,-0.03249099792012674,0.694313626246103,-1.1095246107319428
1.5652622693106095,11.338867167679517,-0.03207674448270307,0.6785579307681466,-1.1384746976971383
1.558567288995123,11.19801626186478,-0.03168497280764393,0.6628792674674621,-1.1677485994186965
1.5519523430773583,11.060449945055765,-0.03131451212344922,0.647276130713627,-1.197248960456506
1.5454130809118687,10.926152504648162,-0.030964175166929408,0.6317471112635472,-1.2268777719608046
1.5389454027959335,10.795108513705905,-0.03063275927054601,0.6162908977103286,-1.2565361151700378
1.532545463119871,10.66730281020607,-0.030319047168145652,0.6009062784785778,-1.286123895419817
1.5262096733778996,10.542720475802856,-0.03002180751729548,0.5855921444091852,-1.3155395651338846
1.5199347050995735,10.421346813981575,-0.029739795133430065,0.5703474919839643,-1.3446798341575548
1.5137174927631412,10.303167327462141,-0.029471750927830425,0.5551714272487563,-1.3734393656717567
1.5075552367542255,10.188167694698215,-0.029216401538032982,0.5400631705029094,-1.4017104557916387
1.5014454064359977,10.076333745302886,-0.02897245863556504,0.5250220618335447,-1.4293826948082091
1.4953857434006168,9.967651434213948,-0.028738617891871418,0.5100475675849069,-1.4563426078758765
1.4893742649761883,9.862106814391549,-0.02851355757887637,0.4951392878665246,-1.4824732727851608
1.4834092680689528,9.75968600781756,-0.028295936775748428,0.48029696521907794,-1.5076539122918469
1.4774893334269565,9.66037517453929,-0.02808439314802512,0.4655204945739598,-1.5317594583070258
1.471613330419196,9.564160479469546,-0.027877540259217553,0.4508099346617043,-1.5546600850952716
1.4657804224333129,9.471028056620248,-0.027673964368240597,0.4361655210458763,-1.576220708493126
1.459990073005519,9.380963970407244,-0.02747222065836644,0.4215876809827454,-1.5963004480653529
1.4542420528087465,9.293954173619085,-0.027270828834706752,0.40707705033306696,-1.6147520490883531
1.4485364476392888,9.209984461592178,-0.027068268017270282,0.3926344927803214,-1.6314212613263008
1.4428736675587372,9.12904042207812,-0.026862970845125938,0.37826112163928405,-1.6461461717995811
1.4372544573671573,9.051107380226274,-0.026653316693728182,0.3639583245687817,-1.6587564892129878
1.431679908605711,8.976170338035779,-0.026437623891475304,0.3497277915311755,-1.6690727785206545
1.426151473312867,8.904213907556617,-0.02621414080227742,0.3355715463655966,-1.6769056454083542
1.4206709797888273,8.835222237040675,-0.02598103561714913,0.3214919823576646,-1.6820548724874815
1.4152406506588981,8.76917892916336,-0.025736384667887732,0.3074919021882033,-1.684308512024373
1.409863123569869,8.706066950358874,-0.025478159037150394,0.2935745626164124,-1.68344194450666
1.4045414749062568,8.645868530244986,-0.025204209187729094,0.2797437241825091,-1.6792169188891053
1.3992792469788877,8.588565050067825,-0.02491224726340462,0.26600370607617313,-1.6713805998359688
1.3940804792216674,8.534136919092148,-0.02459982661488529,0.2523594460731372,-1.6596646609213532
1.3889497440410932,8.48256343792547,-0.024264317962011835,0.23881656503806892,-1.6437844823153667
1.3838921881087143,8.433822647937564,-0.023902881393979048,0.2253814348467689,-1.6234385394501278
1.3789135800873429,8.387891166283058,-0.023512433095270322,0.21206124757710065,-1.5983081090127589
1.3740203660656454,8.344744006647339,-0.023089605206612043,0.19886408228688782,-1.5680574752172562
1.3692197343872614,8.30435438685026,-0.022630696492283758,0.18579896339958787,-1.5323348993492005
1.3645196921703384,8.266693526053906,-0.02213161033555425,0.17287590132758066,-1.4907747280137114
1.3599291567331364,8.231730436804185,-0.021587774780655013,0.16010590105073436,-1.4430011718229752
1.3554580665488272,8.199431720864396,-0.020994036498480605,0.14750091742343827,-1.3886344999357847
1.3511175185290951,8.169761383251636,-0.02034451607039523,0.13507372650760954,-1.327300679967309
1.346919941824638,8.142680686616373,-0.019632404924434348,0.12283767001871897,-1.2586458528326785
1.3428793236215575,8.11814807860425,-0.018849673200141775,0.11080621581100839,-1.182357448878974
1.3390115106661507,8.096119238170616,-0.017986640660876626,0.09899226450931213,-1.0981941440298302
1.3353346230667937,8.076547301772102,-0.017031336475856456,0.08740712976224085,-1.006027005877615
1.3318696366906781,8.059383342712326,-0.015968533772862895,0.0760591469975159,-0.9058936094786361
1.3286412208701575,8.044577176257345,-0.014778283565430341,0.06495196209752895,-0.7980646928485903
1.325678965630593,8.032078527907512,-0.013433671097089362,0.054082784091344704,-0.6831176201441382
1.3230192122930984,8.021838493655277,-0.011897313069525732,0.04344135164421618,-0.5620009541601471
1.3207078596101676,8.013810976918169,-0.01011556962505408,0.03301118870918896,-0.43605990510930764
1.318804926518723,8.007953298172133,-0.008007602674418454,0.022776227919710235,-0.3069785949078787
1.3173930639313391,8.00422407828906,-0.005438707681617123,0.01274015191908321,-0.17659414023541378
1.3165993455812641,8.002572194512044,-0.0021205147000491202,0.002992074528682097,-0.046571387865713104
