x,y,v_x,v_y,omega
2.375,32.48,0.0,2.1538461538461537,-8.0
2.3738275728986755,32.05338141736861,-0.011724271013245108,2.11233967246772,-7.620748092405524
2.370442965640733,31.634933003404402,-0.02212180156618305,2.072144467174367,-7.267521900647481
2.365097353033274,31.224400273438008,-0.031334324508402504,2.033182832489565,-6.937900972406512
2.3580152655132274,30.821543580156643,-0.03948655069206289,1.995384100324072,-6.629742134581029
2.349397755686612,30.426136794576387,-0.0466885475740908,1.958683755478506,-6.3411417683313305
2.339425128043258,30.0379661500238,-0.053037728859450066,1.9230226900473608,-6.070404076460878
2.32825930225739,29.656829223886188,-0.058620528999230745,1.8883465713287408,-5.81601424800877
2.3160458673174644,29.282534036449285,-0.06351382040002637,1.854605303040303,-5.5766156515746514
2.302915873368727,28.914898249777984,-0.06778611908734454,1.8217525636727148,-5.350990363303113
2.2889873999315338,28.553748452514654,-0.07149861528458895,1.7897454089605667,-5.138042470821194
2.2743669325835314,28.198919518825967,-0.07470605819543705,1.758543927926319,-4.936783700342804
2.2591505748953744,27.850254031642198,-0.0774575186861309,1.7281109439113709,-4.7463209976670635
2.2434251181096183,27.507601761894385,-0.07979704917143157,1.69841175356676,-4.565845760118196
2.2272689875394143,27.170819196735415,-0.08176425653060623,1.6694138980229316,-4.394624469499656
2.2107530817756373,26.839769110787028,-0.08339480110716457,1.641086961460934,-4.231990518801406
2.1939415184029087,26.514320175329125,-0.08472083262012381,1.6134023931181203,-4.07733705993783
2.176892297939306,26.194346601075317,-0.08577137201589807,1.586333349419924,-3.9301107279123055
2.159657896054969,25.87972781078667,-0.08657264682747508,1.5598545534665784,-3.789806119819631
2.1422857927310686,25.57034813848561,-0.08714838641152944,1.5339421695440132,-3.6559609260314194
2.124818945844859,25.266096552462148,-0.08752008245056563,1.5085736906906142,-3.528151626560828
2.1072962156703925,24.96686639962798,-0.08770721929409918,1.4837278376510878,-3.405989678599612
2.089771655343682,24.67256812168199,-0.08753838397300698,1.4592549418087606,-3.2833113884125753
2.0722926182984094,24.383115498630985,-0.08725198647971794,1.4352712887013184,-3.1662787661922707
2.0548813962867567,24.098412515902126,-0.08686023363681138,1.4117585385872817,-3.054563692095725
2.0375579530735393,23.818366735405878,-0.08637419849536145,1.3886992663752091,-2.9478608295987696
2.0203401403156773,23.542889118595056,-0.08580392908326037,1.3660769017330217,-2.845885779813922
2.0032438928139507,23.27189386101256,-0.08515854593400651,1.343875674091905,-2.7483734069463135
1.986283405254499,23.005298237397348,-0.08444632966050844,1.322080562060228,-2.6550763169486027
1.969471292320311,22.743022456509408,-0.08367479968136966,1.300677246819176,-2.5657634735420833
1.9528187338450094,22.484989524915427,-0.08285078507164827,1.2796520691206066,-2.4802189376025274
1.936335606498551,22.231125119048357,-0.08198048839293406,1.2589919895501134,-2.3982407175052876
1.9200306033336567,21.981357464917814,-0.08106954325601066,1.2386845517553189,-2.3196397194182246
1.9039113423799474,21.735617224905102,-0.0801230662810815,1.2187178483718037,-2.244238787751278
1.8879844653474773,21.493837391127173,-0.07914570404361877,1.1990804894074663,-2.1718718270418713
1.8722557273904425,21.255953184899326,-0.07814167552673014,1.1797615728710416,-2.102382997496073
1.8567300787835528,21.021901961866973,-0.07711481054216808,1.1607506574524629,-2.035625977233856
1.8414117392762779,20.791623122413515,-0.07606858453057928,1.1420377370821246,-1.9714632850176215
1.8263042658125872,20.56505802698398,-0.07500615010632791,1.1236132172132365,-1.9097656578890327
1.811410614234715,20.342149915993993,-0.07393036567239357,1.1054678926866457,-1.8504114787110106
1.7967331955279027,20.12284383402023,-0.07284382139573035,1.0875929270509812,-1.793286249118767
1.7822739271080827,19.907086557992834,-0.07174886280246838,1.0699798332229764,-1.7382821038340825
1.7680342796053439,19.694826529132186,-0.07064761222491919,1.0526204553835157,-1.6852973626976042
1.754015319552046,19.486013788392384,-0.06954198830806138,1.0355069520145033,-1.6342361171307953
1.7402177483450756,19.280599915191914,-0.06843372376164333,1.0186317799902014,-1.5850078480575156
1.7266419378164202,19.078537969228456,-0.06732438152490978,1.0019876796443408,-1.5375270725996213
1.7132879627145345,18.879782435189906,-0.06621536949394631,0.9855676607411883,-1.4917130171153978
1.700165909426023,18.68449760497173,-0.06500516339116684,0.9672806414405466,-1.4879393825750526
1.6872825598344854,18.49285742470991,-0.06382833252421094,0.9491211611776641,-1.4865564309729258
1.6746312568781194,18.30483675101123,-0.06268469703944876,0.9310855758091621,-1.4874212240446296
1.6622053907749215,18.120411153232986,-0.06157396399253004,0.9131704019732674,-1.490394707921057
1.6499984206844032,17.939556881973502,-0.06049573691265456,0.8953723106215612,-1.4953413888333604
1.638003894531918,17.76225083879877,-0.059449524612197754,0.8776881211257627,-1.5021290195646813
1.6262154671412603,17.58847054709247,-0.05843474929437897,0.86011479593726,-1.5106282953097225
1.6146269168110938,17.418194123920664,-0.05745075400728595,0.8426494357807711,-1.5207125576484903
1.6032321604615172,17.25140025280588,-0.056496809488481056,0.8252892753671064,-1.5322575053766474
1.5920252674686113,17.08806815730781,-0.05557212044057775,0.8080316796135738,-1.5451409109622367
1.5810004722970974,16.928177575310038,-0.054675831274561285,0.7908741403641298,-1.5592423414172734
1.5701521860342207,16.771708733913126,-0.05380703135420525,0.7738142736049953,-1.5744428823830328
1.559475006921632,16.61864232483511,-0.052964759771679394,0.7568498171751554,-1.590624864229886
1.5489637299763315,16.468959480220096,-0.05214800968132752,0.7399786289749936,-1.607671588966301
1.5386133557866395,16.322641748754567,-0.05135573221559181,0.7231986856803206,-1.6254670567371408
1.5284190985646655,16.179671071989205,-0.05058684000414754,0.7065080819732957,-1.643895690668636
1.5183763935328045,16.04002976076125,-0.04984021031446401,0.6899050303062535,-1.6628420587863597
1.508480903718438,15.903700471608694,-0.0491146878292001,0.6733878612193138,-1.6821905916931674
1.498728526228213,15.770666183062971,-0.048409087073049556,0.6569550242379113,-1.7018252946464147
1.4891153980710234,15.64091017170097,-0.04772219449884674,0.6406050893821182,-1.7216294526179614
1.4796379015971488,15.514415987830166,-0.047052770239899844,0.624336749325924,-1.7414853268567538
1.4702926696198981,15.391167430672418,-0.046399549532606686,0.6081488222515452,-1.7612738414026554
1.4610765902855978,15.271148522902116,-0.045761243810396424,0.5920402554514803,-1.7808742579224743
1.4519868117578687,15.154343484383023,-0.04513654146689451,0.5760101297394611,-1.8001638371561026
1.4430207467828904,15.040736704934996,-0.04452410828288927,0.5600576647408044,-1.819017485174298
1.434176077203787,14.930312715946616,-0.04392258750814351,0.5441822251430102,-1.8373073825627846
1.4254507584944434,14.823056160632426,-0.043330599585293506,0.5283833279988831,-1.8549025945642124
1.4168430243860188,14.718951762713832,-0.04274674149895163,0.5126606511870443,-1.8716686601360402
1.4083513916632628,14.61798429328028,-0.042169585728608294,0.49701404314849484,-1.8874671578270266
1.3999746652125094,14.520138535562143,-0.0415976787789265,0.4814435340328884,-1.9021552463494615
1.3917119434090734,14.425399247318424,-0.041029539255431256,0.4659493484043001,-1.9155851777449362
1.3835626239388028,14.333751120510659,-0.040463655447277404,0.45053191967333917,-1.9276037811309668
1.3755264101569198,14.245178737899316,-0.03989848237155096,0.4351919064400857,-1.938051915205457
1.3676033180972471,14.159666526160319,-0.03933243822517762,0.4199302109498943,-1.94676388801889
1.3597936842566651,14.077198705077269,-0.038763900180643074,0.4047479998805883,-1.9535668430596145
1.35209817429361,13.997759232319872,-0.03819119944990895,0.3896467276933618,-1.9582801115172115
1.3445177927959715,13.921331743271697,-0.03761261552647581,0.37462816278840083,-1.9607145318049652
1.3370538942935681,13.847899485322237,-0.03702636949755681,0.35969441670619867,-1.960671739189318
1.3297081957142716,13.777445245991476,-0.03643061629540833,0.34484797660142025,-1.957943430904518
1.3224827905120304,13.70995127421332,-0.03582343572700263,0.33009174118012635,-1.952310615717344
1.315380164731186,13.645399194073129,-0.035202822081442306,0.31542906022179984,-1.9435428619534165
1.3084032153170058,13.583769910282104,-0.034566672060361195,0.3008637776884591,-1.9313975650594184
1.301555271040833,13.525043504690203,-0.03391277070136735,0.2864002782305553,-1.9156192656205722
1.2948401164848653,13.46919912320719,-0.03323877485830848,0.2720435365995745,-1.8959390624331935
1.2882620196340784,13.416214852644984,-0.032542193649559625,0.2577991690224837,-1.8720741841912505
1.2818257637627704,13.366067587251116,-0.03182036506352102,0.24367348491621119,-1.8437278095497611
1.275536684498033,13.318732885126682,-0.031070427583853345,0.2296735363281402,-1.8105892614295154
1.26940071321845,13.274184815388427,-0.03028928521197748,0.21580716105439804,-1.772334750951503
1.2634244283433307,13.232395797948605,-0.02947356353921525,0.20208301334381457,-1.728628913900769
1.2576151166462783,13.193336439291258,-0.02861955343130914,0.1885105732296664,-1.6791274737832707
1.2519808475785514,13.156975369808663,-0.027723137245959137,0.17510012159628927,-1.6234814868544833
1.2465305648511744,13.123279091364964,-0.026779690027810093,0.16186266284069137,-1.5613437822487761
1.2412742014085159,13.092211848050791,-0.025783944398775797,0.1488097703010389,-1.4923784078412696
1.2362228267404818,13.063735538848007,-0.024729802281563972,0.1359533217267949,-1.4162741238692351
1.2313888396813852,13.037809698268113,-0.023610068309401395,0.12330508407214286,-1.3327632237873615
1.2267862260886677,13.014391579681035,-0.02241606761777411,0.1108761017986145,-1.241647131080444
1.2224309100164605,12.993436384768803,-0.021137093104297188,0.09867584732372615,-1.1428301587062255
1.218341240515964,12.974897688100977,-0.019759601900668097,0.08671111935450897,-1.0363622088396922
1.2145386759716765,12.95872810138988,-0.018266043542204898,0.07498474775644898,-0.9224894981137519
1.2110487573954227,12.944880194779572,-0.01663314222033295,0.06349431834663394,-0.8017088643612466
1.2079025094606648,12.933307621411345,-0.014829337127246217,0.052231415335631914,-0.6748151558227611
1.205138497145173,12.923966244706484,-0.012810786027671842,0.04118235171296237,-0.5429228842795526
1.202805976389545,12.916814794187907,-0.01051442152861071,0.030332153472817168,-0.4074354857977004
1.20097020716327,12.911814035276368,-0.007843270734137847,0.01967543564258288,-0.26993414118867826
1.1997234531586576,12.908921889631976,-0.00462426931198642,0.009246020801344956,-0.1319700965590241
1.1992211171191411,12.908072383228511,-0.0003990910831790659,-0.0007509567666897296,0.005148423794164719
