x,y,v_x,v_y,omega
2.375,32.48,0.0,3.5384615384615383,-4.938775510204081
2.373668428403252,31.781574188111286,-0.013315715967482336,3.4457965804255575,-4.579797698560686
2.3698956130930675,31.101246818241513,-0.024412437134359907,3.3574771182721928,-4.260200563118447
2.364089728572144,30.43818107945936,-0.03364640807487784,3.273180269549342,-3.974427927066763
2.356593893293817,29.79160141533935,-0.04131194470839077,3.1926163716507276,-3.717846564706262
2.3476973732570614,29.16078733468159,-0.04765325565916373,3.1155244349268942,-3.486572199108454
2.337644668941649,28.545068051641135,-0.05287378749496419,3.0416683954776653,-3.277332030816864
2.326642924035461,27.943817812621553,-0.05714366156691264,2.9708339947181477,-3.0873553535542397
2.3148679950806246,27.356451797491133,-0.060605627981452886,2.902826156586032,-2.91428594555863
2.302469446395011,26.78242250537388,-0.06337985887468081,2.837466764586517,-2.756111472659829
2.2895746777978108,26.221216552554132,-0.06556782709732169,2.774592763610943,-2.6111062750755885
2.2762923491048674,25.67235182337348,-0.0672554598321109,2.7140545281955974,-2.477784752355283
2.262715231706062,25.13537492541827,-0.06851571415594557,2.655714451356498,-2.354863191656468
2.2489225913560142,24.609858908528114,-0.06941068934452878,2.5994457175450436,-2.241228360896615
2.2349821858105203,24.095401213728287,-0.06999336611041324,2.5451312304532507,-2.1359115509390483
2.2209519447960857,23.59162182348858,-0.07030904403393351,2.4926626719438056,-2.038067029036484
2.206881387014179,23.098161589023398,-0.07039653378513341,2.441939672707994,-1.9469540804376353
2.1928128187045575,22.614680713886067,-0.07028914931108146,2.3928690786653464,-1.8619219818635446
2.1787823501522876,22.14085737603631,-0.0700155362116159,2.345364299832213,-1.7823973809310396
2.164820759983574,21.67638647299668,-0.06960036547552235,2.299344730564091,-1.7078736580676217
2.1509542318192647,21.220978476756407,-0.06906491616757092,2.2547352318386276,-1.637901928422539
2.1372049835807116,20.77435838680424,-0.06842756621795582,2.2114656676830373,-1.5720834055660329
2.1235918062669104,20.336264771132967,-0.06770420692005766,2.169470489029708,-1.5100629000584256
2.11013052618505,19.906448886304062,-0.06690859389854602,2.1286883592593275,-1.4515232670751943
2.09683440229322,19.48467386872789,-0.0660526450197557,2.0890618165024524,-1.396180650357774
2.083714468404725,19.070713990232697,-0.06514669386519703,2.050536968449431,-1.3437803964971986
2.0707798284294605,18.664353971788778,-0.0641997058874451,2.0130632159897863,-1.294093535251336
2.0580379115261844,18.2653883499413,-0.06321946314531564,1.9765930024849783,-1.2469137392643836
2.0454946929599593,17.873620891103947,-0.062212722516936735,1.9410815858885524,-1.2020546909988263
2.033154885561125,17.48886404938735,-0.061185351471405844,1.9064868312774366,-1.1593477965356949
2.021022105933231,17.110938464093834,-0.060142444807533973,1.872769021657691,-1.1186401956480798
2.009099018931065,16.73967249341152,-0.05908842521412484,1.8398906851655088,-1.0797930256026214
1.9973874634048272,16.37490178119433,-0.05802713004825363,1.8078164370063867,-1.0426799028112184
1.985888561765162,16.016468854026925,-0.0569618863483962,1.7765128346676442,-1.007185591994625
1.9746028155519457,15.664222746049521,-0.05589557578376741,1.7459482451063801,-0.9732048371353362
1.963530188875734,15.318018649262854,-0.05483069097835064,1.7160927227603011,-0.9406413323542039
1.952670181335047,14.977717587251249,-0.05376938442851774,1.68691789735576,-0.9094068140771909
1.9420218917872676,14.64318611045583,-0.052713511049277476,1.6583968705984413,-0.8794202585741255
1.931584074159352,14.314296011303021,-0.05166466522987836,1.6305041209296336,-0.850607171238757
1.9213551863213956,13.990924057648378,-0.050624213149686015,1.603215415616791,-0.8228989559111783
1.9113334329068445,13.672951743134426,-0.04959332099582344,1.5765077295227103,-0.7962323541790884
1.9015168028441014,13.36026505318571,-0.048572979631609225,1.5503591699644486,-0.770548945982198
1.8919031022622848,13.052754245476038,-0.04756402618655779,1.5247489071322586,-0.7457947040245678
1.8824899833463982,12.750313643803683,-0.04656716297230766,1.4996571095912785,-0.7219195955060524
1.8732749696419266,12.45284144440102,-0.04558297407240693,1.4750648844353353,-0.6988772255438939
1.864265016175679,12.160240927639517,-0.04451656059007133,1.4509402831796845,-0.6739504630757761
1.8554659575314862,11.872418804755359,-0.043474025851857286,1.4272809456618925,-0.6501508457499429
1.8468730391859878,11.58928366887854,-0.04245515760312665,1.4040704131062929,-0.6274141594756764
1.8384815544914244,11.310747330503663,-0.041459689342507856,1.381292970642464,-0.6056805417693318
1.8302868546317224,11.036724672935211,-0.04048730925451194,1.3589336050420593,-0.5848941399897173
1.8222843569079217,10.767133515900024,-0.03953766798349552,1.3369779653098162,-0.5650027999939311
1.8144695515700255,10.501894486778546,-0.038610385395463645,1.3154123259049604,-0.5459577821938678
1.8068380073849597,10.240930898949134,-0.03770505645519691,1.2942235523891703,-0.5277135023236912
1.7993853761064647,9.984168636778694,-0.03682125632975263,1.273399069315216,-0.5102272945193266
1.792107395991973,9.731536046828516,-0.035958544815163876,1.252926830186572,-0.4934591945675252
1.7849998944933736,9.482963834876568,-0.03511647017083109,1.2327952893329048,-0.4773717414086494
1.77805879023275,9.238384968387322,-0.03429457243540424,1.2129933755595346,-0.4619297951777993
1.7712800943603433,8.99773458408728,-0.033492386288661954,1.1935104674409043,-0.44710037024649774
1.7646599113798955,8.760949900329297,-0.03270944351581535,1.1743363701389111,-0.4328524818846987
1.7581944395159508,8.52797013395173,-0.03194527512363225,1.155461293636755,-0.41915700530282807
1.7518799706884225,8.29873642135927,-0.03119941315165089,1.1368758322878663,-0.4059865459580363
1.7457128901516166,8.073191743571726,-0.030471392216408634,1.1185709455875636,-0.39331532011968756
1.739689675847781,7.851280855004724,-0.029760750821947613,1.1005379400824575,-0.38111904478794123
1.7338068975190077,7.632950215762545,-0.02906703246578353,1.0827684523393168,-0.3693748361475151
1.7280612156158333,7.41814792723849,-0.02838978656596085,1.0652544329012317,-0.3580611158175747
1.7224493800360672,7.20682367083192,-0.027728569231698856,1.0479881311644825,-0.3471575242292566
1.7169682287231574,6.998928649604011,-0.027082943897401585,1.0309620811146218,-0.33664484052554383
1.7116146861496762,6.794415532706054,-0.026452481837410658,1.0141690878649345,-0.32650490843490154
1.706385761708257,6.59323840242509,-0.025836762576779835,0.997602214944707,-0.31672056762097445
1.701283769254858,6.395523782860664,-0.025183161957210445,0.9795439806995618,-0.3414200923834437
1.696308446636552,6.201409573747334,-0.024570064225848478,0.9615981104337292,-0.3678201335516799
1.6914517774452138,6.010873606212542,-0.02399662768753402,0.9437615649141802,-0.3958109603904544
1.686705919284015,5.823894307415152,-0.0234619539244543,0.9260314230597255,-0.42528540080419674
1.6820632145107164,5.640450677356188,-0.022965093808530887,0.9084048775299064,-0.456138602410979
1.6775161998315344,5.460522266532312,-0.02250505298328861,0.8908792307088665,-0.48826779927685554
1.673057614847957,5.284089154354206,-0.022080796852487115,0.8734518910721976,-0.5215720833483826
1.6686804096517718,5.111131928254256,-0.02169125510936534,0.8561203699272953,-0.5559521796313174
1.6643777515571245,4.9416316634094954,-0.021335325837104603,0.8388822785203237,-0.5913102241666991
1.660143031052611,4.7755699030069145,-0.021011879208031166,0.8217353255054859,-0.6275495438515933
1.655969867051195,4.612928638978868,-0.020719760806128654,0.8046773147749872,-0.6645744371405475
1.6518521115111233,4.453690293136283,-0.02045779459458941,0.7877061436508639,-0.7022899546449474
1.6477838534969267,4.297837698626918,-0.020224785547376715,0.7708198014427999,-0.7406016786206179
1.6437594227460819,4.145354081644719,-0.02001952196107162,0.7540163683791867,-0.779415500298711
1.6397733928039133,3.9962230433145933,-0.019840777460613343,0.7372940149220593,-0.8186373939706019
1.6358205837868636,3.850428541674365,-0.019687312709884008,0.7206510014802112,-0.8581731866835317
1.6318960648323344,3.7079548736724632,-0.019557876835409327,0.7040856785388133,-0.8979283223393179
1.6279951562919215,3.5687866570957496,-0.019451208568717387,0.6875964872283067,-0.9378076189127496
1.6241134317240413,3.4329088123368905,-0.019366037110086342,0.6711819603602883,-0.9777150174183216
1.620246719741684,3.3003065439044974,-0.019301082713485164,0.654840723963646,-1.017553321152664
1.6163911057713922,3.1709653215720905,-0.01925505698943239,0.6385714993604348,-1.057223923624226
1.6125429337805266,3.0448708610532442,-0.019226662919226045,0.62237310582804,-1.0966265234502153
1.608698808031555,2.922009104080221,-0.019214594570488817,0.6062444639021792,-1.1356588243521828
1.6048555949244885,2.80236619775156,-0.01921753650017669,0.5901845993844176,-1.1742162182146434
1.6010104249917645,2.6859284730002884,-0.019234162827061217,0.574192648128292,-1.2121914489844963
1.597160695113943,2.5726824220184525,-0.019263135951153608,0.5582678616900708,-1.249474254981656
1.5933040710295754,2.462614674455061,-0.01930310489252228,0.5424096139438543,-1.2859509869624652
1.5894384902186847,2.355711972183034,-0.019352703216385884,0.5266174087764242,-1.3215041990269325
1.585562165246531,2.2519611424058645,-0.019410546505149992,0.5108908889952777,-1.3560122091893219
1.5816735876629067,2.1513490688459385,-0.01947522933109465,0.4952298466039828,-1.3893486261412187
1.577771532562238,2.0538626607232686,-0.019545321675592215,0.4796342346227148,-1.4213818384311205
1.5738550639214886,1.9594888191950979,-0.01961936473190134,0.46410418065899295,-1.4519744619722048
1.5699235408464405,1.8682144008827386,-0.01969586601857965,0.4486400024645926,-1.480982741482196
1.5659766248726636,1.7800261780613056,-0.01977329371918917,0.43324222574973986,-1.5082559011749064
1.5620142884856452,1.6949107950298057,-0.019850070150995294,0.4179116045652602,-1.5336354397905807
1.5580368250454972,1.6128547201125336,-0.01992456425048521,0.4026491446074608,-1.5569543649143613
1.5540448603258112,1.5338441926668906,-0.01999508294637237,0.38745612984895217,-1.578036361552223
1.5500393659040936,1.4578651643869343,-0.02005986127080572,0.37233415295062156,-1.596694890204566
1.5460216746734052,1.3849032340954786,-0.020117051036076448,0.3572851499639277,-1.612732210335152
1.541993498782174,1.3149435751105294,-0.02016470787623882,0.3423114398855703,-1.6259383263753544
1.5379569503526178,1.247970854154655,-0.020200776419321873,0.32741576967315694,-1.6360898555191814
1.5339145653792765,1.1839691406511363,-0.020223073314091893,0.31260136536203165,-1.6429488199730233
1.5298693312696274,1.1229218051223455,-0.020229267782398898,0.2978719899258741,-1.6462613716367196
1.5258247185614917,1.0648114052822883,-0.020216859298956297,0.28323200847468055,-1.6457564653000176
1.5217847174409003,1.0096195583099927,-0.020183151906957724,0.2686864612482714,-1.6411445086399545
1.517753879795468,0.9573267977264486,-0.02012522454736582,0.25424114458718317,-1.6321160354968869
1.5137373676816188,0.9079124133115286,-0.020039896591124925,0.239902699562007,-1.618340475859384
1.5097410092742334,0.8613542726464161,-0.019923687482732048,0.225678707089122,-1.5994651357409162
1.5057713636285506,0.8176286232413155,-0.019772768974094412,0.21157778696187332,-1.5751145585585502
1.5018357959555653,0.7767098749459151,-0.019582907755759788,0.19760969599212427,-1.544890525211154
1.4979425656577434,0.7385703636504992,-0.019349395222458505,0.1837854169620362,-1.5083730749091362
1.494100930197388,0.7031800994822923,-0.019066959381093904,0.17011722472004265,-1.4651231098282864
1.49032126915055,0.670506506242031,-0.01872965108728652,0.15661870768255798,-1.4146874065145283
1.4866152348260053,0.6405141643568832,-0.018330692158162142,0.14330471116891674,-1.3566072238216011
1.4829959390842264,0.6131645780108137,-0.01786226525962544,0.13019115229178477,-1.2904322004586481
1.4794781912725148,0.5884159993846829,-0.017315212857491182,0.11729463396952791,-1.2157418910876838
1.4760788108030438,0.5662233600324846,-0.016678591837218464,0.10463175955244469,-1.132178062223061
1.4728170519420072,0.5465383813831011,-0.015938996773148306,0.09221802694138193,-1.0394915783622047
1.469715201184845,0.5293099603808109,-0.015079510798473795,0.0800661830815123,-0.9376078410192943
1.4667994444428454,0.5144849424714231,-0.014078056621521853,0.06818399601235323,-0.8267131093405191
1.4641011610147163,0.502009377620702,-0.012904777659768663,0.05657165249486684,-0.7073583268155155
1.461658902131664,0.4918302538060111,-0.011517811170754877,0.04521958565204892,-0.5805638644226698
1.4595215056440125,0.48389742288927096,-0.009856153705758531,0.03410872351533786,-0.4478853266959075
1.4577532809329843,0.4781648136994434,-0.007826093404525572,0.02321736838292345,-0.31137207868803196
1.4564438800617938,0.47458860856213647,-0.005267915307378192,0.012544682990132295,-0.17333647633011107
1.4557345301164593,0.4731145155300709,-0.001825584145968468,0.0021962473305093197,-0.03589437200488313
