x,y,v_x,v_y,omega
2.375,32.48,0.0,3.282051282051282,-6.775510204081632
2.3733374286987994,31.83174799542104,-0.016625713012005612,3.2004687637382845,-6.315324714782819
2.3686083680352956,31.199449208726662,-0.03066489362303237,3.122519103205495,-5.902154543019422
2.361291346355701,30.58240369253136,-0.04250532317291378,3.0479360587475126,-5.529775258156412
2.3517936795467933,29.979961926670484,-0.05247134491616358,2.9764815998612506,-5.192940501881531
2.3404630049704953,29.39151958755078,-0.06083540084681548,2.907941791335807,-4.887205804600252
2.3275967421244874,28.81651306313195,-0.06782722761326601,2.842123452852497,-4.608788176504635
2.3134498951737217,28.254415576045698,-0.07364124189439078,2.7788514180100226,-4.3544533662442255
2.29824151981969,27.704733808017288,-0.07844251164592443,2.7179662622740706,-4.121424714982164
2.282160107336111,27.167004941594215,-0.08237161318986695,2.6593224019566697,-3.907309006986902
2.265368085651384,26.640794052404893,-0.08554860365740179,2.6027864899365376,-3.7100357987127093
2.248005596673881,26.125691798299357,-0.08807628611762625,2.548236051118813,-3.527807510572739
2.230193677500361,25.621312361844286,-0.09004290561757704,2.4955583134319004,-3.359058167518425
2.2120369484656273,25.127291610527504,-0.09152438472975703,2.4446491997359097,-3.2024191305699734
2.1936258915391793,24.643285445228358,-0.09258618453472289,2.3954124532555574,-3.0566905100448007
2.1750387871387273,24.168968312435307,-0.09328485946980072,2.347758874674944,-2.9208172198972036
2.1563433651054797,23.70403185963902,-0.0936693608626742,2.3016056532879214,-2.793868841203284
2.1375982156890716,23.24818371651955,-0.09378213330140613,2.2568757779068003,-2.6750226259459353
2.1188539984011285,22.801146387146144,-0.09366003957802597,2.2134975158272465,-2.5635491006192788
2.100154480116794,22.36265624054346,-0.09333514326531844,2.1714039501996223,-2.458799830789307
2.081537428524468,21.932462588744166,-0.09283537265794244,2.1305325677932885,-2.360196988638918
2.0630353827051535,21.51032684291933,-0.09218508553520258,2.0908248904550644,-2.2672244302537816
2.044676319075768,21.09602173941111,-0.09140555075865052,2.0522261446271366,-2.179420041453474
2.0264842280069146,20.689330628532687,-0.0905153599298827,2.0146849641570914,-2.0963691530168767
2.0084796140071246,20.290046819882523,-0.08953078006802007,1.9781531223445514,-2.0176988602623243
1.9906799303585685,19.897972978672392,-0.0884660564175405,1.942585289756769,-1.9430731097323293
1.9730999574185042,19.51292056821331,-0.08733367298310182,1.9079388148340053,-1.8721884384602467
1.9557521324058111,19.134709334258538,-0.08614457714382923,1.8741735247137339,-1.8047702699532748
1.9386468373240493,18.76316682738259,-0.08490837367378937,1.8412515440457198,-1.7405696863962632
1.9217926506919654,18.39812795999205,-0.08363349264704956,1.8091371298597083,-1.6793606092860776
1.905196567927056,18.039434594926746,-0.08232733500204494,1.777796520793317,-1.6209373312430446
1.888864194531389,17.686935162927682,-0.08099639895462234,1.7471977991973258,-1.5651123505117426
1.8727999156398398,17.34048430652645,-0.07964638996087174,1.7173107648150283,-1.5117144669777611
1.8570070449915006,16.999942548156284,-0.07828231652252128,1.6881068188866033,-1.4605871046480488
1.8414879559607167,16.66517598050136,-0.07690857378531664,1.6595588576626144,-1.4115868306791293
1.826244196922878,16.336055977292492,-0.07552901659307117,1.6316411744260795,-1.3645820453597577
1.8112765929218029,16.012458922927607,-0.0741470234176792,1.6043293692227734,-1.3194518211010975
1.7965853353419625,15.69426595944665,-0.07276555238072396,1.5776002655868122,-1.2760848715717008
1.782170061062977,15.381362749525469,-0.07138719040913219,1.5514318336249857,-1.2343786347295418
1.7680299223800162,15.073639254273939,-0.07001419642047631,1.5258031188903138,-1.1942384557257746
1.754163648807094,14.770989524731483,-0.06864853930874419,1.5006941765342423,-1.1555768575480319
1.7405696017367038,14.473311506050173,-0.06729193139515753,1.4760860102788416,-1.118312888887359
1.7272598642509154,14.180510140318539,-0.06580544346272678,1.4519276470375135,-1.0783751506315629
1.7142446732565007,13.892493702053336,-0.06434646648142117,1.4282367356145262,-1.0402474753370983
1.701518497340009,13.609170362829985,-0.06291529268349484,1.404996656618974,-1.0038264837595752
1.689075759623777,13.330451542364372,-0.061512084478824794,1.3821915480371756,-0.9690158216982249
1.6769108619724697,13.056251761390605,-0.06013689203424952,1.3598062617004945,-0.9357256066188795
1.6650182058966352,12.786488502946476,-0.058789668724096224,1.337826322740794,-0.9038719236929265
1.6533922105531287,12.521082081492978,-0.05747028471096724,1.3162378917941946,-0.8733763663291556
1.6420273281937208,12.259955519339986,-0.05617853888311149,1.2950277297357358,-0.844165616815742
1.6309180573707789,12.003034429891692,-0.05491416934630769,1.2741831647472182,-0.8161710631652526
1.6200589541717956,11.750246907263154,-0.053676862643524406,1.2536920615381513,-0.7893284486749058
1.6094446417220252,11.501523421853776,-0.05246626185418072,1.2335427925556213,-0.7635775510845594
1.5990698181659904,11.256796721494894,-0.051281973706167515,1.2137242110331876,-0.7388618885422745
1.5889292633136212,11.016001737817394,-0.050123574817524635,1.1942256257418211,-0.7151284498771773
1.5790178441148206,10.779075497511457,-0.04899061717047958,1.1750367773175383,-0.6923274469363516
1.5693305191069566,10.54595703817461,-0.04788263290816093,1.1561478160509226,-0.6704120869706945
1.559862341962794,10.316587328466191,-0.04679913853346514,1.1375492810332575,-0.6493383632575263
1.5506084642514402,10.0909091923066,-0.04573963858007366,1.11923208056264,-0.6290648623283325
1.5415641375117017,9.868867236878206,-0.04470362881731123,1.101187473721294,-0.6095525863309608
1.5327247147256453,9.650407784201835,-0.04369059904325281,1.0834070530424253,-0.5907647891992143
1.5240856512699104,9.435478806078446,-0.04270003551409492,1.0658827281914507,-0.5726668254311018
1.5156425054132818,9.224029862200066,-0.041731423052191706,1.0486067105923396,-0.5552260103917781
1.5073909384210407,9.016012041247311,-0.040784246870219774,1.03157149893519,-0.5384114911599877
1.4993267143195594,8.811377904803184,-0.039857994144591666,1.014769865506076,-0.5221941270289698
1.4914456993683591,8.610081433924108,-0.038952155367412734,0.9981948432846915,-0.5065463788554828
1.4837517418414787,8.412253643307203,-0.03798741990139192,0.980083062884375,-0.5266452887744937
1.4762459876148797,8.218036706134608,-0.03707012236459757,0.9620863088415681,-0.5485738364602634
1.4689190584691767,8.027407931953757,-0.036199169092430906,0.9442014329669534,-0.5722157601126288
1.4617617998984163,7.840345247352392,-0.035373416615174486,0.9264254130467063,-0.5974576578348212
1.454765290490942,7.656827171247123,-0.034591677459566504,0.9087553480059887,-0.6241887289440781
1.4479208502026293,7.47683279109604,-0.03385272542356258,0.8911884535048309,-0.6523005222571581
1.4412200476240684,7.300341739950365,-0.03315530036204605,0.8737220579519246,-0.6816866902913596
1.4346547063360835,7.12733417426271,-0.03249811251780207,0.8563535989246396,-0.7122427483411621
1.4282169104414215,6.957790752371608,-0.03187984642881925,0.8390806199863695,-0.7438658374025406
1.4218990093545498,6.791692613583457,-0.031299164439898775,0.8219007678951213,-0.7764544899213116
1.4156936219261989,6.629021357773933,-0.03075470984361025,0.8048117902001384,-0.8099083973384443
1.4095936399745566,6.469759025431287,-0.03024510967281134,0.7878115332263115,-0.8441281783939478
1.4035922312908533,6.313888078063734,-0.02976897716422067,0.7708979404492357,-0.8790151471314297
1.3976828421834437,6.161391378892105,-0.0293249139098757,0.7540690512670463,-0.9144710795173868
1.3918591996213867,6.012252173747534,-0.028911511710695784,0.7373230001786705,-0.9503979775522796
1.3861153130359392,5.866454072091475,-0.028527354143779375,0.7206580163819096,-0.9866978297039464
1.3804454758363143,5.723981028072394,-0.028171017852468193,0.7040724238088795,-1.0232723664373171
1.3748442666945093,5.584817321529421,-0.02784107356558235,0.6875646416208563,-1.0600228095469886
1.3693065506529971,5.44894753884838,-0.02753608684954042,0.6711331851895705,-1.0968496139202575
1.3638274801086134,5.316356553569669,-0.027254618594296405,0.6547766675975532,-1.1336522002668146
1.358402495726072,5.187029506640279,-0.026995225231117997,0.6384938016963654,-1.1703286772465753
1.3530273273352442,5.060951786193787,-0.02675645867716157,0.62228340276855,-1.2067755513081326
1.347697994867675,4.938109006732226,-0.026536865998529037,0.6061443918470492,-1.242887422416116
1.3424108093898246,4.81848698757204,-0.026334988779976216,0.5900757997548037,-1.2785566636954804
1.3371623742932637,4.7020717304028175,-0.02614936218563309,0.5740767719374331,-1.3136730828537047
1.3319495867056066,4.588849395791726,-0.025978513690938777,0.5581465741734947,-1.3481235630576427
1.32676963919037,4.478806278448371,-0.025820961461426786,0.5422845992600449,-1.3817916807403754
1.3216200218093324,4.371928781043735,-0.025675212348950097,0.5264903747863109,-1.414557297595669
1.3164985246274041,4.268203386352557,-0.025539759470331557,0.5107635721254891,-1.4462961237854537
1.3114032407476537,4.167616627460578,-0.02541307932717212,0.4951040167943025,-1.4768792491427187
1.3063325699730823,4.070155055745921,-0.0252936284185421,0.4795117003522588,-1.506172638904422
1.3012852232021888,3.9758052063069123,-0.02517983929039435,0.46398679403784754,-1.5340365902660675
1.2962602276774868,3.8845535604663795,-0.025070115956624773,0.4485296643674649,-1.5603251458262888
1.291256933220166,3.796386504934148,-0.024962828616583235,0.433140890954851,-1.5848854598082676
1.2862750196002795,3.711290287154231,-0.024856307582281127,0.41782128684433056,-1.6075571128378312
1.2813145052105253,3.6292509663007984,-0.024748836315260578,0.4025719216900016,-1.6281713710735026
1.2763757572332288,3.550254359316334,-0.024638643457703,0.38739414815465206,-1.6465503856910781
1.2714595035150242,3.474285981306327,-0.024523893724342452,0.3722896319454244,-1.6625063292249005
1.2665668463925512,3.401330979517194,-0.0244026775003866,0.3572603859459038,-1.6758404662045125
1.2616992787460235,3.331374060028338,-0.02427299896489071,0.3423088089426551,-1.6863421571069952
1.2568587025968005,3.2643994061868575,-0.024132762527339258,0.32743772947215566,-1.6937877971713433
1.252047450611542,3.20039058770746,-0.023979757325246903,0.3126504553218031,-1.697939695522352
1.2472683109311333,3.1393304592561897,-0.023811639478840418,0.29795082919089194,-1.6985449059476287
1.24252455581027,3.0812010472440576,-0.02362591172979253,0.28334329093043586,-1.6953340294557604
1.2378199746377079,3.0259834234912084,-0.02341989999582855,0.26883294659806906,-1.6880200217044758
1.2331589120143307,2.973657564408338,-0.023190726237943358,0.25442564423064506,-1.676297057382935
1.2285463117065676,2.9242021944183776,-0.022935276839688205,0.24012805566895998,-1.6598395313405123
1.2239877674823434,2.8775946125673784,-0.02265016540255329,0.22594776284101978,-1.6383013165278864
1.21948958210114,2.8338105017396096,-0.022331688409480452,0.21189334543666344,-1.6113154571677284
1.2150588361097168,2.7928237207344146,-0.021975771504751076,0.19797446461529905,-1.578494559818081
1.2107034686565208,2.7546060808838533,-0.02157790302720833,0.18420193389032424,-1.5394322660335593
1.2064323733877709,2.7191271111860367,-0.021133049660291402,0.17058776308783552,-1.493706362943077
1.2022555138006574,2.6863538195198053,-0.02063554621084395,0.1571451535744881,-1.4408843312562523
1.1981840644871884,2.6562504629666925,-0.020078946923845948,0.14388841195665186,-1.3805324660164522
1.1942305879651403,2.62877834832814,-0.0194558182966355,0.13083273442887342,-1.3122301534026777
1.190409261999758,2.6038956953974584,-0.018757441357187977,0.11799379487793041,-1.2355914483630817
1.1867361806476093,2.5815576110097602,-0.017973372164298645,0.10538704899904758,-1.1502967174613983
1.183229765542727,2.561716240904385,-0.017090778884523015,0.09302665205469131,-1.0561375928985914
1.179911345027309,2.544321185689604,-0.016093426269657173,0.08092390009312482,-0.9530783261254041
1.1768059919801608,2.529320276833978,-0.014960104201826167,0.06908518846313488,-0.8413347574280245
1.1739437639386106,2.5166607857231575,-0.013662176213675832,0.057509722645055085,-0.7214665931771023
1.1713615768344108,2.5062910383162027,-0.012159694828322035,0.04618775142450383,-0.5944668781837137
1.1691061118443637,2.4981621525340536,-0.010394955072149369,0.035101106396986784,-0.4618130785363142
1.1672385732300037,2.492229074280754,-0.008280431071451683,0.0242296761360185,-0.3254220323099405
1.1658435436871197,2.4884488867578796,-0.0056698643573887195,0.013572199092739608,-0.18744260519403144
1.1650514399352898,2.4867699112611596,-0.002251173160909484,0.0032175558744635957,-0.04985433870761122
