x,y,v_x,v_y,omega
2.375,32.48,0.0,3.948717948717949,-5.183673469387755
2.3737327444713565,31.778536426169982,-0.014080616984926506,3.8453217605044276,-4.8058271439472415
2.37014275311556,31.095246870584273,-0.025808175857255714,3.7467844126701233,-4.469600489494194
2.3646194588288996,30.42928914933629,-0.035561760661197185,3.6527458234185843,-4.169103504886893
2.357490007854969,29.779882584702598,-0.04365436127136558,3.5628826725113383,-3.899426763544308
2.3490300190540596,29.146301834937123,-0.05034551429429239,3.4769034359939286,-3.656456314711884
2.3394723062123655,28.52787154048277,-0.05585129505786437,3.394544280165542,-3.436727447948816
2.3290139856200023,27.92396164840629,-0.060352267079504585,3.315565631795342,-3.237308349866334
2.3178222956119527,27.333983305680206,-0.06399984412104359,3.239749287383356,-3.055706941294207
2.3060393827673757,26.757385233673155,-0.0669214097075939,3.1668959571394577,-2.8897958250933873
2.2937862546988836,26.19365051283405,-0.06922445772009254,3.096823163295035,-2.737751481717891
2.281166057362625,25.642293719434214,-0.07099995712722665,3.029363430036479,-2.5980047456814597
2.2682668023657313,25.1028583663297,-0.0723250983938165,2.9643627155692354,-2.46920026750541
2.2551636444984626,24.574914607713566,-0.07326554457583294,2.901679046832258,-2.3501631730813566
2.2419207899511497,24.058057174243807,-0.07387728372764665,2.8411813250539457,-2.239871518750302
2.2285931001107557,23.551903510123317,-0.07420815894339759,2.782748276284814,-2.137433436749936
2.215227443509201,23.056092087944975,-0.07429913662942965,2.7262675256967634,-2.0420680945099847
2.2018638386907443,22.570280880601487,-0.07418536135342302,2.6716347781197944,-1.95308976907147
2.1885364229273208,22.09414597245045,-0.0738970360179509,2.618753090225091,-1.869894476861313
2.175274275416381,21.627380294338593,-0.07346015854804219,2.567532222128873,-1.791948708253967
2.1621021185199245,21.16969246911698,-0.07289714030147862,2.5178880581112555,-1.718779902616366
2.1490409164937425,20.720805755992686,-0.07222732665609684,2.469742087714257,-1.6499683680159412
2.1361083878157787,20.280457083518577,-0.07146743643239153,2.4230209397758156,-1.5851404043946022
2.1233194444978802,19.848396162266233,-0.07063193376648023,2.3776559630280247,-1.5239624327748742
2.1106865695349755,19.424384669293413,-0.06973334359912678,2.3335828477810625,-1.4661359682769974
2.0982201418139583,19.00819549743643,-0.06878251996772995,2.290741283963208,-1.411393303174496
2.08592871629532,18.599612063252074,-0.0677888746838107,2.2490746514184905,-1.3594937892900525
2.073819266033185,18.198427668123593,-0.06676057267324473,2.2085297388979854,-1.3102206278193942
2.0618973915654015,17.80444490764559,-0.06570469919101286,2.169056488635408,-1.2633780900208447
2.050167502345733,17.417475124927662,-0.06462740324974976,2.130607763785965,-1.2187891047944845
2.0386329741736313,17.03733790391629,-0.0635340208847147,2.0931391363404135,-1.1762931595298756
2.02729628597814,16.663860599238497,-0.06242918128741037,2.0566086934128394,-1.135744469148325
2.0161591388105657,16.29687789942701,-0.06131689835230329,2.0209768600481315,-1.097010375342566
2.0052225594789284,15.936231420700821,-0.06020064977700035,1.9862062369095013,-1.0599699438942225
1.9944869909021476,15.581769328753623,-0.059083445520563146,1.9522614513926857,-1.0245127328451593
1.983952370962239,15.23334598624946,-0.05796788714508808,1.9191090208757793,-0.9905377083884583
1.973618201379276,14.890821623944646,-0.05685621933227998,1.8867172269554753,-0.957952288770472
1.963483607918944,14.554062033550629,-0.05575037467140917,1.8550559996447187,-0.9266714993727031
1.9535473930599114,14.222938280627176,-0.05465201265117371,1.8240968106158562,-0.8966172245652514
1.9438080820927872,13.897326435951506,-0.05356255365020762,1.7938125746693672,-0.8677175439691522
1.93426396348983,13.577107323948898,-0.05248320860487217,1.7641775586929254,-0.8399061424961709
1.9249131242712485,13.262166286896,-0.05141500493492066,1.7351672974503773,-0.8131217850033199
1.9157534809968868,12.952392963720882,-0.05035880922465618,1.7067585156064888,-0.7873078476482711
1.9067828069288515,12.647681082325608,-0.04931534708684614,1.6789290554521117,-0.7624118990962409
1.897998755839116,12.347928264448715,-0.04828522057688187,1.6516578098466894,-0.7383853256381128
1.8893988828745558,12.053035842167773,-0.04726892347378736,1.624924659941556,-0.7151829950578309
1.8809806628387993,11.762908685217024,-0.04626685470128545,1.598710417288997,-0.6927629547547172
1.8727415062044286,11.477455038362894,-0.045279330125053724,1.5729967699791216,-0.6710861602002333
1.8646787731294228,11.196586368141592,-0.044306592930569086,1.5477662324797867,-0.6501162303029913
1.8567897857173854,10.920217218318804,-0.04334882275873398,1.5230020988845394,-0.6298192266823751
1.8490718387313192,10.648265073482172,-0.042406143753113114,1.4986883993002442,-0.6101634542199622
1.8415274356571314,10.380651207744993,-0.04142055707119676,1.4747989977795297,-0.5896302324093659
1.8341583571655216,10.117299528353971,-0.04045809283557933,1.4513307732318412,-0.5699625394164863
1.8269604793783758,9.858135486784793,-0.039518327021595794,1.428269688647938,-0.5511142038909045
1.8199297564513879,9.603087007917903,-0.03860081661160226,1.4056022987619594,-0.5330419826655919
1.8130622236021707,9.352084386358086,-0.037705103935255,1.3833157185693232,-0.5157053453188463
1.8063539994092201,9.105060188241936,-0.03683072043086258,1.3613975938323355,-0.4990662767106783
1.7998012874794878,8.861949158188523,-0.03597718989949707,1.339836073427802,-0.4830890958201075
1.79340037757022,8.622688131073744,-0.03514403131458891,1.318619783403063,-0.46774028938149975
1.7871476462401334,8.38721594833186,-0.03433076124192876,1.2977378026178676,-0.452988358970556
1.7810395570957214,8.155473378508898,-0.03353689591820236,1.277179639859497,-0.4388036803261481
1.7750726606903604,7.927403041812056,-0.032761953030255586,1.2569352123276178,-0.4251583738149287
1.7692435941267473,7.702949338417145,-0.03200545323211107,1.2369948253936036,-0.4120261850532749
1.763549080406956,7.482058380312527,-0.031266921432234696,1.2173491535465844,-0.39938237479719296
1.7579859275688916,7.264677926473254,-0.030545887879594835,1.1979892224453375,-0.3872036172966656
1.7525510276431044,7.050757321173048,-0.029841889073594776,1.178906392001393,-0.3754679063877306
1.7472413554596877,6.8402474352547245,-0.02915446851992556,1.1600923404244365,-0.36415446866438095
1.742053967331239,6.633100610191555,-0.028483177351727416,1.1415390491663229,-0.3532436831340642
1.736985999634603,6.429270604783156,-0.027827574833114876,1.1232387887047899,-0.34271700681593975
1.7320346673112161,6.228712544339615,-0.027187228760072405,1.1051841051123492,-0.33255690579081587
1.7271972623033363,6.031382872217119,-0.026561715771927816,1.0873678073598378,-0.32274679125645483
1.7224711519412101,5.837239303577032,-0.025950621585028713,1.0697829553078069,-0.3132709601822495
1.7178537772942606,5.6462407812485225,-0.025353541158855537,1.0524228483423013,-0.3041145401936098
1.7133426514976415,5.458347433582393,-0.024770078803580012,1.0352810146146991,-0.29526343834918883
1.7089353580639894,5.273520534190737,-0.02419984823699907,1.0183512008481377,-0.2867042935036892
1.7046295491888552,5.0917224634735945,-0.023642472597824035,1.0016273626756866,-0.2784244319757641
1.700422944057119,4.912916671839774,-0.02309758442146719,0.9851036554778592,-0.27041182626475274
1.6963181561474192,4.737291124855378,-0.022511170130754023,0.9662913110154331,-0.31203130098998033
1.6923146616502849,4.565042799324559,-0.021972102059624514,0.947578972660342,-0.35471907149256915
1.6884040869676609,4.396153914786073,-0.021478727747309863,0.9289641888783802,-0.3983767738690067
1.6845783560817966,4.230607123488102,-0.021029393206735827,0.9104446033212937,-0.442907241538422
1.6808296906522235,4.06838549344921,-0.02062244489963138,0.8920179526664216,-0.48821428827795255
1.677150609781866,3.9094724918773593,-0.020256231437676825,0.8736820647985771,-0.5342024913500389
1.6735339295003007,3.7538519688851295,-0.01992910502416056,0.855434857337322,-0.5807769737387002
1.669972762009782,3.6015081414383587,-0.019639422648270097,0.8372743365156763,-0.6278431844792846
1.666460514737674,3.4524255774742016,-0.019385547041816217,0.8191985964194122,-0.6753066760248737
1.6629908892373837,3.3065891801225042,-0.019165847405854967,0.8012058185994456,-0.7230728775417953
1.6595578799787494,3.163984171961939,-0.01897869991230541,0.7832942720735148,-0.7710468629658278
1.6561557730681506,3.0245960792389575,-0.018822487983234215,0.7654623137373953,-0.8191331125787695
1.6527791449383429,2.888410715973656,-0.018695602347962824,0.7477083892104068,-0.8672352667811176
1.6494228610482295,2.7554141678716704,-0.01859644087551686,0.7300310341450037,-0.9152558706395252
1.6460820746334899,2.62559277595539,-0.018523408177146688,0.7124288760359071,-0.9630961076762298
1.642752225550187,2.4989331198208014,-0.01847491497066443,0.6949006365706398,-1.0106555212403854
1.639429039255266,2.375422000418091,-0.01844937719512388,0.677445134570588,-1.0578317216566848
1.6361085259702266,2.25504642224454,-0.018445214860869346,0.6600612895799957,-1.104520077183211
1.6327869800772956,2.137793574827061,-0.01846085061614411,0.6427481261697573,-1.150613386626432
1.6294609798011925,2.023650813358749,-0.018494708007220428,0.6255047790337159,-1.196001531254942
1.6261273872341535,1.9126056383386292,-0.018545209404323883,0.6083304989676269,-1.2405711034233462
1.6227833487673284,1.8046456740463697,-0.018610773560399654,0.5912246598352717,-1.2842050090621435
1.6194262959981396,1.6997586456633513,-0.01868981276392152,0.5741867666427046,-1.326782040907567
1.616053947190753,1.5979323548280497,-0.018780729540377898,0.5572164648606316,-1.368176419036824
1.6126643093756483,1.4991546533864764,-0.018881912849671174,0.5403135511568411,-1.4082572949398302
1.6092556811845302,1.4034134150670319,-0.018991733718307924,0.5234779857258564,-1.4468882150010534
1.6058266565286616,1.310696504772821,-0.019108540235789322,0.5067099064320311,-1.4839265388898077
1.6023761292423933,1.2209917451425305,-0.01923065183385842,0.49000964501565014,-1.519222807973781
1.5989032988293945,1.1342868799826462,-0.019356352755018177,0.473377745649717,-1.5526200584942254
1.595407677467195,1.050569534118111,-0.01948388460275379,0.45681498617846344,-1.5839530738965413
1.5918890984464587,0.9698271691444731,-0.019611437849872453,0.4403224024175305,-1.6130475704343517
1.5883477262453058,0.892047034491366,-0.019737142162933638,0.4239013159503433,-1.6397193100149514
1.5847840684664964,0.8172161131234752,-0.019859055379394506,0.4075533659151,-1.6637731343132034
1.5811989898969243,0.7453210611104311,-0.01997515094918513,0.39128054534095075,-1.6850019145736324
1.5775937289854225,0.6763481401905196,-0.020083303623058314,0.37508524265807625,-1.7031854124292505
1.5739699170772021,0.6102831423349713,-0.020181273134945152,0.3589702890702517,-1.7180890487584883
1.5703296007926049,0.5471113051907004,-0.02026668558280105,0.342939012532765,-1.7294625804711763
1.566675267995826,0.48681721714276094,-0.020337012159184677,0.3269952991110199,-1.7370386897362138
1.5630098778681825,0.42938471059903094,-0.020389544814633204,0.31114366248595754,-1.7405314973809654
1.5593368956836577,0.3747967419691989,-0.020421368346752265,0.2953893222899152,-1.739635023243565
1.5556603329868426,0.32303525670553057,-0.020429328284527145,0.27973829175080994,-1.7340216329630533
1.5519847940026303,0.27408103772354053,-0.020409993762274543,0.2641974747157103,-1.7233405357229061
1.548315529275172,0.22791353557345673,-0.02035961432059753,0.2487747713963482,-1.7072164347528251
1.544658497759902,0.18451067896284457,-0.020274069182402064,0.23347919094379463,-1.6852484877133014
1.541020438908303,0.1438486647536692,-0.020148806946474623,0.21832096693594133,-1.6570098158746205
1.5374089567420814,0.10590172755295413,-0.019978772678211142,0.20331166862752417,-1.6220479214872057
1.5338326185973328,0.0706418907591626,-0.019758317818998023,0.18846429574795476,-1.5798865493788485
1.5303010722733363,0.03803870382488839,-0.01948108578096012,0.17379333685513051,-1.5300297858277885
1.5268251869851865,0.008058975145800673,-0.019139861865151715,0.1593147595791559,-1.471969557047382
1.5234172261981398,-0.01933348278522118,-0.018726369102033343,0.14504588409885663,-1.4051982089299913
1.5200910647903747,-0.04417806844017491,-0.018230979873136204,0.1310050676228661,-1.3292285527732972
1.5168624701742863,-0.06651752331119809,-0.01764229363895632,0.11721109761072236,-1.2436246480374555
1.5137494788528454,-0.08639791646038475,-0.01694649882149714,0.10368215960249008,-1.1480475509668393
1.5107729193863935,-0.10386839135823323,-0.016126384139078784,0.0904342281513466,-1.0423208901217478
1.5079571646728662,-0.11898056110309341,-0.015159779344557766,0.07747876901376018,-0.9265204094609949
1.5053312485956427,-0.13178743510833613,-0.014017065957925744,0.0648198310445094,-0.8010873424971507
1.5029305689429031,-0.14234182091841774,-0.012657152405849192,0.052451122400816536,-0.6669538255844035
1.5007995562339471,-0.15069435205331416,-0.011020766582549222,0.040354779098052906,-0.5256451693589239
1.498996042670762,-0.15689179033866907,-0.009018273008399167,0.02850564629480467,-0.3792895324954544
1.497599170495436,-0.16097735134415103,-0.006502528939668236,0.01688947598835334,-0.23043748628491229
1.4967277952269664,-0.16299816944378875,-0.00317941848777077,0.005564058452089913,-0.08160938429808043
