x,y,v_x,v_y,omega
2.375,32.48,0.0,3.0769230769230766,-2.0
2.374372137703139,31.78159278701721,-0.005459672146617446,2.996183122927248,-1.8544245483124995
2.3725944417148113,31.101327208569533,-0.009998553838840055,2.9191697331395114,-1.7248071102919273
2.3698615299168804,30.438376812782554,-0.013765896577951521,2.8456163171820346,-1.6088979361235616
2.366336695447364,29.791973553491964,-0.016884837939580677,2.775281589692665,-1.5048196888688041
2.36215733914495,29.16140231772379,-0.01945739077706243,2.7079465474218902,-1.4109978372673895
2.3574393736874777,28.545996097693063,-0.02156839580965541,2.6434118876279236,-1.32610542776165
2.352280811082553,27.945131714716915,-0.02328867032012358,2.5814957904255045,-1.2490189976585244
2.3467646980953174,27.358226018386084,-0.024677529568881997,2.5220320037556685,-1.1787831785887983
2.340961528369104,26.784732497045162,-0.025784815876449776,2.4648681818175406,-1.1145821215106921
2.3349312325393696,26.224138245860495,-0.026652539164720056,2.4098644371795874,-1.0557163084299204
2.3287248264695735,25.675961247063853,-0.02731620926829182,2.356892074095553,-1.0015836419590445
2.322385781314305,25.139747923767477,-0.027805922516648988,2.3058324763077276,-0.9516639504391423
2.315951166303301,24.615070934363967,-0.028147251492084024,2.2565761272010367,-0.9055062341734225
2.309452605092529,24.10152717919322,-0.02836197642767438,2.2090217438489548,-0.8627181222954393
2.302917078608967,23.59873599506168,-0.028468688646772117,2.1630755094687926,-0.8229571208195088
2.296367601043259,23.106337516481194,-0.028483290185473468,2.118650391231074,-0.7859233185292067
2.2898237906536645,22.62399118526817,-0.028419408854480396,2.075665532360431,-0.7513532845082418
2.2833023530562966,22.151374392498877,-0.02828874416610755,2.0340457091116866,-0.7190149437542497
2.2768174914757418,21.688181238825187,-0.02810135653436892,1.9937208445725767,-0.6887032587822058
2.270381255850966,21.23412140087483,-0.0278659097680301,1.95462557238703,-0.6602365779465857
2.2640038406050875,20.788919092938368,-0.027589874978738434,1.9166988444517699,-0.6334535373108666
2.2576938391936525,20.35231211441996,-0.027279702512003248,1.8798835774474465,-0.608210423737794
2.251458462165772,19.92405097463226,-0.026940967295655337,1.844126333749938,-0.5843789235923458
2.245303724343911,19.50389808747336,-0.02657849202487347,1.8093770328492031,-0.5618441949129421
2.2392346058022654,19.091627029357277,-0.026196451815521393,1.7755886898993218,-0.5405032117913998
2.233255190561698,18.687021854497317,-0.025798463319845564,1.7427171784481534,-0.5202633385356168
2.2273687862901768,18.2898764622784,-0.025387660780340264,1.7107210147598249,-0.5010410983838381
2.221578027776809,17.89999401201341,-0.024966761075034833,1.6795611614574888,-0.48276110742025674
2.215884966515069,17.517186380869997,-0.02453811946183519,1.6492008484852252,-0.4653551491650353
2.2102911483706693,17.14127366118754,-0.02410377744598533,1.6196054096231005,-0.44876136928085564
2.2047976810088232,16.77208369378662,-0.023665503961371886,1.5907421329935996,-0.4329235731145843
2.199405292503925,16.40945163421218,-0.023224830863828996,1.5625801241754447,-0.4177906115058305
2.194114382343432,16.053219549151965,-0.02278308357524415,1.5350901806959778,-0.40331584254765046
2.1889250658599995,15.703236040538894,-0.02234140758503586,1.5082446768090012,-0.389456658861799
2.1838372129760804,15.359355895083706,-0.021900791405566968,1.4820174575839484,-0.3761740715190058
2.178859181273138,15.021440194217579,-0.02138644079393184,1.4563799412519205,-0.36129959360119024
2.1739983528151687,14.689355539883849,-0.020881632753627238,1.4313127051283296,-0.34718106858638725
2.1692525009885646,14.362973334454821,-0.020386643999450834,1.406793429037125,-0.33377036722039954
2.1646193447004065,14.042169984407884,-0.019901671549750623,1.3828009191970934,-0.32102300414473983
2.160096565388983,13.726826649412772,-0.019426844201757314,1.3593150372821636,-0.30889781874706884
2.155681821570996,13.416829007125273,-0.01896223247638836,1.336316634783055,-0.2973566876483768
2.151372761253626,13.11206703252082,-0.01850785723987154,1.3137874922121813,-0.28636426533434933
2.1471670324953145,12.812434790701488,-0.018063697180232187,1.2917102627385335,-0.27588774986231823
2.1430622923610376,12.51783024220045,-0.017629695291741,1.2700684198792018,-0.265896670943144
2.1390562144850853,12.228155059889712,-0.017205764499146608,1.2488462089098171,-0.2563626980172933
2.1351464954261186,11.943314456670958,-0.0167917925353481,1.228028601688034,-0.24725946622303493
2.131330859974932,11.663217023196378,-0.01638764617062103,1.2076012546126618,-0.23856241839782183
2.127607065554318,11.387774574927263,-0.015993174878195862,1.1875504694665828,-0.23024866146644268
2.1239729058322254,11.11690200789344,-0.015608214009564868,1.1678631569145022,-0.22229683575558445
2.1204262136536713,10.850517162566849,-0.015232587543079561,1.1485268024471629,-0.21468699593760007
2.116964863383207,10.588540695308474,-0.014866110460957677,1.1295294345821758,-0.20740050244957128
2.1135867727379045,10.33089595688947,-0.014508590802545471,1.110859595148301,-0.2004199223598076
2.1102899041805396,10.077508877625483,-0.014159831435407581,1.0925063114950646,-0.19372893876496744
2.1070722659337218,9.828307858697983,-0.01381963158039885,1.074459070483187,-0.18731226789895997
2.1039319126679246,9.583223669268204,-0.013487788122187991,1.0567077941235778,-0.18115558322134748
2.1008669459096185,9.342189349018458,-0.01316409673264788,1.0392428167437866,-0.1752454458295554
2.0978755142097976,9.105140115782273,-0.012848352831013123,1.022054863570862,-0.16956924060705184
2.09495581310804,8.872013277949321,-0.012540352401656938,1.005135030628724,-0.16411511757985853
2.092106084922765,8.642748151353526,-0.012239892687691831,0.9884747658564508,-0.1588719380072324
2.089327003085555,8.417384934450158,-0.01192603633152813,0.9712053811293654,-0.17096390090088429
2.0866176386082342,8.195979279383735,-0.01163365477560952,0.9540611846656244,-0.18528022669128072
2.083972982997807,7.97850281831936,-0.011363350532452151,0.9370384767637152,-0.20169874898977624
2.081387906586868,7.764928017263191,-0.011115574780057993,0.9201337063333939,-0.2201011316910932
2.078857191863796,7.5552281426781995,-0.010890640203179276,0.9033434639708667,-0.24037259112574272
2.076375563966675,7.349377229633934,-0.010688732815261266,0.8866644755444923,-0.26240162884814283
2.0739377185665866,7.147350051375945,-0.010509922837684274,0.870093596264097,-0.2860797739608625
2.0715383473489966,6.949122090206423,-0.01035417470657528,0.8536278052099986,-0.31130133391759485
2.0691721612865077,6.754669509572693,-0.010221356271587753,0.8372642003007064,-0.3379631527823236
2.0668339118820307,6.563969127264791,-0.01011124724560475,0.8209999936810374,-0.36596437594987064
2.0645184105484713,6.376998389627236,-0.01002354695925888,0.8048325075150913,-0.3952062203537019
2.062220546279171,6.1937353466933125,-0.009957881469440658,0.7887591701711847,-0.4255917492005452
2.0599353017525326,6.014158628152948,-0.00991381006654433,0.77277751278849,-0.4570256502779886
2.0576577680044608,5.838247420067226,-0.009890831221039975,0.7568851662177898,-0.48941401688064695
2.0553831577933477,5.66598144224406,-0.009888388006027324,0.7410798583314672,-0.5226641303924957
2.053106817774356,5.497340926190365,-0.009905873028685798,0.7253594117006551,-0.5566842435472715
2.050824239592562,5.332306593556144,-0.009942632899954078,0.709721741640385,-0.591383363365044
2.048531069998211,5.170859634985433,-0.009997972268318032,0.6941648546266646,-0.6266710327306727
2.0462231200817285,5.012981689287706,-0.010071157440225654,0.6786868470927109,-0.6624571095382934
2.0438963737213722,4.858654822841306,-0.010161419606348912,0.6632859046151308,-0.6986515422745208
2.0415469953323333,4.707861509137523,-0.01026795768964101,0.647960301504726,-0.7351641408508771
2.039171337002821,4.560584608370078,-0.010389940827858579,0.6327084008208833,-0.7719043414221178
2.0367659451001296,4.416807346969851,-0.01052651049989455,0.6175286548332616,-0.8087809638405221
2.034327566427928,4.276513296978649,-0.01067678230185943,0.6024196059598049,-0.8457019602956295
2.0318531540150526,4.13968635514842,-0.010839847375313768,0.58737988821609,-0.8825741535729482
2.029339872615962,4.006310721643523,-0.011014773486346396,0.5724082292177899,-0.9193029632323249
2.026785104003752,3.876370878213116,-0.011200605750260549,0.5575034527857375,-0.9557921178552922
2.0241864521383444,3.7498515656883917,-0.011396366992416656,0.542664482211868,-0.9919433513390532
2.0215417482951255,3.6267377606447724,-0.011601057731223677,0.5278903442544012,-1.0276560810209747
2.0188490562431403,3.5070146510521596,-0.011813655764299612,0.5131801739422163,-1.0628270651997453
2.01610667756691,3.390667610716406,-0.012033115333356732,0.49853322028172586,-1.0973500373759835
2.0133131572322824,3.277682172291886,-0.012258365837318128,0.48394885297496976,-1.1311153142646582
2.0104672895045006,3.168043998618085,-0.012488310056436828,0.46942657027546836,-1.1640093743333395
2.0075681243361054,3.0617388521015734,-0.012721821842649849,0.4549660081289774,-1.1959144032941285
2.0046149743535646,2.9587525618281774,-0.01295774322292272,0.44056695077011115,-1.2267078026247542
2.00160742258486,2.8590709880476837,-0.013194880852769481,0.42622934297332615,-1.2562616568197835
1.9985453310859684,2.762679983624075,-0.013432001746287859,0.41195330418849907,-1.2844421546838538
1.995428850642523,2.669565351987199,-0.01366782819671569,0.39773914482781786,-1.3111089595884688
1.9922584317443452,2.5797128010555674,-0.013901031787437958,0.38358738501244843,-1.336114523243547
1.989034837055407,2.4931078925236285,-0.014130226377244433,0.3694987761348579,-1.3593033372180192
1.9857591556306406,2.4097359858188305,-0.014353959925071026,0.3554743256459974,-1.380511116231647
1.982432819164492,2.329582175932945,-0.014570704997961764,0.34151532553561825,-1.3995639072103832
1.9790576205949213,2.25263122421698,-0.01477884778091393,0.3276233850379899,-1.4162771183661735
1.9756357354316771,2.1788674810989512,-0.014976675377729445,0.31380046816226403,-1.4304544633019896
1.972169746230214,2.108274799538311,-0.01516236115673413,0.30004893671286614,-1.4418868166106074
1.9686626706941637,2.0408364378710964,-0.015333947852398926,0.2863715995237921,-1.450350980011154
1.9651179939618562,1.9765349505288157,-0.015489328080710575,0.27277176866994157,-1.4556083623132217
1.961539705718876,1.915352064938535,-0.01562622185824697,0.25925332341945956,-1.457403583247505
1.9579323428832571,1.8572685427437214,-0.01574215062539446,0.24582078262241122,-1.4554630216896958
1.9543010387388822,1.8022640233471634,-0.015834407151778977,0.23247938604331292,-1.4494933448643068
1.950651579555673,1.7503168477048412,-0.01590002052830108,0.21923518475949982,-1.4391800794715317
1.9469904699475618,1.7014038603528086,-0.015935715194406345,0.2060951400407929,-1.4241863223817608
1.9433250085058438,1.6555001879238311,-0.01593786255966177,0.19306722890683461,-1.4041517435974442
1.939663375647198,1.6125789930583743,-0.015902423167693826,0.18016055253193186,-1.37869211647259
1.9360147362005184,1.5726112038728388,-0.01582487636865105,0.1673854403857629,-1.3473997327263108
1.9323893601394793,1.5355652213818445,-0.01570013285777634,0.15475353779681023,-1.3098452413742367
1.9287987662430264,1.5014066110320883,-0.015522422763552098,0.14227785654888153,-1.2655817176553414
1.9252558956653865,1.4700977906028214,-0.015285147476795602,0.1299727558795273,-1.2141521552605403
1.92177532598652,1.4415977362967354,-0.01498067581769567,0.11785380330382991,-1.1551021239079242
1.9183735422564823,1.415861743346671,-0.014600052269589074,0.10593743974020525,-1.088000079914178
1.9150692914713834,1.3928412984522467,-0.014132563253010273,0.09424034195043154,-1.012468751462854
1.9118840635448957,1.372484149614337,-0.013565070890359916,0.08277834359659661,-0.9282319927998072
1.9088427696435635,1.3547346920637509,-0.0128809630342676,0.07156476553894195,-0.8351819986803902
1.9059747350530756,1.3395348158322484,-0.012058468187367211,0.06060807125673817,-0.7334704773199695
1.9033152010137953,1.326825349880977,-0.011067914762895639,0.04990902397170319,-0.6236215283133973
1.9009076636182693,1.3165481194725466,-0.009867193024287502,0.03945819697117732,-0.5066490273212739
1.8988076403203111,1.3086482740340983,-0.008393879131868868,0.02923611118924656,-0.38413319211966873
1.8970891294965488,1.3030756991927674,-0.006549693248673412,0.019221061344060465,-0.25817459237715434
1.8958575427112518,1.299782266595951,-0.004159757058257128,0.009417482976067093,-0.13112491420636527
1.89528863634052,1.2987021349093197,-0.0007872548611520809,-2.5033527086864432e-05,-0.005066610213102174
