x,y,v_x,v_y,omega
2.375,32.48,0.0,2.717948717948718,-6.408163265306122
2.3737341742389457,31.942330216731822,-0.0126582576105424,2.6587491147330464,-6.040205292448115
2.3701056586436797,31.416279361344035,-0.023626898342120062,2.6017594391447982,-5.703553867239453
2.364430851896519,30.9014194989598,-0.033121169129484505,2.5468391846975535,-5.394706533834639
2.356986111591651,30.39734948561548,-0.04132623391919452,2.493860948745672,-5.110630560904768
2.348013299001086,29.903692517381742,-0.04840189198645732,2.4427087335916893,-4.848690084307709
2.337724463696377,29.420093990845213,-0.05448646106063411,2.3932765317736027,-4.606586105268171
2.326305818357157,28.94621962381378,-0.059699992331560536,2.34546713854075,-4.382306789349826
2.313921124448365,28.481753795208697,-0.06414694675636212,2.2991911475100686,-4.174086078520408
2.3007145863814427,28.026398070934988,-0.06791843391286144,2.254366095226996,-3.980369056332497
2.2868133336582046,27.579869888640793,-0.07109409331951838,2.21091572771497,-3.799782832161756
2.272329556143695,27.14190137909837,-0.07374368182557614,2.1687693677092423,-3.631111961115138
2.257362346154308,26.71223830576907,-0.07592841806829896,2.1278613655837777,-3.4732776106830925
2.241999291830991,26.29063910717867,-0.07770212516487117,2.0881306203201913,-3.3253198372706896
2.2263178588066403,25.876874029199307,-0.07911220507863337,2.049520159473451,-3.186382455526504
2.210386591101089,25.47072433633833,-0.0802004719768794,2.0119767691363255,-3.0557000783924786
2.194266157202138,25.071981592772296,-0.081003867012631,1.975450666524004,-2.932586981627862
2.178010263196861,24.680447005210908,-0.08155507304013554,1.9398952090898942,-2.816427507443543
2.1616664514323527,24.29593082079021,-0.0818830446049509,1.9052666351170682,-2.7066677710350397
2.1452768003743152,23.91825177412218,-0.08201346597542353,1.8715238315632496,-2.602808473687698
2.12887853898869,23.547236578404515,-0.08196914788082975,1.838628125613386,-2.5043986586492117
2.1125045870108465,23.182719456148615,-0.08177037189760446,1.8065430969456302,-2.411030272601666
2.0961840308206003,22.82454170563711,-0.08143519000485921,1.7752344081694091,-2.322333417475363
2.079942543254559,22.47255129969337,-0.08097968565555103,1.744669651267969,-2.2379721954407077
2.0638027545155926,22.126602513747795,-0.08041820173411508,1.7148182081878252,-2.1576410649135003
2.0477845803463377,21.786555580531402,-0.07976353995843267,1.685651123976101,-2.081061637887048
2.031905512790064,21.45227636902545,-0.07902713560430545,1.6571409910834096,-2.007979859320494
2.016180878143581,21.12363608555387,-0.07821921086052643,1.6292618436324096,-1.938163518035539
2.00062406609322,20.800510995129976,-0.07734890964308025,1.601989060606513,-1.8714000459010163
1.9852467334996655,20.482782161364888,-0.07642441629246596,1.5752992770444019,-1.8074945682578885
1.9700589858468218,20.170335203416652,-0.07545306023596997,1.549170302437932,-1.7462681737525947
1.955069538982567,19.863060068610167,-0.0744414084065774,1.5235810456269194,-1.687556376164729
1.9402858634455502,19.560850819490796,-0.07339534696359117,1.4985114455668083,-1.6312077445673352
1.9257143133841992,19.263605434192467,-0.07232015364991941,1.473942407416454,-1.577082681352893
1.9113747318458152,18.971230604964706,-0.07107566173392016,1.4498058848611612,-1.520728518423704
1.897284189995824,18.68363628588764,-0.06982975676599225,1.4261373059094942,-1.4669342355466057
1.8834426975138603,18.400730560601794,-0.06858516805364427,1.4029199469489773,-1.4155532843017606
1.8698497520319202,18.12242478051617,-0.06734428676575582,1.3801378539072806,-1.3664490991553788
1.8565044031068725,17.84863341539271,-0.06610920248472082,1.3577757973272944,-1.3194943089186977
1.8434053092819007,17.579273912600076,-0.06488173576499648,1.3358192305990453,-1.2745700188600335
1.8305507889898815,17.314266564431477,-0.06366346715519618,1.314254251086957,-1.2315651563996826
1.817938865965821,17.053534382931176,-0.06245576308540879,1.2930675639160225,-1.1903758740981936
1.8055673097599678,16.797002981719295,-0.06125979897312506,1.2722464482027762,-1.1509050043350113
1.7934336718767532,16.54460046434533,-0.06007657985902189,1.2517787255368744,-1.1130615606790726
1.7815353180061448,16.296257318737954,-0.05890695884705918,1.231652730536892,-1.0767602814862067
1.7698694567623228,16.051906317352277,-0.05775165359116292,1.2118572833198942,-1.0419212117292922
1.7584331652989476,15.811482422646424,-0.056611261042588554,1.192381663738641,-1.0084693194839025
1.7472234121299537,15.574922697547247,-0.05548627064735152,1.1732155872531391,-0.9763341438614328
1.736237077449076,15.342166220590453,-0.05437707616142347,1.1543491823148173,-0.9454494715093141
1.7254709712097007,15.113154005443768,-0.05328398623233256,1.1357729691520364,-0.9157530390889793
1.7149218491985638,14.887828924543058,-0.052207233879035905,1.1174778398550478,-0.8871862594011747
1.704586427311944,14.666135636590852,-0.05114698498716135,1.0994550396670288,-0.8596939690588521
1.6944613942208586,14.448020517684597,-0.05010334592369135,1.0816961493955237,-0.8332241958135826
1.684543422592123,14.233431595858484,-0.04907637036366573,1.0641930688656005,-0.8077279438251241
1.6748291790146241,14.022318488837687,-0.04806606541132257,1.0469380013423721,-0.7831589953280071
1.6653153327645804,13.81463234481782,-0.047072397089113094,1.0299234388562875,-0.7594737272960074
1.655998563529662,13.610325786095206,-0.04609529526007332,1.0131421483698384,-0.7366309418371128
1.6468755681994556,13.409352855385311,-0.04513465804198834,0.9965871587291033,-0.7145917091697799
1.6379512951092634,13.211851122417624,-0.04410807285993373,0.9784301709477543,-0.7296741856906431
1.6292278635207254,13.017969012814387,-0.043126243025448416,0.9603909250846145,-0.7467066313882158
1.620696412905275,12.827683303761603,-0.04218826312905386,0.942466165443236,-0.7655672167189613
1.6123482701674976,12.64097141026026,-0.041293164248720926,0.9246527695701799,-0.7861371863536948
1.6041749616839458,12.45781135899573,-0.040439920586795734,0.9069477430751071,-0.8083005871306815
1.5961682240724846,12.27818176319698,-0.039627455527817046,0.8893482149124149,-0.8319440037410151
1.58832001380386,12.1020617983949,-0.038854647158429345,0.8718514331083722,-0.856956301032383
1.5806225157593232,11.929431178991994,-0.03812033328693985,0.8544547609206676,-0.883228371841783
1.5730681508309667,11.760270135557903,-0.03742331599662439,0.8371556734202368,-0.910652889284333
1.5656495826549413,11.59455939276706,-0.036762365763629526,0.8199517544881975,-0.939124062434069
1.5583597235618563,11.432280147895867,-0.0361362251672212,0.8028406942237291,-0.968537394333513
1.5511917398234174,11.27341404979731,-0.03554361221716776,0.7858202867618351,-0.9987894412616782
1.5441390562696813,11.117943178270814,-0.034983223320193185,0.768888428503147,-1.0297775721748885
1.5371953603471948,10.965850023744366,-0.03445373590467077,0.75204311676132,-1.0613997272110318
1.5303546056847255,10.817117467184516,-0.03395381072002304,0.7352824488371801,-1.0935541741152992
1.5236110152302604,10.671728760147534,-0.03348209382462662,0.718604621532654,-1.126139261403655
1.5169590840204614,10.529667504882099,-0.0330372182733647,0.7020079311217173,-1.159053167028745
1.510393581641795,10.390917634389908,-0.03261780551329917,0.6854907738001889,-1.1921936412511114
1.503909554441143,10.255463392345764,-0.03222246649322078,0.6690516466412583,-1.2254577423458248
1.4975023275428159,10.123289312772712,-0.031849802490050184,0.6526891490892435,-1.2587415636903116
1.4911675067285937,9.994380199360755,-0.031498405652173454,0.6364019850303251,-1.2919399506825562
1.4849009802376996,9.86872110430912,-0.031166859256768844,0.6201889654860121,-1.3249462058293469
1.4786989205445247,9.746297306562223,-0.030853737674979707,0.6040490119829676,-1.3576517802212016
1.4725577861734895,9.627094289297755,-0.030557606035371363,0.5879811606617092,-1.3899459494736204
1.4664743236127091,9.511097716511909,-0.030277019572431507,0.5719845671967533,-1.4217154720631646
1.4604455693911775,9.398293408531018,-0.030010522642884625,0.5560585126121521,-1.4528442278217737
1.4544688523880658,9.288667316260874,-0.0297566473882339,0.540202410089291,-1.483212834174543
1.4485417964475267,9.182205493964098,-0.02951391201715513,0.5244158128784533,-1.5126982375166864
1.442662323378204,9.078894070332026,-0.02928081867607277,0.5086984234422597,-1.5411732769277529
1.4368286564235604,8.978719217590015,-0.029055850870363033,0.49305010397786947,-1.568506217220521
1.4310393242973187,8.881667118343628,-0.028837470392053248,0.47747088848601293,-1.5945602481263874
1.4252931658878634,8.787723929837156,-0.028624113702500925,0.46196099657871287,-1.619192946240584
1.4195893357465936,8.696875745254875,-0.028414187710194827,0.4465208492440894,-1.6422556962071526
1.4139273104881398,8.60910855164887,-0.028206064874343118,0.43115108681596315,-1.6635930675413626
1.4083068962452985,8.52440818402448,-0.02799807755406903,0.4158525894279392,-1.6830421435040126
1.40272823733884,8.442760275055104,-0.027788511510519313,0.40062650026582297,-1.7004317986120134
1.3971918263423282,8.364150199831755,-0.027575598454595753,0.385474251967676,-1.7155819217704296
1.391698515745291,8.288563014979395,-0.027357507515777358,0.37039759655590393,-1.7283025827533882
1.3862495314450332,8.215983391392037,-0.02713233548680293,0.35539863931768945,-1.7383931410025466
1.3808464883289873,8.146395539752838,-0.02689809567365438,0.3404798770742925,-1.7456412976764442
1.3754914082467644,8.0797831279165,-0.02665270514857413,0.3256442412890883,-1.7498220948914311
1.3701867407155943,8.016129189142834,-0.026393970163127348,0.31089514644757504,-1.7506968705999122
1.3649353867568275,7.955416020089782,-0.026119569424541574,0.29623654408294087,-1.7480121842030087
1.3597407263278272,7.897625067412257,-0.025827034865461566,0.2816729826922937,-1.7414987377179156
1.354606649897776,7.842736801787783,-0.025513729435049412,0.26720967355243574,-1.7308703314361016
1.3495375948250123,7.790730578228345,-0.02517682129258832,0.25285256204196155,-1.7158229134016567
1.3445385873388653,7.741584481681933,-0.02481325356888105,0.2386084034221745,-1.696033811393421
1.339615291128316,7.6952751572401255,-0.02441970853661261,0.2244848409959132,-1.6711612782173646
1.334774063821084,7.651777624843909,-0.023992564535706147,0.21049048296625036,-1.6408445413681068
1.3300220230442479,7.61106507935806,-0.02352784323265628,0.19663497189223778,-1.6047046339524398
1.3253671243618288,7.573108678466969,-0.023021143591535266,0.18292903701866867,-1.5623464053140648
1.3208182542988884,7.537877323320085,-0.02246755703786814,0.1693845144501538,-1.51336228030575
1.3163853430664025,7.505337440621144,-0.02186155528699018,0.15601431253925455,-1.4573385717367946
1.3120795037855086,7.475452780434612,-0.021196837521949632,0.1428322893260529,-1.393865467921275
1.307913208433161,7.448184252000399,-0.02046611600152564,0.12985299501609512,-1.322552226723435
1.3039005161173978,7.423489830908196,-0.019660807156108295,0.1170912159059335,-1.2430495948077562
1.300057377762665,7.401324585309897,-0.018770576391219256,0.10456124007705876,-1.155081956717476
1.2964020545568808,7.38164088541949,-0.017782655666622325,0.09227575882702248,-1.0584919760279212
1.2929557081593102,7.364388875258616,-0.01668080830908479,0.0802443427817274,-0.9532999962723055
1.2897432526465271,7.3495172877988715,-0.01544374681874564,0.06847153181570617,-0.8397781849702309
1.2867946083250448,7.336974651536547,-0.014042696396076693,0.05695483080754883,-0.7185336206656947
1.2841465814129303,7.326710826042692,-0.012437572725067882,0.045683424130986236,-0.5905832542863214
1.2818457590740178,7.318678547454407,-0.01057065066405783,0.03463936175187483,-0.45738667567281066
1.2799532355377865,7.31283414325755,-0.008354584698254874,0.023804680216689585,-0.3207856676414562
1.2785534678824617,7.3091354044482415,-0.005643091854992804,0.013182707876407636,-0.1827970775921137
1.2777772014680377,7.307529977860014,-0.002119572289246781,0.0028715580058562354,-0.04524373530298534
