x,y,v_x,v_y,omega
2.375,32.48,0.0,3.7948717948717947,-2.0
2.374408311040266,31.73148850648384,-0.005916889597342838,3.690243140289779,-1.8450079025016193
2.3727390512665436,31.003385951982878,-0.010775708139879034,3.5907824047198287,-1.7082137628324496
2.370185579984671,30.294697896400066,-0.014759004678845097,3.496098151108278,-1.5868835821651728
2.3669081436990136,29.604504273665388,-0.01801535817772819,3.405838076238526,-1.478764251374875
2.363039980921679,28.93195205295492,-0.02066626959562055,3.3196841308661384,-1.381988262283778
2.3586922003498088,28.276248802382632,-0.022811536123081115,3.2373483748567367,-1.294999240806617
2.353957699940612,27.63665702128923,-0.024533467968884972,3.158569436077284,-1.216493353825951
2.348914331500697,27.012489130761715,-0.025900216430270146,3.083109469197863,-1.1453729078480364
2.343627468342599,26.403103030704763,-0.026968415150704014,3.0107515313716537,-1.0807093773935532
2.3381520980934343,25.807898146790254,-0.027785287340946263,2.9412973077734397,-1.0217137753142407
2.3325345358252,25.226311902768394,-0.02839033534139567,2.874565132445166,-0.9677127755067566
2.3268138321170415,24.657816563552913,-0.028816701740188282,2.8103882597096526,-0.9181293696109764
2.321022934858055,24.10191640266087,-0.029092270849678564,2.7486133492107916,-0.8724671177175879
2.3151896513825294,23.558145154350967,-0.02924056390557451,2.68909913388824,-0.8302972634668787
2.309337448031565,23.026063716437807,-0.029281469604071703,2.6317152452433383,-0.7912481438918425
2.3034861168113014,22.50525807447741,-0.02923184259856426,2.576341174360614,-0.7549964467758332
2.2976523329860217,21.995337421990058,-0.029105995654231134,2.522865350512946,-0.7212599625337306
2.2918501228405144,21.49593245474383,-0.02891610580084246,2.47118432194931,-0.689791550585839
2.286091257194792,21.006693819972995,-0.0286725506563811,2.4212020257590408,-0.6603740969880434
2.2803855833455278,20.527290703835394,-0.028384187836263945,2.3728291356169575,-0.632816284522788
2.274741305781456,20.057409542492557,-0.028058587804454933,2.32598247781141,-0.6069490314042254
2.2691652241505684,19.596752843981484,-0.02770222850441914,2.280584507299322,-0.5826224823669355
2.263662935449252,19.145038109585144,-0.027320658508746043,2.2365628366640795,-0.5597034578302058
2.258239006182975,18.70199684473771,-0.026918634154022018,2.193849811810267,-0.5380732843101133
2.252897119256444,18.26737365065236,-0.026500235111288052,2.152382129043261,-0.5176259432493666
2.2476401995425617,17.84092538886047,-0.026068962027533418,2.1121004888756403,-0.4982664866901102
2.242470521418026,17.422420411723323,-0.025627819217823644,2.072949282495799,-0.4799096773009671
2.2373898010104525,17.011637852739426,-0.02517938485791248,2.0348763073432097,-0.4624788176327515
2.23239927545488,16.608366971137833,-0.024725870697816003,1.9978325086726736,-0.4459047394663571
2.227499771088333,16.2124065458338,-0.02426917296765118,1.9617717443676705,-0.4301249290052454
2.222691762205351,15.823564314338071,-0.023810915862166323,1.9266505705896202,-0.41508276766965874
2.2179754217434096,15.441656452665793,-0.023352488757251835,1.892428046133164,-0.40072687154113296
2.21335066505565,15.066507092692095,-0.022895078120345358,1.8590655536037939,-0.38701051521992025
2.2088171877517055,14.69794787375685,-0.022439694919096496,1.8265266357486603,-0.3738911281029229
2.2043744984395373,14.335817525636116,-0.02198719820258814,1.794776845458679,-0.36132985295242986
2.2000219470771043,13.979961480277854,-0.021538315421737415,1.7637836081239333,-0.34929115817604467
2.1957587495383177,13.630231509948654,-0.02109365996612824,1.7335160951680557,-0.33774249653186705
2.191584008909689,13.286485389660498,-0.02065374632015806,1.7039451077135133,-0.32665400405570133
2.187496733959739,12.948586581945062,-0.020219003179341957,1.675042969440842,-0.31599823391567516
2.1834958551602313,12.616403942220689,-0.019789784815739127,1.6467834278028768,-0.3057499206641825
2.179580238584859,12.289811443156243,-0.019366380937984373,1.6191415628416046,-0.2958857710020246
2.1757486979655725,11.968687916578894,-0.018949025254879542,1.5920937029319002,-0.28638427771507063
2.1720000051480097,11.65291681160127,-0.018537902920747067,1.5656173468443366,-0.2772255539061843
2.168332899154455,11.342385967758876,-0.018133157014801927,1.5396910915795947,-0.26839118503813214
2.1647460940344883,11.036987402052851,-0.017734894184862744,1.5142945654806506,-0.259864096637905
2.161238285659288,10.736617108887113,-0.017343189567140472,1.4894083661767195,-0.25162843579863803
2.1578119809347487,10.441175061588282,-0.016919857678254432,1.46501210681158,-0.2426062453197411
2.154469283834425,10.150564833598775,-0.0165071133249813,1.44109017308351,-0.23399444481862097
2.1512080960030175,9.864693243124773,-0.016104764989094817,1.4176257316565304,-0.22576953152731188
2.148026358605858,9.583470398774388,-0.015712608982499907,1.3946027118473183,-0.21790960355372468
2.1449220544912895,9.306809551359166,-0.01533043216318596,1.3720057623049147,-0.21039423354093195
2.141893209848175,9.034626954067878,-0.014958014267959908,1.3498202106079766,-0.20320435362453945
2.1389378954301064,8.766841730451858,-0.014595129912722963,1.3280320255522078,-0.19632215056161212
2.13605422740841,8.50337574970457,-0.014241550304240937,1.3066277819206562,-0.18973097002828068
2.1332403679078364,8.244153508757737,-0.013897044701493392,1.2855946275476609,-0.18341522919201614
2.130494525271724,7.989102020752615,-0.013561381659632945,1.2649202525035543,-0.17736033676054824
2.127814954097238,7.7381507094780595,-0.0132343300852258,1.2445928602419853,-0.17155261979415856
2.1251999550759475,7.491231309397353,-0.012915660127678414,1.2246011405650794,-0.16597925664302227
2.12264787467033,7.248277770913472,-0.012605143928498793,1.2049342442737474,-0.16062821543763312
2.120157104652758,7.009226170547954,-0.012302556247222141,1.185581759381421,-0.15548819761918403
2.1177260815299968,6.774014625731866,-0.012007674980388364,1.1665336887794524,-0.15054858604901675
2.115353285873174,6.542583213928776,-0.011720281587840772,1.1477804292514586,-0.14579939728269203
2.1130372415705123,6.314873895829418,-0.011440161438776662,1.1293127517421275,-0.14123123763557116
2.1107765150177964,6.090830442375857,-0.011167104088382923,1.1111217827934914,-0.13683526270363808
2.1085697142595077,5.870398365389658,-0.010900903494500657,1.0931989870685108,-0.13260314003616575
2.1064154880918022,5.653524851594003,-0.010641358182553901,1.0755361508880388,-0.1285270146861973
2.1043125251369545,5.440158699833905,-0.01038827136592469,1.0581253667129316,-0.12459947739107788
2.102259552897558,5.2302502613117845,-0.010141451028039122,1.0409590185082718,-0.12081353515879503
2.1002553367975914,5.023751382667815,-0.00990070997162881,1.0240297679314312,-0.117162584056966
2.098298679216435,4.820615351745666,-0.009665865839933865,1.007330541290057,-0.11364038402023395
2.0963884185210415,4.6207968458946524,-0.00943674111400374,0.990854517220063,-0.11024103550883046
2.0945253277224776,4.424421866059465,-0.009194166871632724,0.9728952811318027,-0.1405322182012505
2.092707691871724,4.231627884634552,-0.008982191635906392,0.9550445331173323,-0.17234895883750048
2.0909294397493463,4.04239349262134,-0.008800329587868017,0.9372993870147721,-0.2055895291112571
2.0891846039953306,3.856697847416264,-0.008648027952292322,0.9196570650359958,-0.24015435833485094
2.087467333867869,3.674520651520478,-0.008524673322320766,0.902114893921867,-0.27594581788904504
2.085771906790859,3.4958421319834336,-0.008429597447777708,0.8846703014485743,-0.31286800962938877
2.0840927387937183,3.320643020510939,-0.008362082523632495,0.8673208132763606,-0.3508265573935001
2.0824243939401885,3.14890453416988,-0.008321366011665256,0.8500640501342276,-0.389728400751825
2.080761592836506,2.980608356622806,-0.00830664502515898,0.8328977253365231,-0.42948159013619636
2.079099220303655,2.8157366198261826,-0.008317080303350363,0.81581964262972,-0.46999508246559907
2.07743233229338,2.654271886126189,-0.008351799799400523,0.7988276943702045,-0.5111785363665934
2.075756162123163,2.496197130685516,-0.008409901902768009,0.781919860036539,-0.55294210605641
2.074066126101481,2.341495724173612,-0.008490458314053873,0.7650942050824909,-0.5951962329193
2.072357828611314,2.1901514156513464,-0.008592516587615295,0.7483488801401699,-0.6378514337606619
2.0706270667171043,2.0421483155787357,-0.008715102354482265,0.7316821205859365,-0.6808180846680539
2.068869834358123,1.8974708788716015,-0.008857221235332242,0.7150922464853938,-0.724006199342593
2.067082326189545,1.7561038879292816,-0.009017860450449429,0.6985776629378154,-0.7673252006874631
2.065260941131431,1.6180324355510116,-0.009195990130685498,0.6821368608448718,-0.8106836843512205
2.0634022856853216,1.4832419076531664,-0.009390564330411324,0.6657684181335766,-0.8539891728210369
2.0615031770782535,1.3517179656928988,-0.009600521740265626,0.6494710014690869,-0.8971478585435948
2.059560646294815,1.2234465286960443,-0.009824786094123253,0.6332433684994728,-0.9400643344174983
2.0575719410592948,1.0984137547779014,-0.01006226626107563,0.6170843706819518,-0.982641309849128
2.055534528832259,0.9766060220348542,-0.010311856009285318,0.600992956748526,-1.024779310392051
2.0534460998889017,0.8580099086721376,-0.010572433424286204,0.5849681768786412,-1.066376358796506
2.051304570550515,0.7426121722185108,-0.010842859959583334,0.5690091876576191,-1.1073276350782004
2.049108086645338,0.630399727661505,-0.0111219790921859,0.553115257912449,-1.1475251129728035
2.0468550272811297,0.5213596243171281,-0.011408614549897212,0.5372857755313367,-1.1868571698724228
2.044544009019071,0.4154790212249395,-0.011701568070688588,0.521520255390533,-1.2252081670417416
2.0421738905472835,0.3127451608327121,-0.011999616647187752,0.5058183485317679,-1.26245799658384
2.039743777962456,0.2131453407038819,-0.012301509201088098,0.4901798527565287,-1.2984815912697174
2.0372530307800485,0.11666688294523908,-0.012605962622984707,0.47460472482990845,-1.3331483929637784
2.0347012688074906,0.023297101010513188,-0.01291165710259457,0.45909309451732677,-1.3663217749756387
2.032088380030999,-0.06697673651248692,-0.013217230662321094,0.4436452807126475,-1.3978584132565919
2.029414529685423,-0.15416744557941087,-0.01352127279343931,0.4282618099566209,-1.4276076009537495
2.0266801706982265,-0.23828797034413896,-0.01382231707852361,0.412943437690677,-1.4554105004628777
2.0238860557237977,-0.31935143137753386,-0.014118832665766554,0.3976911726432646,-1.4810993268236385
2.02103325101321,-0.39737117912228825,-0.01440921444010995,0.3825063048042762,-1.504496456141086
2.018123152397992,-0.47236085335344313,-0.014691771712067264,0.367390437507244,-1.5254134527892254
2.015157503705084,-0.5443344495249391,-0.014964715217012316,0.3523455242077061,-1.5436500095968186
2.0121384179649318,-0.6133063930073916,-0.015226142184511765,0.3373739106167889,-1.55899279624104
2.0090684018267297,-0.6792916223607364,-0.015474019197511804,0.3224783829166812,-1.5712142129896012
2.005950383655712,-0.7423056829364683,-0.01570616251266604,0.30766222284067,-1.580071050192585
2.002787745859198,-0.8023648322635637,-0.01592021545247317,0.2929292704302746,-1.5853030592050843
1.9995843620737557,-0.8594861588327944,-0.016113622401947768,0.27828399526206643,-1.5866314487169446
1.996344639949671,-0.9136877160418919,-0.016283598838900636,0.263731576828891,-1.583757333250726
1.993073570397389,-0.9649886731751707,-0.016427096683918525,0.24927799450386678,-1.5763601800481957
1.9897767843238683,-1.0134094853271023,-0.016540764051288907,0.2349301270154554,-1.5640963299390742
1.986460618100957,-1.0589720840755916,-0.016620898177824223,0.22069586046941644,-1.5465977118768175
1.9831321892992255,-1.1017000903663998,-0.01666338983948956,0.20658420243868517,-1.5234709367419144
1.979799484632423,-1.141619050325616,-0.016663656828536114,0.19260539715350375,-1.4942970542148042
1.9764714626622355,-1.1787566933241678,-0.016616562873337598,0.17877103283200396,-1.458632402249137
1.973158174732319,-1.2131432091991243,-0.016516316425828383,0.1650941259175842,-1.4160111937157167
1.9698709090417346,-1.2448115375243916,-0.016356340480014997,0.1515891573351071,-1.3659507991980235
1.966622365083748,-1.2737976553981696,-0.016129099099850875,0.1382720214026647,-1.3079611374639186
1.9634268694677053,-1.300140840251494,-0.015825857060576213,0.12515982713056328,-1.2415602188500034
1.96030065043075,-1.3238838692904196,-0.015436333308976603,0.1122704632586888,-1.1662987308329908
1.9572621988535466,-1.3450730960339214,-0.01494818246305876,0.09962180417636501,-1.081797572429258
1.9543327611835766,-1.3637583168002436,-0.014346194236641654,0.0872304034868519,-0.9878032024920242
1.951537039040489,-1.3799923096317244,-0.01361102719423295,0.0751095248279454,-0.8842658570779623
1.9489042191558599,-1.3938299088588835,-0.012717171652057683,0.06326646744367646,-0.7714434046970282
1.9464695392799938,-1.4053265061870945,-0.011629627106603016,0.05169950583845408,-0.6500254605536394
1.9442767405779167,-1.4145360204746922,-0.010298359914169102,0.040395637037551835,-0.5212533670982036
1.9423820570342631,-1.4215087941095277,-0.008648475522365516,0.029332099310788153,-0.38697876944170473
1.9408612280379438,-1.4262908228054272,-0.006559814440828352,0.018488187648230445,-0.2495664772916565
1.939824436670799,-1.428928232490641,-0.003808099230618414,0.00788590920391901,-0.11153890122506532
