x,y,v_x,v_y,omega
2.375,32.48,0.0,2.769230769230769,-2.8571428571428577
2.3744090781379237,31.93219514792476,-0.0059092186207616885,2.708817751521621,-2.690771388424616
2.3727171326043552,31.396252808215415,-0.011010236714924735,2.6506056455718205,-2.5387443247603025
2.370075302613536,30.871745664127722,-0.015408063193266815,2.5944657953051076,-2.3994467508851707
2.3666152028545246,30.358271112507474,-0.019192934396845322,2.540279720897347,-2.2714792755014788
2.362451649692842,29.855449333063998,-0.022442597219986565,2.4879380735374337,-2.1536252972859273
2.3576849694163737,29.362921553110127,-0.025224205544694657,2.437339726001256,-2.0448238108272365
2.3524029587184616,28.88034848278368,-0.02759590143442237,2.3883909772632252,-1.9441467211841978
2.3466825547562316,28.407408899703427,-0.02960813818788066,2.3410048535392995,-1.8507798451261945
2.3405912618245335,27.943798365208934,-0.03130479112910154,2.2951004914056203,-1.7640069404168919
2.334188373394325,27.489228056949006,-0.03272409317298293,2.250602591193682,-1.6831962326658108
2.3275260215562596,27.04342370474044,-0.03389942520766887,2.2074409308919467,-1.60778901044957
2.3206500804591172,26.60612461841051,-0.03485998576375475,2.1655499324073766,-1.5372899397138822
2.313600945884495,26.17708279783479,-0.03563135998246913,2.1248682733498416,-1.4712588125398844
2.3064142094551014,25.756062116643154,-0.03623600431146418,2.085338538566509,-1.409303496723579
2.2991212429775985,25.34283757213408,-0.036693660463564835,2.0469069065242507,-1.3510738939830156
2.29174970594842,24.937194594846076,-0.03702170982822083,2.0095228663557485,-1.2962567480647826
2.2843239872039565,24.5389284120125,-0.03723547761641745,1.9731389619800435,-1.244571171192483
2.276865589996271,24.147843459794025,-0.03734849446043792,1.9377105602046996,-1.1957647794522783
2.269393468359062,23.763752839760237,-0.03737272191164622,1.9031956401331986,-1.1496103458385514
2.261924321445078,23.386477815591675,-0.037318747228193665,1.869554601552388,-1.1059028945702218
2.2544728515245396,23.01584734640919,-0.03719595197719622,1.8367500902724818,-1.0644571725562642
2.2470519905010073,22.651697653517385,-0.037012658258126246,1.8047468386455816,-1.0251054440314986
2.2396730990993556,22.29387181768228,-0.03677625575838931,1.7735115197054643,-0.9876955627954569
2.232346142287899,21.94221940435598,-0.03649331235617713,1.7430126135575426,-0.952089283484541
2.2250798439950974,21.596596114519386,-0.03616967057183635,1.7132202848083902,-0.9181607791456355
2.2178818237556444,21.25686345904224,-0.03581053182269833,1.6841062699630762,-0.8857953372636606
2.210758717558792,20.922888454662022,-0.03542053014582048,1.6556437738390932,-0.8548882104931879
2.2037162848633294,20.594543339863048,-0.03500379680880933,1.627807374150653,-0.8253436017909689
2.196759503480149,20.2717053090971,-0.03456401702299421,1.6005729335088346,-0.7970737665528442
2.1898926537979224,19.954256263929874,-0.034104479799271496,1.573917518163413,-0.7699982168157331
2.1831193936340294,19.642082579825257,-0.03362812183965959,1.5478193228827766,-0.7440430146677085
2.1764428248267995,19.33507488739393,-0.03313756623263809,1.522257601430487,-0.7191401437778736
2.169865552542127,19.033127867035688,-0.03263515661408862,1.4972126021519123,-0.6952269494635056
2.16339683547028,18.73614103779393,-0.03205201410437722,1.4726556902656533,-0.6701695288377012
2.1570446759054422,18.444017535515652,-0.03146958154400152,1.4485793325171383,-0.6462615920179092
2.1508088129597938,18.156662964276244,-0.030889047912485063,1.424966379876923,-0.623436779274669
2.1446887634571388,17.87398627965444,-0.0303114471140637,1.4018004663411185,-0.6016332863651745
2.1386838512147652,17.59589963661773,-0.029737675309673955,1.3790659640259568,-0.5807935022824409
2.1327932330539157,17.32231824608265,-0.029168506298819417,1.3567479413248742,-0.5608636796398111
2.1270159219059535,17.053160239561613,-0.0286046051808011,1.3348321238854948,-0.541793634412616
2.121350807338251,16.788346541354485,-0.028046540496227873,1.3133048581857674,-0.5235364721213426
2.1157966737861353,16.527800747785093,-0.027494795024926008,1.292153077508173,-0.5060483378595156
2.1103522167441615,16.271449013021414,-0.02694977539481409,1.271364270128619,-0.4892881878503305
2.105016057140925,16.019219941053294,-0.026411820637551243,1.2509264495525776,-0.47321758046380374
2.0997867540961277,15.771044483433492,-0.025881209810419494,1.2308281266454313,-0.45780048484504654
2.0946628162361223,15.526855842417252,-0.02535816878963642,1.2110582835169825,-0.44300310549785793
2.0896427117243754,15.286589379162368,-0.02484287632783154,1.1916063490318611,-0.4287937213393296
2.0847248771458404,15.050182526676362,-0.024335469457518178,1.1724621758282145,-0.41514253789328276
2.079907725368804,14.817574707219869,-0.023836048312845037,1.1536160187367388,-0.40202155142547913
2.0751896524941658,14.588707253896107,-0.02334468043354035,1.1350585145008794,-0.3894044239437248
2.07056904399005,14.36352333617532,-0.022861404607613423,1.1167806627070105,-0.3772663680930022
2.0660442800989967,14.141967889120554,-0.022386234302921085,1.0987738078406584,-0.3655840410711815
2.061613740595502,13.923987546097344,-0.02191916073202618,1.0810296223914446,-0.35433544677603934
2.0572758089633223,13.709530574764653,-0.021460155589773072,1.0635400909354555,-0.34349984547043716
2.0530288760544853,13.498546816158182,-0.021009173498595535,1.0462974951292427,-0.33305767032062644
2.0488713432853576,13.290987626689788,-0.020566154192681523,1.0292943995546875,-0.3229904502236643
2.044801625419221,13.086805822898462,-0.020131024468682628,1.012523638358557,-0.3132807383946412
2.040818152979591,12.885955628799127,-0.019703699927617783,0.9959783026347895,-0.30391204623354656
2.0369226648767427,12.68856445716645,-0.019251181100867786,0.977933413691991,-0.3289919626031594
2.0331143392417577,12.494771065328173,-0.01883207524898216,0.9600005046907866,-0.35574788562130466
2.0293865460387024,12.304553359431882,-0.018445856781567967,0.9421765542721391,-0.3840716326057424
2.0257327674475407,12.11788983823504,-0.018091929130050487,0.9244586576962659,-0.4138574791560766
2.0221466113876883,11.934759570210524,-0.017769631468475718,0.9068440225488981,-0.44500192709410974
2.018621823754223,11.755142171472443,-0.017478244866173286,0.8893299648319055,-0.4774034775151118
2.0151522994764566,11.579017784446528,-0.01721699791149108,0.8719139054272367,-0.5109624080280398
2.0117320925010826,11.406367057211245,-0.016985071842247786,0.8545933669255807,-0.5455805532687322
2.00835542479534,11.23717112343732,-0.01678160521517744,0.8373659708136479,-0.5811610877694104
2.005016694459479,11.071411582854306,-0.016605698143433354,0.8202294350165037,-0.6176083102602549
2.001710483032321,10.909070482173256,-0.01645641612815128,0.8031815717940177,-0.6548274284641451
1.9984315620687938,10.75013029639453,-0.016332793507116868,0.7862202859932363,-0.6927243434235173
1.9951748990640108,10.59457391042907,-0.016233836540714804,0.7693435736613907,-0.7312054323682903
1.9919356627946863,10.442384600960196,-0.016158526152529957,0.75254952102736,-0.7701773290954319
1.9887092281455134,10.293546018471183,-0.016105820339198103,0.7358363038627611,-0.809546700783386
1.9854911804854598,10.148042169361158,-0.016074656261337316,0.7192021872374934,-0.849220020107552
1.982277319656866,10.00585739806855,-0.016063952024602438,0.7026455256885827,-0.8891033314555117
1.9790636636386993,9.866976369117129,-0.016072608157063455,0.6861647638256251,-0.9291020099618046
1.9758464519443748,9.731384048994457,-0.016099508786181372,0.6697584374010875,-0.9691205119907652
1.972622148814196,9.59906568776642,-0.016143522515607314,0.6534251748793001,-1.0090621155910915
1.9693874462627527,9.470006800324064,-0.01620350299882336,0.6371636995442455,-1.0488286493262142
1.966139267042547,9.344193147150303,-0.016278289203235027,0.6209728321933744,-1.0883202077488248
1.9628747675867566,9.221610714483688,-0.01636670535466878,0.604851494472759,-1.1274348516347348
1.9595913409964627,9.1022456937446,-0.01646756054827133,0.5887987129181294,-1.1660682909191573
1.9562866201408862,8.986084460075098,-0.016579648007493168,0.5728136237768949,-1.2041135480861693
1.9529584809433267,8.873113549827572,-0.0167017439681012,0.5568954786983542,-1.241460599548339
1.9496050459306236,8.763319636818416,-0.01683260615893135,0.5410436513931897,-1.2779959923173674
1.9462246881302026,8.656689507141166,-0.016970971845277856,0.5252576453793156,-1.3136024330077951
1.9428160354062423,8.553210032308286,-0.01711555539432699,0.5095371029495017,-1.348158345934873
1.9393779753353324,8.452868140461607,-0.017265045314770074,0.4938818155172997,-1.3815373967665643
1.9359096607324007,8.355650785357675,-0.017418100714548614,0.478291735522028,-1.413607977872372
1.932410515949801,8.26154491279534,-0.01757334711144708,0.46276699010133054,-1.4442326511854928
1.928880244086578,8.170537424108055,-0.017729371520784812,0.4473078967715329,-1.4732675440715604
1.9253188352612431,8.082615136291697,-0.017884716732562898,0.4319149813920543,-1.5005616933956518
1.9217265761203022,7.997764738279411,-0.01803787467684614,0.41658899873079985,-1.5259563327279337
1.918104060776558,7.9159727428070426,-0.018187278760595327,0.40133095599288715,-1.549284117470379
1.914452203396377,7.837225433235247,-0.018331295041216982,0.38614213972507677,-1.5703682826863867
1.9107722526841304,7.761508804606525,-0.018468212081247624,0.37102414656215704,-1.5890217286662003
1.9070658085455923,7.68880849811654,-0.018596229304132607,0.3559789183376869,-1.6050460299020297
1.9033348412509787,7.6191097280690805,-0.018713443642004498,0.341008782136891,-1.6182303643798683
1.8995817134636506,7.552397200263506,-0.018817834231275647,0.32611649591884784,-1.6283503622151556
1.8958092055536642,7.488655020634663,-0.01890724486858771,0.31130530036957244,-1.6351668760969822
1.8920205446783132,7.427866592832423,-0.018979363884923935,0.29657897765282315,-1.6384246813884205
1.888219438187385,7.370014503299281,-0.01903170102435674,0.2819419176785825,-1.637851121975981
1.8844101120031673,7.3150803922940035,-0.019061560817820185,0.2673991923741949,-1.6331547304100882
1.8805973547405526,7.263044809240178,-0.01906601180832736,0.2529566381640581,-1.6240238694931803
1.8767865684806404,7.213887050788369,-0.019041850790793992,0.23862094635403636,-1.6101254701248524
1.8729838273073716,7.167584980128584,-0.01898556094189508,0.22439976024381933,-1.5911039811046352
1.869195944985692,7.124114826468901,-0.018893262274898143,0.21030177635302436,-1.566580706845972
1.8654305535417905,7.083450964349311,-0.018760652164115856,0.1963368448428866,-1.5361537974389994
1.861696195067267,7.045565673805093,-0.018582932581119285,0.1825160605992691,-1.499399284905686
1.8580024299193725,7.0104288846577525,-0.0183547188978277,0.16885183087413416,-1.455873747583989
1.854359965811266,6.97800791187219,-0.018069922183238094,0.15535789698149163,-1.4051194552586876
1.850780814384267,6.948267194654413,-0.017721592086752898,0.1420492751962909,-1.346673230709133
1.8472784852363502,6.921168060680966,-0.01730169939241413,0.1289420645381739,-1.2800807899590272
1.8438682328909102,6.896668549633912,-0.01680082406198678,0.11605304593238018,-1.2049190106835213
1.8405673812140466,6.874723348040952,-0.01620769270664796,0.1033989699972333,-1.1208293868150276
1.837395764577383,6.8552839103005745,-0.015508473659986364,0.09099540740655265,-1.027566663412508
1.8343763492133998,6.838298865623933,-0.01468567997984739,0.07885503935986127,-0.9250667534872307
1.8315361374710624,6.823714826676703,-0.01371643744352725,0.06698535011242608,-0.8135362299981657
1.828907521842162,6.811477695900017,-0.012569718845476878,0.05538595765442955,-0.6935594730493365
1.8265303652140106,6.801534453338885,-0.011201847436036331,0.044046467956894014,-0.5662052643951175
1.8244552986676654,6.793835103588176,-0.009548818027415282,0.032947029550199465,-0.433089746585098
1.8227492782764445,6.788333778828591,-0.007511385884793484,0.02206621804563983,-0.296323002064391
1.8215064290175966,6.784986389663011,-0.004917106703685666,0.01140767361014916,-0.15825422931516064
1.8208786491558588,6.78373530641063,-0.0013606919136926608,0.0011031589136572175,-0.020989042483608472
