x,y,v_x,v_y,omega
2.375,32.48,0.0,2.41025641025641,-2.1224489795918373
2.3745830630157623,31.979041988416697,-0.003970828421312075,2.3607722714893185,-2.0082271220338583
2.3733855356674223,31.488303071779217,-0.007434193943831328,2.312931696486669,-1.9030208431147162
2.371507563384696,31.007447369310686,-0.010451256367846981,2.2666464222612555,-1.8058950480233453
2.3690372856743065,30.536156868177287,-0.013075198016814095,2.2218345409139832,-1.716029954402551
2.366052391332998,30.074130150635934,-0.015352367138506871,2.1784199118607734,-1.632704892887087
2.3626214523952664,29.621081237475575,-0.017323241792269878,2.136331642047414,-1.5552846438528456
2.3588050712895967,29.17673853448758,-0.019023244928393752,2.095503624504938,-1.4832078738725103
2.3546568698267265,28.740843870554656,-0.020483435670368852,2.0558741272371686,-1.4159773172027985
2.3502243438693617,28.31315161749125,-0.021731097256913787,2.0173854257476513,-1.3531514128580522
2.345549603621012,27.893427883062145,-0.02279023844165859,1.9799834735771533,-1.2943371600807634
2.340670016254171,27.481449769697125,-0.023682022194918866,1.94361760608971,-1.2391839970782803
2.3356187649421285,27.077004692344804,-0.024425133157868904,1.9082402734562083,-1.187378541896126
2.3304253361587106,26.679889749697885,-0.025036093350873805,1.8738067993715768,-1.1386400619009376
2.325115945282058,26.289911143698287,-0.025529534045818394,1.8402751625293823,-1.0927165608433493
2.3197139090145096,25.90688364281275,-0.025918430407022724,1.8076057982852314,-1.049381390876941
2.314239971856467,25.530630085073103,-0.026214304431476737,1.775761418282855,-1.0084303120222127
2.308712592803722,25.16098091731227,-0.026427400832762196,1.7447068461060382,-0.9696789340164864
2.3031481975394716,24.797773767408298,-0.026566839779146426,1.7144088672651039,-0.9329604857841398
2.2975614006350376,24.44085304668168,-0.026640749786889358,1.684836092036019,-0.8981238662978652
2.2919652016333774,24.090069579883703,-0.026656383562256445,1.6559588298495043,-0.8650319377023116
2.286371158347343,23.745280260470928,-0.026620219161879215,1.6277489740816997,-0.833560027495336
2.2807895402442933,23.40634772908809,-0.026538048486214775,1.60017989623102,-0.8035946115182085
2.275229464396831,23.073140073382817,-0.026415054822948928,1.5732263485811142,-0.77503215366393
2.269699016145239,22.745530547454045,-0.026255880906499912,1.5468643745500508,-0.7477780817101523
2.2642053563314826,22.4233973093949,-0.026064688748325262,1.5210712260132246,-0.7217458816324833
2.258754816719942,22.106623175532302,-0.025845212313962824,1.495825286963897,-0.6968562952472604
2.253360944565654,21.795096216224785,-0.025524998679256804,1.4710981350124617,-0.6709757495171913
2.2480357133294873,21.48870866567284,-0.025191489284236635,1.4468785369108426,-0.6463272129081682
2.2427816855696525,21.187355895979316,-0.024846870333234974,1.4231478411227307,-0.6228370674393323
2.2376009899849625,20.890937103500747,-0.024493087616197617,1.3998882777207446,-0.6004369263401419
2.2324953692008704,20.59935512919337,-0.024131872232295685,1.3770829061590735,-0.579063203740098
2.2274662224549284,20.31251628954014,-0.023764763443341982,1.3547155667288209,-0.558656724445409
2.222514643748692,20.030330217317214,-0.023393128997007892,1.3327708353942973,-0.5391623696401601
2.2176414559662314,19.75270971151846,-0.023018183216898448,1.311233981736679,-0.5205287548253038
2.212847241400922,19.47957059581166,-0.022641003119382545,1.290090929756662,-0.5027079367252754
2.208132369080976,19.210831584949624,-0.022262542784866012,1.2693282213103458,-0.4856551462572405
2.2034970192393253,18.946414158604885,-0.021883646183236294,1.2489329819728694,-0.46932854497873555
2.1989412052340507,18.68624244213776,-0.021505058628902847,1.2288928891425699,-0.45368900271160756
2.1944647931909476,18.430243093845235,-0.021127437019699487,1.209196142214861,-0.4386998942887257
2.1900675196093546,18.17834519827234,-0.02075135899547134,1.1898314346698353,-0.42432691358924496
2.1857490071455428,17.930480165199256,-0.020377331136069727,1.1707879279309665,-0.41053790322197325
2.1815087787642926,17.686581633945742,-0.020005796304407276,1.1520552268643696,-0.3973026983878467
2.1773462704283992,17.44658538266109,-0.019637140227911142,1.1336233567990164,-0.3845929836044306
2.1732608424773714,17.210429242291582,-0.01927169740092223,1.1154827419582112,-0.3723821611101442
2.169251789830257,16.978053014939796,-0.01890975638112216,1.0976241852016195,-0.36064522988564884
2.16531835113304,16.74939839635017,-0.018551564544755383,1.0800388489853097,-0.3493586743363512
2.1614597169582397,16.52440890227397,-0.01819733235810258,1.0627182374546857,-0.33850036177484333
2.157675037152935,16.303029798484072,-0.01784723721622521,1.0456541795919503,-0.3280494479266982
2.1539634274213273,16.085208034225598,-0.017501426894328497,1.0288388133458848,-0.3179862897585759
2.150323975218954,15.870892178903159,-0.017160022652085626,1.0122645706773539,-0.30829236499511176
2.146755745027666,15.660032361818836,-0.016823122026845917,0.9959241634590602,-0.29895019775148446
2.14326019781251,15.4527155425743,-0.016467803831779215,0.9785217341079546,-0.31556509625450757
2.1398367057445795,15.249041102363531,-0.0161368825294648,0.9612348393279443,-0.33410936597823604
2.136480130184673,15.048985117193862,-0.015830503755361807,0.9440602575260421,-0.35447251831096493
2.133185313364944,14.852524326506359,-0.015548704051579952,0.926994891878764,-0.37654704393309674
2.129947100333167,14.65963610751913,-0.015291420060581741,0.9100357651424557,-0.40022817898554436
2.1267603590420188,14.47029845061833,-0.015058496997971104,0.8931800148651554,-0.4254136784048924
2.1236199987293936,14.284489935714262,-0.014849696455604057,0.8764248889831051,-0.4520035955430183
2.120520986725443,14.102189709483365,-0.014664703582017519,0.8597677417873325,-0.47990006721029055
2.117458363812594,13.923377463419655,-0.014503133683213631,0.8432060302480077,-0.5090071032970834
2.114427258256128,13.748033412621531,-0.014364538283127462,0.8267373106865222,-0.5392303801381838
2.1114228986150403,13.57613827524176,-0.014248410679616758,0.8103592357874912,-0.5704770367886685
2.108440625435686,13.407673252529833,-0.014154191028515579,0.7940695519451516,-0.6026554733778833
2.10547590192425,13.242620009396791,-0.01408127098516293,0.777866096940959,-0.6356751507000891
2.102524323688176,13.080960655433074,-0.014028997929827135,0.7617467979515907,-0.6694463901859066
2.0995816276314843,12.922677726309804,-0.013996678800571864,0.7457096698890837,-0.7038801733775872
2.0966437000842197,12.767754165493312,-0.013983583554325545,0.7297528140774999,-0.7388879400029759
2.093706584242225,12.616173306201471,-0.01398894827419769,0.713874417273364,-0.774381383707352
2.090766486989901,12.467918853528548,-0.014011977938408257,0.6980727510401925,-0.8102722444585957
2.0878197851756974,12.322974866662793,-0.01405184886353361,0.6823461714907914,-0.8464720965886967
2.084863031407656,12.181325741117718,-0.014107710832098226,0.6666931194146788,-0.88289213137279
2.081892959434544,12.042956190893907,-0.014178688911826484,0.6511121208120739,-0.9194429329748433
2.0789064891768385,11.907851230483296,-0.014263884971083563,0.635601787860434,-0.956034246505937
2.075900731471199,11.775996156621765,-0.01436237889214632,0.6201608203446186,-0.9925747368457704
2.0728729925920275,11.647376529688891,-0.014473229480918589,0.6047880075875012,-1.0289717367694988
2.0698207786143383,11.521978154645147,-0.014595475068502279,0.5894822309243392,-1.0651309827991255
2.066741799683501,11.399787061387073,-0.014728133796613386,0.5742424667715957,-1.1009563370602065
2.0636339742594667,11.280789484389377,-0.014870203575143348,0.5590677903493085,-1.1363494932694016
2.06049543340598,11.1649718414895,-0.015020661696158741,0.5439573801257035,-1.1712096648052577
2.0573245251990375,11.052320711654609,-0.015178464084246881,0.5289105230637443,-1.2054332526225604
2.0541198193335712,10.942822811552915,-0.015342544158285329,0.5139266207619066,-1.2389134905589794
2.050880112013143,10.836464970730344,-0.015511811274364223,0.4990051965959241,-1.2715400653513875
2.047604431214403,10.733234105169362,-0.015685148713636375,0.4841459039848498,-1.3031987084288634
2.044292042426389,10.633117188978954,-0.015861411172213236,0.4693485359238142,-1.3337707562819763
2.0409424549745174,10.536101223932448,-0.016039421702752344,0.45461303594768443,-1.363132675927435
2.0375554290505873,10.442173206532889,-0.016217968048962587,0.43993951071477955,-1.3911555517004097
2.0341309835834496,10.351320092242872,-0.016395798304733394,0.42532824442823514,-1.4177045293248907
2.0306694051004794,10.263528756466698,-0.016571615818788715,0.41077971534485136,-1.4426382129526185
2.027171257747894,10.178785951816447,-0.01674407325345292,0.39629461465755184,-1.4658080106496774
2.02363739465862,10.097078261129212,-0.016911765692015905,0.38187386807800583,-1.4870574236860221
2.020068970880299,10.018392045629536,-0.017073222672943932,0.36751866049032256,-1.5062212750050368
2.0164674581035547,9.94271338754815,-0.017226899010335108,0.35323046409432285,-1.5231248725027389
2.0128346614624872,9.870028026415088,-0.017371164237930482,0.3390110705062449,-1.5375831033536558
2.009172738716288,9.800321288141959,-0.0175042904877749,0.3248626273330809,-1.5493994567634255
2.0054842221638576,9.733578005895158,-0.017624438582990287,0.3107876797793007,-1.5583649744695118
2.0017720436937014,9.669782431641604,-0.017729642085164272,0.29678921787358725,-1.5642571314327602
1.9980395634310557,9.608918137124785,-0.01781778898765178,0.2828707299056284,-1.5668386540186126
1.994290602515732,9.550967902909722,-0.017886600682097648,0.26903626261877106,-1.5658562903647157
1.9905294806314606,9.49591359403366,-0.017933607739534393,0.2552904885818187,-1.5610395587466468
1.9867610590163718,9.443736020736655,-0.01795612192797892,0.24163878091344948,-1.5520995162983606
1.9829907898236614,9.394414782757305,-0.01795120371688192,0.22808729508035624,-1.538727614915531
1.9792247728856112,9.347928095818222,-0.017915624264548125,0.2146430567204506,-1.520594747204068
1.9754698211856012,9.304252599278481,-0.017845820497450735,0.2013140531818367,-1.497350638211164
1.9717335366982476,9.263363144626346,-0.017737841286870195,0.18810932445753298,-1.4686238160059883
1.968024398777296,9.22523256572261,-0.01758728176981119,0.17503904605424933,-1.4340225068131276
1.9643518680532521,9.189831433777776,-0.017389201316320862,0.16211459151558533,-1.393136963483024
1.9607265100115985,9.15712780338546,-0.017138018127999297,0.14934855507788353,-1.3455439699336138
1.9571601443295776,9.127086961148382,-0.01682736931981839,0.1367547043228629,-1.2908145941672178
1.9536660291057668,9.099671196336484,-0.01644991852599955,0.12434781769523381,-1.2285267154021158
1.9502590940671392,9.074839624589377,-0.015997081841882893,0.112143341801035,-1.158284442719407
1.9469562449039968,9.052548111831332,-0.01545862447375957,0.10015677970414862,-1.079747245276418
1.9437767740394665,9.032749366442133,-0.014822050426527681,0.08840270019298664,-0.9926722773180497
1.9407429345379001,9.015393290915142,-0.014071659112199776,0.07689325720693181,-0.8969735686302053
1.9378807685102575,9.000427700961232,-0.013187064960589016,0.06563617092555359,-0.7928004437808204
1.935221337689768,8.987799507911767,-0.012140847615499268,0.05463233430745178,-0.6806327336436471
1.9328025987294888,8.977456372032442,-0.010894761530018744,0.04387372168612497,-0.5613789861007016
1.9306723457457182,8.969348583835934,-0.00939336212493835,0.033343308756815265,-0.43644342263143404
1.9288930777110167,8.96343036872726,-0.007552047729360821,0.02302064465913463,-0.3077012198440907
1.927551106270147,8.959658545162863,-0.005228632659875587,0.012901484525601702,-0.17730660350228308
1.926779607593918,8.957981904650435,-0.0021189737803982375,0.0030665203546783575,-0.04728807314792019
