x,y,v_x,v_y,omega
2.375,32.48,0.0,2.0,-3.1020408163265305
2.3745714458518195,32.083629254287715,-0.0042855414818058065,1.9637074571228395,-2.964211144675362
2.3733322895730415,31.69442028862015,-0.008106021305973116,1.9283821995527737,-2.8350473422294162
2.3713709277077806,31.31218409167151,-0.011507597346636715,1.8939797699336092,-2.7138177707930935
2.368767021407383,30.93674026175858,-0.014531465657338868,1.8604585291957234,-2.5998653223189554
2.365592429651456,30.567916467202352,-0.017214451901930886,1.8277794163665468,-2.4925986753736935
2.361912032003828,30.205547952074653,-0.01958952457435042,1.7959057349104397,-2.391484708442538
2.357784455399831,29.84947708238782,-0.021686241465622067,1.7648029619578964,-2.2960418995409073
2.353262717355389,29.499552928454527,-0.023531138978794292,1.7344385773750481,-2.2058345693945607
2.3483947962207403,29.15563087970636,-0.02514807236769336,1.7047819101065902,-2.120467848262946
2.3432241376122063,28.817572288733643,-0.026558513717647055,1.6758039996206022,-2.039583265290198
2.337790104896019,28.48524414171063,-0.027781813444223723,1.6474774706095183,-1.9628548748419818
2.3321283805297033,28.158518752712553,-0.028835430218933145,1.6197764193712758,-1.889985847231759
2.3262713241571595,27.837273479723514,-0.02973513350650491,1.5926763105191182,-1.8207054620408016
2.320248292577404,27.521390460385987,-0.03049518229105241,1.566153882856121,-1.7547664512795111
2.3140859260425515,27.210756365759575,-0.031128483057472987,1.5401870634080075,-1.691942647234617
2.30780840477049,26.905262170544713,-0.03164672966313852,1.5147548887406157,-1.6320268962491822
2.3014376790672006,26.60480293839057,-0.03206052736975733,1.489837432800828,-1.5748292050941775
2.294999635906452,26.309279817819274,-0.032319904237725565,1.4653937729121356,-1.518095296327283
2.2885170043588974,26.018597577994022,-0.03250641123782488,1.4414286253403708,-1.4639699209059989
2.2820036618979067,25.732662236191146,-0.03262701337207967,1.4179247926883694,-1.4123020848494334
2.275472156529972,25.451383169409247,-0.032688040307269205,1.394865875130619,-1.3629511929865161
2.26893382779445,25.17467295956043,-0.03269524704795116,1.3722362233575904,-1.3157862182995097
2.262398916250436,24.902447247736582,-0.0326538683921848,1.350020894880888,-1.2706849466058068
2.2558766626254765,24.634624596907077,-0.03256866785741394,1.328205613414147,-1.227533288933293
2.2493753976715443,24.371126362458384,-0.03244398168190521,1.3067767310728056,-1.1862246548027247
2.24290262365979,24.11187657003501,-0.0322837584356391,1.2857211931608903,-1.1466593803830698
2.236465088345011,23.85680180018541,-0.03209159471215386,1.2650265053351475,-1.108744206146775
2.2300688521419656,23.605831079356232,-0.031870767318298375,1.2446807029566245,-1.072391799233557
2.223719349177026,23.358895776814826,-0.031624262331096706,1.2246723224574247,-1.0375203162439595
2.2174214428090107,23.115929507112472,-0.03135480134905501,1.2049903745661121,-1.004053002636461
2.211179476151258,22.87686803773093,-0.031064865228473515,1.1856243192493394,-0.9719178253020473
2.2049973180721114,22.641649201582002,-0.030756715562994048,1.1665640422399197,-0.9410471352444612
2.1988784051021977,22.410212814054717,-0.03043241413614353,1.1477998330329213,-0.911377357608527
2.19282577963343,22.182500594327266,-0.03009384055153134,1.1293223642415884,-0.8828487065779638
2.186842124755957,21.9584560906817,-0.02974270822319675,1.111122672214105,-0.8554049229122054
2.1809297960447362,21.738024609578233,-0.029380578889012875,1.0931921388205383,-0.8289930321126866
2.1750908505765634,21.5211531482635,-0.02900887579271666,1.0755224743268175,-0.8035631214060381
2.1693270734308143,21.307790330702876,-0.02862889566477267,1.058105701279414,-0.7790681339075005
2.163640001902472,21.09788634664188,-0.028241819618651996,1.0409341393305616,-0.7554636784850616
2.158030947633906,20.891392893614878,-0.02784872306700643,1.0240003909394624,-0.7327078539855094
2.1525010168520593,20.68826312173193,-0.02745058475146015,1.007297327890016,-0.710761086609642
2.147051128879897,20.488451581085904,-0.027048294970167204,0.9908180785702511,-0.689585979336952
2.141684143553457,20.292099434129234,-0.026621558294232277,0.9727033909964553,-0.7057150971945159
2.1364001451821375,20.09935857855055,-0.026218425418959,0.9547051647903494,-0.7237138874265336
2.131194410609838,19.910206041253634,-0.025838920304037307,0.9368202081788346,-0.7434654179615309
2.1260622223827506,19.724619474691004,-0.025482961966838105,0.9190454574474877,-0.7648554980629959
2.1209988888725597,19.542577131728542,-0.02515037313506873,0.9013779721770807,-0.7877724285161741
2.115999762737657,19.364057841420212,-0.024840888213956986,0.8838149309062363,-0.8121067577093966
2.111060257854807,19.189040985608834,-0.02455416061454163,0.86635362720754,-0.8377510426291604
2.106175864844794,19.017506476271368,-0.024289769485593263,0.8489914661671251,-0.8645996137984904
2.101342165307447,18.84943473352861,-0.02404722588787117,0.8317259612604554,-0.8925483431915759
2.0965548448740794,18.684806664240586,-0.02382597844580815,0.8145547316197845,-0.9214944141541818
2.0918097051786706,18.523603641109446,-0.02362541850827715,0.79747549969161,-0.9513360923486837
2.087102674843163,18.365807482211746,-0.02344488484680254,0.7804860892853905,-0.9819724967245399
2.082429819566842,18.21140043088142,-0.02328366791640693,0.763584424017904,-1.0133033694892368
2.077787351405081,18.060365135863535,-0.023141013701204763,0.7467685261609285,-1.0452288440208461
2.0731716373185765,17.912684631657093,-0.023016127163838263,0.7300365159034792,-1.0776492096208257
2.068579207070705,17.768342318962375,-0.022908175314872548,0.7133866110436885,-1.1104646719540325
2.0640067605476884,17.627321945145045,-0.02281628991529554,0.6968171271296236,-1.143575107961467
2.0594511745739315,17.489607584624785,-0.022739569822275468,0.6803264780729782,-1.1768798139593337
2.0549095092931755,17.355183619091015,-0.022677082985282374,0.6639131772647185,-1.2102772455548347
2.0503790141849927,17.224034717441793,-0.022627868096547293,0.6475758392275063,-1.243664747913887
2.04585713378568,17.096145815334427,-0.02259093589657731,0.6313131818461524,-1.2769382748078448
2.04134151318282,16.971502094227354,-0.022565270132028106,0.6151240292246053,-1.3099920947444874
2.0368300033536553,16.850088959782276,-0.022549828159615214,0.5990073152261602,-1.3427184823522302
2.0323206664191065,16.731892019483375,-0.022543541185874164,0.5829620877628529,-1.3750073930351043
2.0278117808876783,16.616897059316038,-0.022545314128406428,0.5669875139105343,-1.4067461187491455
2.0233018469668664,16.50509001933117,-0.022554025079714317,0.5510828859381007,-1.4378189225684643
2.018789592023918,16.396456967902065,-0.02256852434976862,0.5352476283529854,-1.4681066495121093
2.0142739762831416,16.290984074458713,-0.022587633057994126,0.5194813060805378,-1.497486310892521
2.0097541988534107,16.188657580459402,-0.022610141239315363,0.5037836339125649,-1.525830639225987
2.0052297041872613,16.08946376833011,-0.02263480542218076,0.4881544873803514,-1.553007610520217
2.0007001890821465,15.99338892806906,-0.022660345628963706,0.47259391523016364,-1.5788799305321588
1.9961656103451815,15.900419321175562,-0.02268544174068854,0.45710215370481755,-1.6033044813830377
1.9916261932552641,15.810541141518726,-0.022708729158484903,0.4416796428635346,-1.6261317247460554
1.9870824409710823,15.723740472711963,-0.022728793683333606,0.4263270452040982,-1.6472050577128743
1.9825351450504214,15.640003241502939,-0.022744165523276,0.4110452668861425,-1.666360117438125
1.9779853972657953,15.55931516662514,-0.022753312322985414,0.39583548189183215,-1.6834240308148638
1.9734346029240968,15.48166170248603,-0.0227546310939994,0.3806991594992838,-1.6982146058317966
1.9688844959242595,15.407027976987791,-0.02274643890437372,0.3656380954831057,-1.7105394620251704
1.9643371558175045,15.33539872269024,-0.022726962163176333,0.3506544474924026,-1.720195098736297
1.9597950271705036,15.266758200432538,-0.022694324306831545,0.33575077508462425,-1.7269659019656551
1.9552609415739228,15.201090114433484,-0.022646531658977453,0.3209300849059215,-1.7306230938283258
1.9507381426889876,15.13837751779359,-0.022581457190374327,0.30619588149301186,-1.7309236334672946
1.9462303147853375,15.078602707233376,-0.022496821846125534,0.2915522241091077,-1.7276090854934232
1.9417416152980023,15.021747105833622,-0.022390173027225957,0.2770037898884336,-1.7204044826302722
1.937276712025132,14.967791132514119,-0.02225885970147849,0.2625559433066137,-1.7090172247361552
1.9328408257091838,14.916714057028251,-0.022100003458002063,0.24821481155206876,-1.6931360788892986
1.9284397789051377,14.868493839408199,-0.021910464582459935,0.23398736464843922,-1.6724303778118943
1.924080052259639,14.82310695314088,-0.021686801872526945,0.21988149802474263,-1.6465495609363971
1.9197688496360539,14.780528191994794,-0.02142522436332394,0.2059061134361192,-1.6151232700575642
1.9155141739723116,14.740730461511344,-0.02112153227409967,0.19207119139838041,-1.5777623083933696
1.911324916431829,14.70368455795279,-0.02077104313072748,0.1783878441871529,-1.5340609097739595
1.9072109624332438,14.669358940294462,-0.0203684968551213,0.1648683323961299,-1.4836009590231192
1.9031833197335035,14.637719505120305,-0.019907930142282825,0.15152601934545074,-1.4259590741064394
1.8992542762329514,14.608729380629928,-0.01938250486323839,0.13837522555830642,-1.3607178243737055
1.8954375991208847,14.582348765103248,-0.018784266257428503,0.12543092970848543,-1.2874828274613639
1.8917487932638983,14.558534847751826,-0.018103792312435765,0.11270824380574199,-1.2059080182100201
1.8882054467404012,14.537241866041175,-0.0173296729225345,0.10022157330075764,-1.1157319095595057
1.884827707288286,14.518421371758603,-0.01644772159861836,0.087983369524965,-1.016827869120236
1.8816389584649191,14.502022792727818,-0.015439766635048858,0.07600242078286813,-0.909270634438395
1.8786668038021381,14.487994373999314,-0.014281779992761454,0.06428176650215765,-0.7934181574678476
1.8759445309571925,14.476284531833087,-0.01294094845669418,0.052816655160107764,-0.6700003021087177
1.8735133399080097,14.46684350171757,-0.011370962035134352,0.041593645995079274,-0.540191771112425
1.8714258584676995,14.459624818787262,-0.009503852367966357,0.030593183307986556,-0.40562668608088925
1.869752147056905,14.45458545736939,-0.007233261739979231,0.01980043087073123,-0.2682954929688244
1.8685920574381754,14.4516816112831,-0.004367634447317441,0.009238029992175836,-0.13026987448407323
1.868115493135355,14.450846631779044,-0.0003980085808862367,-0.0008882349516169483,0.0066798684146435194
