x,y,v_x,v_y,omega
2.375,32.48,0.0,4.0,-6.163265306122449
2.3732992428425455,31.73054231679827,-0.017902706920573438,3.8890282442286854,-5.684619824947063
2.3684978641498726,31.001636344993397,-0.03263812142334969,3.7836661958226454,-5.262301670806747
2.3611462157921745,30.292258930662136,-0.044747650762948274,3.6834644813484974,-4.887817627263603
2.351701303289519,29.601467522604214,-0.05467248084394921,3.5880240245243877,-4.554180001389119
2.3405438917922328,28.92839133299177,-0.06277395596959298,3.496988497711871,-4.255603854107772
2.3279921724068386,28.272223793700995,-0.06934940598192496,3.4100382316646987,-3.9872720553909486
2.3143127479134065,27.632216063978515,-0.07464453605420254,3.326885239098256,-3.7451514243229447
2.2997295134351465,27.007671401568025,-0.0788631952959023,3.2472691020647755,-3.525847732458871
2.2844308726398275,26.39794025069458,-0.08217512886535129,3.1709535387083303,-3.3264905413666757
2.2685756295800386,25.80241593094668,-0.08472216650084839,3.0977235112695762,-3.1446411324725334
2.252297820714539,25.22053083418886,-0.08662318997809489,3.0273827703916734,-2.9782184465233583
2.23571069429528,24.651753054285123,-0.08797814075094704,2.9597517549107977,-2.8254391671507944
2.218910000405979,24.09558338807799,-0.08887126861011481,2.8946657841116616,-2.6847689850316803
2.2019767210881653,23.551552656778114,-0.08937377684055435,2.831973492729161,-2.5548827537998613
2.184979343710645,23.019219305409667,-0.08954598502808109,2.7715354690439384,-2.4346317577666605
2.1679757602072782,22.498167244758108,-0.08943910448104156,2.7132230641303665,-2.3230166983825797
2.1510148586750386,21.988003905768302,-0.08909670112148008,2.6569173462886235,-2.2191653026130274
2.1341378610788504,21.48835848083082,-0.08855590515418905,2.602508179369104,-2.1223136847693933
2.1173794506895214,20.998880330088184,-0.08784841473348282,2.549893407395463,-2.031790770493594
2.1007687248072733,20.51923753395542,-0.08700133139544619,2.498978130844197,-1.9470052298367333
2.084330001853232,20.0491155756053,-0.08603785759446332,2.4496740623149824,-1.867434474850196
2.0680835067042826,19.58821613931618,-0.08497788081552839,2.401898951254679,-1.792615362677647
2.0520459539393423,19.136256012394362,-0.08383846407858134,2.355576068974989,-1.7221363129740028
2.0362310452524426,18.692966079924012,-0.08263425894141373,2.3106337465023623,-1.6556306025128493
2.02064989450978,18.25809040291317,-0.08137785413924438,2.2670049588749372,-1.5927706430803457
2.005311391658186,17.831385371532193,-0.08008007061437677,2.2246269503984784,-1.5332630834993455
1.9902225148320127,17.412618926112422,-0.07875021176639395,2.1834408961254197,-1.4768446046655888
1.975388598475479,17.001569839412298,-0.07739627619711927,2.1433915954548595,-1.4232782991932433
1.9608135640354796,16.598027054386733,-0.07602513896076965,2.1044271942879282,-1.3723505457406422
1.9465001187357076,16.201789072329603,-0.07464270629998782,2.0664989326292416,-1.323868303166137
1.9324499270765698,15.812663386812922,-0.07325404800672564,2.02956091491479,-1.2776567620159438
1.9186637589845341,15.430465959331357,-0.07186351085680784,1.993569900680634,-1.233557300998494
1.905141617933189,15.055020732986655,-0.07047481599945649,1.9584851134741164,-1.191425704472287
1.891882851855317,14.686159180921663,-0.0690911427149858,1.9242680661573688,-1.1511306039007438
1.8788862492435496,14.323719886544783,-0.06771520056677686,1.8908824009676828,-1.1125521119755069
1.8661501224827042,13.967548152878692,-0.06634929165264773,1.858293742885896,-1.0755806228938398
1.8536723801582853,13.61749563862702,-0.0649953643938672,1.8264695650264497,-1.0401157562693835
1.8414505898334927,13.273420018783561,-0.06365506007763587,1.7953790649046957,-1.0060654254985393
1.82948203257373,12.935184667814294,-0.0623297531830241,1.764993050561291,-0.9733450142108259
1.8177637503166935,12.602658363625878,-0.061020586364728534,1.7352838356325762,-0.9418766467931572
1.8062925870323983,12.275715010698367,-0.059728500838378495,1.706225142551758,-0.911588540970664
1.7950652244866352,11.954233380906672,-0.058454262801233905,1.6777920131502926,-0.8824144321122607
1.7840782133097177,11.638096870687054,-0.057198486429474886,1.6499607260035636,-0.8542930603584626
1.7733279999769906,11.327193273323264,-0.05596165391502016,1.62270871993108,-0.827167712883819
1.7628109502259004,11.021414565233407,-0.05474413293856143,1.596014523120058,-0.8009858146413048
1.7525233693644027,10.720656705234632,-0.05354619191930972,1.5698576873933496,-0.7756985618197453
1.7424615198653193,10.424819445849302,-0.05236801333419914,1.5442187271890506,-0.7512605930015682
1.7326216365894995,10.133806155794598,-0.051209705358640695,1.5190790628604567,-0.7276296936566985
1.7229999399360354,9.847523652868368,-0.050071312046246146,1.4944209679419505,-0.7047665301657104
1.7136011285583503,9.565883480111307,-0.04886354456096546,1.4702124295008083,-0.6802386928248924
1.7044289293338775,9.288800235526118,-0.04768592095979928,1.4464533029748612,-0.6567869682453421
1.6954776739846733,9.016190004575218,-0.046537819558139557,1.423128075455648,-0.6343517530801023
1.6867418142919062,8.747971755440425,-0.045418598260463086,1.4002219154369144,-0.6128773705585354
1.6782159254382047,8.484067213137699,-0.04432760019955215,1.3777206351180757,-0.5923117705350088
1.6698947083544615,8.224400740558846,-0.04326415857669266,1.3556106551856595,-0.5726062555153195
1.6617729912130712,7.968899225987268,-0.042227600806364826,1.3338789718835724,-0.5537152301508433
1.6538457301911966,7.717491976669383,-0.04121725205547206,1.3125131261994387,-0.5355959719575245
1.6461080096116545,7.470110618054573,-0.04023243825549618,1.2915011750090781,-0.5182084212529582
1.6385550415550751,7.226688998345423,-0.03927248865586555,1.2708316640345816,-0.5015149885138481
1.6311821650248521,6.987163098026198,-0.03833673797806187,1.2504936024835687,-0.4854803775414086
1.6239848447358096,6.75147094406168,-0.03742452822238511,1.230476439248187,-0.4700714229867398
1.6169586695882778,6.519552528480624,-0.036535210172686114,1.2107700405523851,-0.4552569409343746
1.6100993508812032,6.29134973107837,-0.0356681446386271,1.1913646689450275,-0.441007591372264
1.6034027203108812,6.066806245991849,-0.03482270347002532,1.172250963544658,-0.42729575149236787
1.5968647277957486,5.845867511917433,-0.03399827037347438,1.1534199214491945,-0.414095398869405
1.5904814391622932,5.628480645757847,-0.033194241557635416,1.1348628802306597,-0.40138200365766374
1.584249033722442,5.414594379499011,-0.03241002623027229,1.1165715014412798,-0.3891324290283488
1.5781638017686814,5.20415900013111,-0.03164504696720759,1.0985377550629483,-0.3773248391438661
1.5722221420095663,4.997126292440591,-0.03089873997084457,1.0807539048372514,-0.36593861403170236
1.5664205589651359,4.793449484511342,-0.030170555233686357,1.063212494417989,-0.35495427078000363
1.560755660339003,4.593083195783848,-0.029459956620347064,1.0459063342924713,-0.34435339053035124
1.5552241543814835,4.395983387530986,-0.028766421879854117,1.0288284894218516,-0.3341185507912454
1.5498228472560347,4.2021073156182425,-0.02808944259855632,1.0119722675544047,-0.3242332626390205
1.54454864041942,4.011413485424519,-0.027428524102651168,0.995331208169011,-0.31468191241185217
1.5394043668762953,3.8240614861169,-0.026721723719712796,0.9767951003322383,-0.34743224203829204
1.5343899338227347,3.6402211455729585,-0.026061782107243497,0.9583663790776552,-0.3816014001563506
1.529496569059521,3.459872324924035,-0.025447320663425907,0.9400422593320693,-0.4170837528518186
1.5247157646045006,3.282995404186316,-0.024876936757841518,0.9218200642228527,-0.45377562030467955
1.5200392808998422,3.109571262023941,-0.02434920750172286,0.9036972216968756,-0.4915750449427343
1.5154591503399564,2.939581256119098,-0.02386269312865414,0.8856712615120017,-0.5303815627975332
1.5109676801916607,2.773007204078837,-0.023415940011300023,0.8677398125960193,-0.5700959770801588
1.50655745497358,2.6098313648090112,-0.023007483336915796,0.8499006007705844,-0.6106201329858815
1.5022213383577145,2.4500364202859544,-0.022635849461668866,0.8321514468405553,-0.6518566927203743
1.497952474652546,2.2936054576561595,-0.02229955796115716,0.8144902650520389,-0.6937089097156672
1.4937442899240039,2.1405219515932856,-0.021997123391920007,0.7969150619255946,-0.7360804009708912
1.4895904928080346,1.9907697468402858,-0.02172705677617656,0.7794239354743948,-0.7788749164105757
1.4854850750664483,1.8443330408622458,-0.02148786681946968,0.762015074820772,-0.8219961041011581
1.4814223119361087,1.7011963665325602,-0.02127806086831265,0.744686760228558,-0.8653472701036965
1.4773967623204505,1.561344574771411,-0.021096145612302924,0.7274373635729979,-0.908831131666674
1.4734032688716987,1.424762817050862,-0.020940627532451257,0.7102653492748917,-0.9523495623762609
1.4694369580121247,1.2914365276752982,-0.02081001309464213,0.6931692757310485,-0.9958033277813662
1.4654932399431388,1.1613514057393175,-0.02070280868415696,0.6761477972792598,-1.0390918098960356
1.4615678086921124,1.0344933966572114,-0.02061752027401484,0.659199666742901,-1.082112718850941
1.4576566422485162,0.9108486731488661,-0.020552652816473175,0.6423237386081114,-1.1247617898174311
1.4537560028433347,0.7904036155560306,-0.020506709343333616,0.6255189728954283,-1.1669324631604405
1.449862437428835,0.6731447913501611,-0.020478189756662615,0.6087844397979408,-1.2085155455890222
1.4459727784196774,0.5590589336782337,-0.02046558928710004,0.5921193251697041,-1.2493988498640198
1.4420841447611608,0.44813291877576233,-0.02046739659202421,0.5755229369615374,-1.2894668103902929
1.4381939433961815,0.3403537420563296,-0.020482091460389956,0.5589947127167059,-1.3286000717652107
1.4342998712093724,0.23570849266386062,-0.020508142084968973,0.5425342282566601,-1.3666750470758318
1.43039991753499,0.13418432624727927,-0.020544001855897564,0.5261412077073258,-1.4035634424353498
1.4264923673246126,0.0357684356863075,-0.020588105621759695,0.5098155350397807,-1.439131743927843
1.4225758050817474,-0.05955198053843702,-0.020638865355767956,0.4935572673259397,-1.473240662794508
1.418649119683244,-0.15178975267875217,-0.020694665154794168,0.47736664994052314,-1.5057445343536506
1.414711510222192,-0.2409577771507756,-0.020753855487858335,0.46124413397553016,-1.5364906658156805
1.4107624930240368,-0.32706905751489046,-0.020814746597984535,0.4451903961730519,-1.5653186278564086
1.4068019100072824,-0.4101367495153738,-0.02087560094679958,0.4292063617268036,-1.5920594845823344
1.4028299385827554,-0.4901742107628877,-0.020934624574537,0.4132932303522549,-1.616534956413043
1.3988471033114416,-0.5671950557238858,-0.020989957228764983,0.3974525060793182,-1.6385565104963447
1.394854289570914,-0.6412132167729396,-0.021039661092579473,0.38168603127915446,-1.6579243736761256
1.3908527595150648,-0.7122430121665388,-0.021081707916359046,0.36599602549558796,-1.6744264639189885
1.3868441706521095,-0.7802992219108731,-0.021113964325275476,0.35038512970790714,-1.687837237718989
1.3828305974128037,-0.8453971726194993,-0.021134175035839118,0.33485645669866204,-1.6979164536979574
1.3788145561361118,-0.9075528325873634,-0.021139943666180255,0.3194136482262166,-1.704407856924153
1.3747990339653942,-0.9667829184393284,-0.021128710762426544,0.30406093968919345,-1.7070377951463296
1.370787522227771,-1.0231050148343428,-0.021097728580975736,0.2888032328898986,-1.7055137882971334
1.3667840549675094,-1.076537708803471,-0.021044032053357017,0.27364617731145363,-1.6995230878874938
1.3627932534284393,-1.1271007403432165,-0.020964405200012245,0.25859625994904323,-1.6887312856756338
1.3588203774421208,-1.174815170830236,-0.020855342024392442,0.24366090307219862,-1.672781064738114
1.3548713848962008,-1.2197035705990729,-0.020713000564239855,0.22884856817868715,-1.6512912358910323
1.3509530007609236,-1.2617902265215193,-0.020533148228151783,0.2141688625839041,-1.6238562757192203
1.347072797589834,-1.3011013694763207,-0.020311095678053843,0.19963264220349905,-1.590046689962267
1.343239290063647,-1.3376654199468518,-0.02004161512391585,0.1852520995915593,-1.5494106828664933
1.3394620471472785,-1.371513247253688,-0.01971883662733126,0.17104081942775842,-1.5014778403277458
1.3357518270008648,-1.4026784335705287,-0.019336112282286266,0.15701377338105768,-1.4457658597789345
1.3321207422956107,-1.4311975271234445,-0.018885831983547284,0.14318721138647783,-1.3817918154637432
1.3285824676482847,-1.4571102588505127,-0.01835916430409407,0.12957838574055075,-1.3090900636613327
1.3251525075170107,-1.4804596822096343,-0.017745679182999026,0.11620501803969564,-1.2272396707367912
1.321848553747565,-1.5012921760191063,-0.017032781548008472,0.10308439048103542,-1.1359050999993587
1.318690979674238,-1.5196572260318604,-0.01620484027648642,0.09023192544269869,-1.0348945038744273
1.3157035464564801,-1.5356068776925156,-0.015241825173598015,0.0776591446694295,-0.9242395103362332
1.312914443903971,-1.5491947459208646,-0.014117149063340384,0.06537104720795592,-0.8042970821605264
1.3103578644839942,-1.560474514231899,-0.012794213252205882,0.05336335606605312,-0.6758647045096497
1.308076444113769,-1.5694980263171132,-0.011220738013320906,0.04162098167307791,-0.5402809420685595
1.306125191336137,-1.5763134911453989,-0.009318764909122812,0.030120753361541824,-0.3994539155656629
1.304578363282843,-1.580965229485777,-0.006963635651866592,0.018844913379263417,-0.25573274715836153
1.3035442550738978,-1.5834988456351127,-0.003921713915975889,0.007824730297918043,-0.11154092142578487
