x,y,v_x,v_y,omega
2.375,32.48,0.0,2.9743589743589745,-7.510204081632653
2.3733606884555747,31.892039502638628,-0.016393115444252628,2.9052459992547073,-7.04298603714704
2.36867752045918,31.317617030538628,-0.030438564519691527,2.838978721745301,-6.619234342067618
2.361387680808187,30.75618338022244,-0.04245983199024297,2.7753577814165777,-6.233659005513456
2.3518685590590493,30.207227150274292,-0.0527313855011322,2.7142045180649177,-5.881740722209521
2.3404467173345784,29.670270900357806,-0.06148703174357844,2.655357981099905,-5.559600950653556
2.3274053481573156,29.14486785301294,-0.0689266600290484,2.5986724923487725,-5.263896935339732
2.3129905095681003,28.63059903971427,-0.07522172586310621,2.544015640637941,-4.991736273772909
2.2974163629636335,28.12707081398353,-0.08051974018156,2.491266616669476,-4.740606934625326
2.2808695922564306,27.633912670448503,-0.08494796689046945,2.440314818680778,-4.50831958984917
2.2635131470664147,27.150775321024696,-0.08861648500968876,2.3910586755573005,-4.292959832977955
2.2454894248459576,26.677328988858626,-0.0916207371948845,2.343404646103377,-4.092848388051051
2.226922985088287,26.21326188802716,-0.09404366038181936,2.29726636221131,-3.906507817036993
2.207922871604828,25.75827886275483,-0.09595747445277354,2.2525638905119814,-3.73263454241033
2.1885846052050644,25.312100164471893,-0.09742518954486099,2.20922309231735,-3.5700752399580242
2.168991898176028,24.874460348671104,-0.0985018807455037,2.1671750656905733,-3.417806842487925
2.149218133140012,24.445107276441654,-0.09923576961465042,2.1263556566038937,-3.2749195406744755
2.129327641716086,24.023801207922475,-0.0996691446246147,2.0867050285879403,-3.1406022822349864
2.109376812577197,23.610313976843557,-0.09983914676427465,2.0481672822012413,-3.014130362002888
2.089415053713087,23.204428236905805,-0.09977844187682156,2.010690117176247,-2.8948547685255805
2.069485629771979,22.805936772056327,-0.09951579753426582,1.9742245313185631,-2.782193011558843
2.0496263920982156,22.414641863802704,-0.09907657920336549,1.938724551217663,-2.675621202308154
2.02987041638013,22.03035470961875,-0.09848317797748529,1.9041469906218913,-2.574667196826805
2.010246560570203,21.652894887258775,-0.09775538012178722,1.8704512329778213,-2.478904644439569
1.9907799538565036,21.282089860444554,-0.09691068701520714,1.8375990351644123,-2.3879478088365396
1.971492425884848,20.91777452193915,-0.09596459270134884,1.8055543498896158,-2.301447050686689
1.9524028841021095,20.559790770492242,-0.09493082512603593,1.7742831645794865,-2.219084878131932
1.9335276459697486,20.207987118545105,-0.09382155619757324,1.7437533548918733,-2.1405724860358584
1.9148807318478442,19.862218327931934,-0.09264758502146993,1.7139345512397939,-2.0656467169314414
1.8964741235450846,19.522345071115694,-0.09141849800612802,1.684798016922618,-1.994067386683131
1.8783179928457758,19.188233615759092,-0.09014280898695774,1.6563165366433965,-1.9256149263081672
1.8604209037415758,18.859755530660372,-0.0888280820550457,1.6284643143438107,-1.8600882984783738
1.8427899915972876,18.536787411284095,-0.08748103938783373,1.6012168794189392,-1.797303153181332
1.8254311220534054,18.219210623293595,-0.08610765605099008,1.5745510004860663,-1.7370901920493043
1.8083490321020348,17.906911062647172,-0.08471324346271601,1.5484446059781667,-1.6792937151214309
1.7915474554581765,17.599778930957758,-0.08330252297586584,1.5228767109159702,-1.6237703274172892
1.7750292340773248,17.29770852493769,-0.0818796908326526,1.4978273492846998,-1.5703877857730133
1.7587964174364865,17.000598038858783,-0.08044847557573066,1.4732775115043675,-1.5190239690115441
1.7428668058548717,16.70835471940886,-0.07884764024041727,1.4491556829948604,-1.464782838553528
1.7272556096569307,16.420889028310093,-0.07726432173899307,1.4255012279927923,-1.413001914845167
1.7119591718833442,16.138109160095272,-0.07570005599687182,1.4022974541554243,-1.3635405378840526
1.6969735535418158,15.859926571056405,-0.07415612741841136,1.3795284362332605,-1.3162676182517103
1.6822945809672563,15.586255830293243,-0.07263359832718534,1.357178971398374,-1.2710608820175628
1.667917887628147,15.317014479383609,-0.07113333506390672,1.3352345376979748,-1.2278061832107072
1.6538389510084321,15.052122900076196,-0.06965603113324262,1.313681255376155,-1.1863968771093643
1.6400531251208448,14.791504189455466,-0.06820222774263049,1.2925058508311338,-1.1467332483415507
1.626555669143148,14.535084042072643,-0.06677233203433756,1.2716956229970893,-1.108721988444716
1.6133417726121606,14.282790638577023,-0.06536663327553628,1.2512384119591022,-1.0722757181084568
1.6004065775606708,14.034554540418398,-0.06398531723936007,1.2311225696271462,-1.0373125498329985
1.5877451979385222,13.790308590224615,-0.06262847898212742,1.2113369323106646,-1.0037556871855648
1.575352736620546,13.54998781748862,-0.061296134197635646,1.1918707950492962,-0.9715330572345036
1.5632243002699657,13.3135293492269,-0.059988229308167176,1.1727138875679195,-0.9405769730935175
1.5513550122958268,13.080872325296554,-0.058704650433221005,1.1538563517355538,-0.910823823821178
1.539740024116441,12.851957818081207,-0.057445231360637214,1.1352887204179005,-0.8822137891988757
1.5283745249173344,12.62672875627716,-0.056209760630427916,1.1170018976225795,-0.854690577157723
1.517253750071391,12.405129852530454,-0.05499798782900757,1.098987139844492,-0.8282011818452967
1.5063729883704493,12.187107534693371,-0.0538096291804089,1.0812360385263378,-0.8026956605197044
1.4957275882012797,11.972609880485116,-0.05264437251128652,1.0637405035562075,-0.7781269276340429
1.4853129627843629,11.761586555356452,-0.05150188165788277,1.0464927477304213,-0.7544505646313243
1.4751245945810227,11.553988753371861,-0.05038180037551576,1.0294852721154828,-0.7316246441105159
1.465158038963029,11.349769140935493,-0.04928375580442312,1.0127108522481956,-0.7096095671503212
1.455408927228602,11.1488818031989,-0.04820736153984723,0.9961625251177133,-0.6883679126903761
1.4458824926031921,10.95146388218691,-0.0470569847142513,0.9780166850021731,-0.7042355984920583
1.4365811337687617,10.757663407465273,-0.045956603630053904,0.9599880622142062,-0.7220391799803265
1.4274949674211546,10.567457259345751,-0.04490505984601734,0.942073418981021,-0.7416569217333413
1.418614347040415,10.380822952427668,-0.043901143961379216,0.9242696501998013,-0.7629701768639631
1.409929872485399,10.197738609581037,-0.042943601588779474,0.906573778266515,-0.7858631126831791
1.401432398447994,10.018182936917572,-0.0420311387852713,0.8889829483681285,-0.8102224442946498
1.3931130418714184,9.842135199658564,-0.04116242698048333,0.8714944242219402,-0.8359371749853859
1.3849631884296216,9.669575198811494,-0.0403361074374844,0.8541055842487488,-0.862898342303836
1.3769744981580143,9.500483248569662,-0.03955079527858913,0.8368139181695561,-0.8909987687348574
1.3691389103196347,9.334840154350857,-0.03880508310520593,0.8196170240184958,-0.9201328158912051
1.3614486475853296,9.172627191392234,-0.03809754423784487,0.8025126055677212,-0.950196141143299
1.3538962196015905,9.01382608381915,-0.0374267355995459,0.7854984701631081,-0.9810854556029918
1.3464744260153123,8.858418984105551,-0.03679120026323487,0.7685725269728811,-1.0126982823626924
1.3391763590209047,8.706388452842795,-0.03618946968084182,0.7517327856546856,-1.0449327138682227
1.3319954054918806,8.5577174387323,-0.035620065609399294,0.7349773554502617,-1.0776871672718678
1.3249252487562653,8.412389258715198,-0.03508150174675344,0.7183044447207771,-1.1108601365707924
1.3179598700728956,8.270387578149109,-0.034572285086943134,0.7017123609401026,-1.1443499402848536
1.3110935498639307,8.131696390938306,-0.03409091700270539,0.685199511167934,-1.17805446336627
1.304320868757668,7.996299999518538,-0.03363589405992232,0.6687644030297558,-1.2118708919610095
1.297636708495065,7.8641829945919355,-0.03320570856610676,0.6524056462362773,-1.2456954395574469
1.2910362527532344,7.735330234500182,-0.032798848852198866,0.6361219546812619,-1.2794230629611496
1.2845149879396165,7.609726824115686,-0.03241379928398113,0.6199121491637132,-1.3129471664249155
1.2780687040115906,7.487358093120484,-0.03204903999627779,0.6037751607882995,-1.346159292139788
1.2716934953779881,7.368209573530972,-0.031703046339745564,0.5877100351068341,-1.3789487951552828
1.2653857619413693,7.252266976312914,-0.03137428802644166,0.5717159370737374,-1.4112025006452567
1.259142210343083,7.139516166915556,-0.031061227956422018,0.5557921568998548,-1.4428043412699434
1.2529598554771086,7.029943139535369,-0.030762320703321255,0.5399381169019939,-1.4736349722055093
1.2468360223435633,6.923533989899141,-0.030476010632132455,0.5241533794602729,-1.5035713612218147
1.2407683483186334,6.820274886331905,-0.03020072961716606,0.5084376562120747,-1.532486350990072
1.2347547859246828,6.720152038847669,-0.029934894322338562,0.49279081863029645,-1.560248190599916
1.2287936061925067,6.62315166596915,-0.02967690299942335,0.4772129101549045,-1.5867200330680944
1.2228834027173074,6.529259958946586,-0.029425131752569382,0.46170416007075527,-1.6117593954406666
1.2170230965211393,6.438463043004376,-0.029177930209113002,0.4462649993513601,-1.635217577945256
1.2112119418474987,6.35074693519746,-0.028933616527293777,0.4308960787178112,-1.6569390385657397
1.2054495330286987,6.26609749840625,-0.02869047166070514,0.4155982891942935,-1.6767607194267393
1.1997358125839421,6.184500390939213,-0.028446732786861526,0.4003727854760551,-1.6945113215438956
1.1940710807259824,6.105941011145461,-0.028200585792734458,0.385221012461473,-1.7100105248961506
1.188456006477416,6.030404436365789,-0.02795015669293077,0.37014473533526737,-1.723068151519405
1.1828916406245684,5.957875355470044,-0.027693501835544063,0.35514607362218314,-1.7334832705654841
1.177379430768472,5.888337994142326,-0.027428596725421594,0.3402275396550019,-1.7410432462421102
1.1719212387696405,5.821776031985788,-0.027153323262892614,0.3253920819103674,-1.7455227325700975
1.1665193609278273,5.758172510429809,-0.02686545515524048,0.3106431336494125,-1.7466826234215251
1.1611765512918741,5.697509730340826,-0.026562641204291474,0.2959846672404078,-1.7442689729908563
1.1558960485614334,5.639769138175627,-0.026242386100116064,0.28142125441157206,-1.738011911632855
1.1506816071266122,5.584931199490015,-0.025902028248096547,0.2669581324445622,-1.7276245962089336
1.145537532900913,5.532975258654126,-0.025538714008894566,0.25260127591431414,-1.7128022546187747
1.140468724748688,5.483879383770521,-0.02514936751335562,0.23835747292172038,-1.6932214137659687
1.1354807225085999,5.437620196105964,-0.024730654887525946,0.22423440372385978,-1.6685394426599638
1.130579762897521,5.394172683928019,-0.024278941223263913,0.2102407180555982,-1.638394603108299
1.125772844989656,5.353510001623512,-0.023790237855385064,0.19638610498947853,-1.602406887034972
1.1210678075748455,5.315603256571968,-0.023260136292721268,0.1826813455259406,-1.5601800421164211
1.1164734216221708,5.280421288744758,-0.022683723234025635,0.16913833274617027,-1.5113053595552635
1.1119995024929792,5.247930451802084,-0.022055468057889462,0.1557700366805852,-1.4553680357113832
1.1076570487533952,5.2180944100938405,-0.021369069337950755,0.1425903804018536,-1.391957239898712
1.1034584178946307,5.1908739740683,-0.020617239249693796,0.12961397985355042,-1.3206814342363074
1.099417554710712,5.166227007764981,-0.01979139258949447,0.11685568317965252,-1.2411909833678023
1.0955502966408608,5.144108456536614,-0.018881188109015873,0.10432982910400426,-1.1532105812782547
1.0918747937828839,5.124470559862388,-0.017873840470754014,0.09204913763825462,-1.0565842780792507
1.0884121021140465,5.107263328894025,-0.016753076217619883,0.080023172045387,-0.951335377832387
1.085187040680565,5.0924353703718275,-0.01549753811719416,0.06825641317657753,-0.8377411430880009
1.0822294539920847,5.079935104583303,-0.014078328767608209,0.056746244708686916,-0.7164163469157867
1.079576105243496,5.069712312414882,-0.01245515871827853,0.045481676975525236,-0.5883882562167604
1.0772735928637902,5.061719685714056,-0.010569965078779366,0.03444459003274838,-0.4551284168865535
1.0753831150079762,5.0559135256377274,-0.00833481347935984,0.023617010730540747,-0.3184896273843042
1.0739894196947777,5.052251541311257,-0.005602139652626115,0.013002832534175612,-0.1804944429191712
1.0732241528261677,5.050680933320962,-0.00205052903347302,0.0027032473687914962,-0.04296126321774488
