x,y,v_x,v_y,omega
2.375,32.48,0.0,3.948717948717949,-6.775510204081632
2.3727391703948304,31.663154163516626,-0.021531710525426462,3.8307662082665286,-6.204252948949253
2.3663878646681176,30.870391696891165,-0.03895691544326704,3.7193525214997747,-5.706245298344957
2.356728779968759,30.100400004770744,-0.05303436740776584,3.6139016891708953,-5.269501985961776
2.344401217001109,29.351979782807845,-0.0643709941888996,3.5139099485710115,-4.884339335677189
2.329929457476664,28.624031274187843,-0.07345528699629017,3.4189329906671166,-4.54287406795512
2.313744978072064,27.915542771177563,-0.08068261209514,3.3285765618117225,-4.238643701873391
2.2962039716009444,27.225580889894232,-0.08637459239171227,3.2424889742200005,-3.9663160317983515
2.2776012610239094,26.553282267103604,-0.09079407977052713,3.16035505235741,-3.721464675209377
2.2581814173133683,25.897846412912873,-0.09415681271081669,3.0818911780305025,-3.500394176812015
2.2381476934132083,25.258529514337198,-0.09664055776689943,3.006841189356897,-3.3000026555454047
2.2176692407686556,24.6346390294068,-0.09839232456217258,2.9349729528373456,-3.117673152462227
2.19688696679095,24.025528944702902,-0.09953409427311743,2.866075472914071,-2.9511871025901075
2.175918310629303,23.43059559429183,-0.10016739298066625,2.799956435762809,-2.798654991710648
2.1548611534008653,22.849273957236885,-0.10037696157588101,2.736440107617612,-2.65846045640818
2.133797032377207,22.281034365778545,-0.10023371483991282,2.6753655253189583,-2.529214969996935
2.11279379281417,21.725379567991343,-0.09979713814139567,2.6165849297972557,-2.409720915941259
2.091907783436516,21.18184209803907,-0.09911723688387607,2.5599624030815518,-2.2989413456682417
2.071185680067897,20.649981914629603,-0.0982361285315422,2.505372677008596,-2.1959750928159325
2.0506660050648975,20.12938427433524,-0.097189347687503,2.452700087699606,-2.1000362021661343
2.030380396978471,19.61965781140446,-0.09600691980227137,2.401837654498299,-2.0104368513416064
2.0103546744057645,19.12043279978025,-0.09471424755684009,2.3526862657322773,-1.9265731132681732
1.990609729688738,18.63135957643579,-0.09333284498626963,2.3051539565958876,-1.847913039528953
1.9711622814898655,18.152107107976853,-0.0918809473839438,2.259155266822609,-1.7739866480567008
1.9520255099668358,17.68236168484745,-0.09037401950205436,2.2146106677431026,-1.7043774798344316
1.9332095939981606,17.221825729494388,-0.08882518019961226,2.171446049905135,-1.638715453453635
1.9147221664634193,16.770216706562152,-0.08724555822649581,2.1295922637351996,-1.5766707973361993
1.8965687007869696,16.327266124655555,-0.0856445910730265,2.088984706803809,-1.5179488800719803
1.878752839680515,15.892718620464358,-0.08403027660749175,2.0495629521599796,-1.4622857918888303
1.861276675164296,15.466331117126892,-0.08240938545173769,2.011270412958758,-1.4094445564732438
1.8441409874271237,15.047872049645463,-0.08078764061656932,1.9740540392453163,-1.3592118735271064
1.8273454488372236,14.63712065097809,-0.07916986976343207,1.9378640433010967,-1.3113953096136213
1.8108887983873245,14.233866293137513,-0.07756013452132171,1.9026536504186766,-1.2658208688217356
1.7947689910075064,13.837907878245122,-0.07596184052456366,1.8683788723659827,-1.2223308861980116
1.7789833254749894,13.449053275027175,-0.07437783121369229,1.8349983011382773,-1.1807821962583875
1.7635285540648005,13.067118796714524,-0.0728104679309653,1.8024729208869714,-1.1410445365959612
1.74840097659769,12.691928716724046,-0.07126169842246771,1.7707659361651875,-1.1029991529598604
1.733596521134459,12.323314818867747,-0.0697331155130655,1.7398426148471973,-1.0665375774459114
1.7191108132249253,11.96111597916071,-0.0682260074348737,1.709670144267462,-1.031560555813563
1.7049392353336632,11.605177776587258,-0.06674140105333846,1.6802174992892103,-0.9979771035873389
1.6910769778240118,11.255352130440528,-0.06528009903858008,1.6514553211558305,-0.965703673645568
1.6775190826790203,10.911496962078267,-0.06384271186610031,1.6233558061037905,-0.934663420550048
1.6642604809666588,10.57347587914066,-0.0624296853944862,1.595892602825812,-0.9047855490134886
1.65129602491161,10.241157880457127,-0.06104132465359704,1.5690407179697394,-0.8760047357070103
1.6386205153129736,9.91441708003121,-0.059677814381037614,1.5427764289437425,-0.8482606151348131
1.6262287249427092,9.593132448637881,-0.05833923676433754,1.5170772033736921,-0.821497321594222
1.614115418470702,9.277187571698011,-0.057025586778586136,1.491921624625066,-0.7956630803351715
1.6022916430856795,8.966472503001398,-0.05558179784067582,1.4672695058188758,-0.7662545786972473
1.5907670038623123,8.660881328775371,-0.05417667095329869,1.4431226296671047,-0.7382346581901091
1.5795334688850262,8.360309897839862,-0.05280937644942474,1.4194624268615461,-0.7115209356087772
1.5685831838653148,8.064657866333786,-0.051479052309731176,1.3962712065296679,-0.6860368450791798
1.5579084779795802,7.773828518715288,-0.050184813268693715,1.3735321041226947,-0.6617111621928078
1.5475018679382289,7.487728599319169,-0.04892575855370058,1.351229032983197,-0.6384775722502876
1.5373560605533094,7.206268153730427,-0.0477009784455319,1.3293466392905315,-0.6162742780553923
1.5274639540351693,6.929360379293307,-0.04650955982246911,1.3078702601106058,-0.5950436432195924
1.517818638216875,6.656921484130024,-0.04535059082795143,1.2867858843016298,-0.5747318673915575
1.5084133938777753,6.388870554093092,-0.04422316478252339,1.2660801160500972,-0.5552886902246509
1.4992416913139537,6.12512942712052,-0.04312638344434769,1.2457401408315314,-0.5366671212457947
1.490297188282916,5.86562257450429,-0.04205935970839529,1.2257536936087712,-0.5188231930974391
1.4815737274321998,5.610276988620182,-0.04102121982223244,1.206109029097,-0.5017157358961885
1.4730653333063546,5.359022076701347,-0.04001110518581831,1.1867948939395394,-0.4853061706916
1.4647662090135087,5.111789560269255,-0.03902817379366451,1.1678005006517995,-0.4695583202208045
1.4566707326213362,4.868513379864513,-0.038071601369883405,1.149115503202873,-0.4544382353424067
1.44877345334231,4.629129604746115,-0.03714058223989104,1.1307299741152022,-0.43991403569960646
1.4410690875595695,4.393576347251891,-0.03623432997668294,1.1126343829726622,-0.4259557633102739
1.4335525147372912,4.161793681534938,-0.03535207785453975,1.0948195762364052,-0.41253524791306695
1.4262187732530078,3.933723566411139,-0.03449307913863596,1.0772767582759708,-0.3996259830155895
1.4190630561837523,3.7093097720714496,-0.03365660723522487,1.059997473530604,-0.38720301169475946
1.412080707073057,3.4884978104298767,-0.03284195572377737,1.0429735897224763,-0.37524282129249753
1.4052672157016532,3.271234868893803,-0.03204843828959189,1.0261972820496679,-0.3637232462328659
1.3986182138810908,3.0574697473578887,-0.03127538857290952,1.0096610182923789,-0.352623378261027
1.3921294712863521,2.8471527982362375,-0.03052215994841074,0.993357544770975,-0.3419234834708641
1.3858033097059357,2.640374184731421,-0.029726997960318437,0.9759625838463272,-0.35805002667509245
1.3796398975586706,2.4372363881809633,-0.028972165346968275,0.9586830975865935,-0.3761334080630576
1.373630827986843,2.2377154981895373,-0.028257068670435394,0.9415158547126967,-0.39606016835109237
1.367767826559361,2.0417882695723257,-0.02758104016272807,0.9244577511655189,-0.4177200030689119
1.3620427661063268,1.8494320962033832,-0.02694334510426299,0.9075058047291572,-0.4410055134887238
1.3564476800692942,1.6606249859485729,-0.026343188581762527,0.8906571500785587,-0.46581196581099976
1.3509747744927618,1.4753455365958708,-0.025779721670927357,0.8739090342328905,-0.4920370576244755
1.345616438773347,1.2935729126995703,-0.025252047085404624,0.8572588123985353,-0.5195806906879045
1.3403652552747307,1.115286823257975,-0.02475922432998798,0.8407039441880751,-0.5483447491044018
1.3352140079088566,0.9404675001468021,-0.0243002743926234,0.8242419902040531,-0.5782328819759819
1.330155689776935,0.7690956772326096,-0.023874184006627778,0.8078706089787281,-0.6091502896361435
1.3251835099575284,0.6011525700921787,-0.023479909511530936,0.7915875542634686,-0.6410035125620479
1.320290899523317,0.43661985626480515,-0.02311638033810196,0.7753906726639115,-0.6737002220648698
1.3154715168630748,0.275479655965043,-0.022782502140394362,0.759277901619561,-0.707149011847085
1.3107192523808564,0.1177145131834294,-0.02247715959501877,0.7432472677291646,-0.7412591894985576
1.3060282326404227,-0.036692622897859906,-0.022199218885303528,0.7272968854259987,-0.7759405669789601
1.3013928240194872,-0.18775841624865564,-0.021947529885510294,0.7114249560101821,-0.8111032491019089
1.2968076359354386,-0.33549916216980336,-0.02172092805780977,0.695629767048343,-0.846657418995729
1.2922675237017804,-0.4799308053860969,-0.02151823607226816,0.67990969215445,-0.8825131194664116
1.2877675910726418,-0.6210689581351048,-0.021338265157622677,0.6642631911694327,-0.9185800291294332
1.28330319253134,-0.758928918337844,-0.021179816188108023,0.6486888107614361,-0.954767232107924
1.278869935378143,-0.8935256879424855,-0.021041680509006747,0.6331851854732299,-0.9909829800143762
1.2744636816721022,-1.0248739915382714,-0.020922640500904716,0.6177510392485343,-1.0271344448407596
1.2700805500821277,-1.1529882953442296,-0.020821469879805248,0.6023851874749092,-1.0631274612765895
1.2657169177033862,-1.277882826685783,-0.020736933727255893,0.5870865395874979,-1.0988662568551426
1.2613694218966742,-1.3995715940824454,-0.020667788241430545,0.5718541022854469,-1.1342531681936057
1.2570349622106767,-1.5180684080816604,-0.020612780196642377,0.5566869834213876,-1.1691883414424644
1.2527107024500552,-1.633386902987489,-0.02057064609499094,0.5415843966341226,-1.2035694148920195
1.2483940729561611,-1.7455405596486813,-0.020540110989714436,0.5265456668058025,-1.2372911814988856
1.2440827731719384,-1.8545427294892392,-0.020519886955263633,0.5115702364376223,-1.2702452288924502
1.2397747745683587,-1.9604066599857148,-0.020508671174066816,0.4966576730526489,-1.3023195542009232
1.2354683240166264,-2.063145521820104,-0.02050514360433521,0.4818076777510721,-1.3333981508001993
1.231161947698539,-2.1627724379655007,-0.020507964186973704,0.4670200950622558,-1.3633605638391852
1.2268544556569332,-2.259300514994308,-0.020515769542605516,0.45229492425974,-1.392081411137652
1.222544947099274,-2.3527428769362473,-0.02052716910176718,0.43763233233014087,-1.4194298657954845
1.2182328165803433,-2.4431127020564887,-0.02054074060233334,0.4230326688149959,-1.445269096608564
1.2139177612049072,-2.530423262973571,-0.0205550248780105,0.4084964827762616,-1.4694556621764983
1.2095997890084584,-2.6146879705930886,-0.0205685198500736,0.3940245421715188,-1.4918388544408994
1.2052792286939822,-2.6959204223973074,-0.020579673621129363,0.3796178559639128,-1.5122599873540514
1.2009567409255715,-2.7741344557035887,-0.020586876554210425,0.3652776993340376,-1.5305516265111334
1.1966333314061228,-2.849344206586224,-0.020588452202444454,0.3510056424053753,-1.5465367559785077
1.1923103659968777,-2.921564175247447,-0.02058264693322283,0.33680358293962687,-1.560027879351974
1.1879895881720386,-2.9908092987236046,-0.020567618065243595,0.3226737834999702,-1.5708260534790237
1.1836731391431001,-3.057095031920504,-0.020541420305598454,0.30861891361337535,-1.5787198555623652
1.1793635810363299,-3.1204374380851547,-0.02050199023507151,0.2946420974785436,-1.583484287939302
1.1750639235649756,-3.180853289934099,-0.02044712853973195,0.28074696774948527,-1.5848796302973993
1.17077765470814,-3.2383601827624418,-0.020374479620605897,0.2669377258537791,-1.582650257301872
1.1665087759951043,-3.2929766609372635,-0.020281508122593137,0.25321920914450824,-1.5765234518213305
1.1622618431036649,-3.3447223592101096,-0.020165471795876893,0.23959696488257584,-1.5662082619538606
1.158042012623822,-3.3936181602274544,-0.020023389916911886,0.22607733052068216,-1.551394476495207
1.1538550960296987,-3.439686369415533,-0.019852006217595527,0.21266751888957605,-1.531751832145657
1.1497076221681604,-3.482950907975251,-0.01964774484467421,0.19937570548869119,-1.5069296220820159
1.1456069099529291,-3.5234375239047466,-0.019406657205147945,0.18621111288745695,-1.4765569573246233
1.1415611535142833,-3.5611740195632677,-0.019124356496240818,0.17318408386034162,-1.4402440505802299
1.137579522904997,-3.596190491993447,-0.018795935020771273,0.16030612976039818,-1.3975850619767873
1.1336722847807488,-3.628519578588879,-0.018415856638735226,0.14758993305322682,-1.3481632869654034
1.1298509495497981,-3.6581966951202034,-0.01797781222746174,0.13504927200698266,-1.2915598019767498
1.1261284548008026,-3.6852602448266154,-0.01747451871535219,0.12269882043506104,-1.2273671351443989
1.1225194001486118,-3.7097517653472067,-0.016897430353130762,0.11055375595153054,-1.155210102839325
1.1190403572413032,-3.7317159640129347,-0.016236311621236028,0.09862908848397209,-1.074776598162274
1.1157102925394995,-3.7512005717865264,-0.015478590300705058,0.0869386045978771,-0.9858616443521007
1.1125511627231257,-3.7682559252578613,-0.014608360331426987,0.07549333322433854,-0.8884279316014854
1.109588778081333,-3.782934174940415,-0.013604826733266169,0.06429952089520628,-0.782684237076684
1.1068540862592935,-3.7952880412655503,-0.012439857286157676,0.05335634886798321,-0.6691775580454026
1.104385124814093,-3.805369146393467,-0.011074061239560666,0.04265417615982624,-0.5488826626374561
1.1022300778367187,-3.81322622596592,-0.009450195687813854,0.032175153101653864,-0.4232525236815069
1.1004523448674302,-3.818904118740406,-0.007480594495887215,0.02190001617917882,-0.29416997283800983
1.0991401902411695,-3.8224457882911267,-0.005016116230404581,0.011830170018130469,-0.1637324324366802
1.0984324680065722,-3.8239050510155934,-0.001724095527663655,0.0020675702149039674,-0.033843349433980374
