x,y,v_x,v_y,omega
2.375,32.48,0.0,3.1794871794871797,-6.775510204081632
2.3737151744304614,31.914105068413654,-0.014275839661537724,3.1082342825832794,-6.369299453104007
2.3700389335814886,31.360785926809797,-0.026571280882607306,3.039756179681797,-5.999386175694517
2.364304070891522,30.819559372567543,-0.037149415672576715,2.9738722007877043,-5.661530409287403
2.3567994630759284,30.28997318784618,-0.04623511561179597,2.910418740560797,-5.352083191967981
2.3477763921169603,29.771603268517083,-0.054021228376738575,2.849247029762471,-5.0678917214581
2.337453853226624,29.264051120320854,-0.060673648182552976,2.790221283528964,-4.806221742851009
2.326023030807694,28.766941661343292,-0.06633548980555826,2.7332171495550552,-4.564693657235646
2.313651087821968,28.279921282135202,-0.07113054336917683,2.6781203972015173,-4.3412296377373405
2.3004843856028323,27.80265612421935,-0.07516614795455258,2.6248258018635053,-4.134009635347734
2.2866512289544056,27.33483054504775,-0.07853559258352366,2.5732361889320217,-3.9414346085079957
2.2722642138666767,26.876145743211726,-0.08132013061346201,2.5232616092460476,-3.7620956559486203
2.257422241249265,26.426318522245786,-0.08359067624666847,2.474818623708859,-3.5947479990084656
2.2422122489327,25.98508017498503,-0.08540923838182911,2.427829679188444,-3.438288967202261
2.2267107051956447,25.552175473343567,-0.08683013647434465,2.382222561272238,-3.291739303513789
2.210984899786983,25.127361750736057,-0.0879010347330075,2.3379299121445256,-3.1542272343287525
2.195094062469547,24.710408066284803,-0.08866382434961373,2.294888803980551,-3.0249748509538357
2.1790903342443864,24.301094441532108,-0.08915537815217014,2.2530403599382747,-2.9032864312061646
2.163019612408521,23.899211161681755,-0.0894081978018874,2.2123294161767557,-2.788538395077155
2.1469222872884757,23.504558134478522,-0.089450970198619,2.172704219414735,-2.6801706413949784
2.1308338857451496,23.116944300743274,-0.08930904694944515,2.13411615542136,-2.5776790553599365
2.1147856342583347,22.736187091346135,-0.08900485845961344,2.0965195045468494,-2.480609011843309
2.0988049524880035,22.36211192604801,-0.08855827232184565,2.0598712209878953,-2.388549728010089
2.0829158866074353,21.994551750192088,-0.08798690412890792,2.0241307329667833,-2.3011293423941455
2.067139490356153,21.63334660569864,-0.087306387552006,1.9892597614048422,-2.2180106170023786
2.0514941606247366,21.278343233221683,-0.08653060946373398,1.9552221550058169,-2.138887175130573
2.035995933423105,20.929394702676053,-0.08567191499883912,1.9219837399456141,-2.063480200957949
2.0206587452696,20.58636006964681,-0.08474128670677461,1.8895121826015249,-1.9915355381461812
2.005494664346205,20.249104055456776,-0.0837485013309478,1.857776863954392,-1.9228211340010226
1.9905140951757434,19.9174967488988,-0.08270226722973546,1.8267487644676106,-1.8571247835828582
1.9757259600735677,19.591413327841394,-0.08161034501666092,1.7964003583924342,-1.7942521347377351
1.961137860195576,19.27073379909442,-0.0804796536276921,1.7667055165739343,-1.7340249205752833
1.9467562186350915,18.955342755078206,-0.07931636371102427,1.7376394169395197,-1.6762793906179951
1.9325864077038355,18.64512914597861,-0.07812597996959651,1.7091784619448909,-1.6208649158298825
1.9186328622590603,18.339986066193603,-0.07691341386124148,1.681300202332963,-1.567642746118488
1.904899180703302,18.039810553986804,-0.07568304786940548,1.653983266631512,-1.516484901789091
1.891388215079639,17.744503403361072,-0.07443879239351646,1.6272072958766148,-1.467273182893469
1.8781021515091092,17.453968987252935,-0.0731841361679252,1.6009528831026787,-1.4198982825239972
1.8650425820641545,17.16811509122686,-0.07192219099823824,1.5752015171870457,-1.374258991912198
1.8522105690392463,16.886852756918938,-0.07065573150074053,1.549935530678743,-1.3302614867450917
1.839606702464408,16.610096134542857,-0.06938723044190788,1.5251380512776775,-1.2878186854512
1.8272311516067639,16.33776234382819,-0.0681188901985829,1.5007929566630984,-1.2468496713630637
1.8150837111174831,16.069771342812597,-0.06685267079342357,1.4768848323990225,-1.2072791716616953
1.8031699498268756,15.806048889229004,-0.06552245465777264,1.4533646518631407,-1.1669308402452054
1.7914940051923143,15.54652316783939,-0.06421026350401923,1.4302544746881491,-1.1282713997214688
1.7800525742294955,15.291121604858578,-0.06291674719396793,1.4075406695430803,-1.0912112843764834
1.7688422486061097,15.039774028437073,-0.06164242639920755,1.3852101795847362,-1.0556665753089376
1.757859536556429,14.79241256801907,-0.06038770748613606,1.3632504917263875,-1.0215585872560873
1.7471008822621181,14.548971559055438,-0.059152895783984916,1.3416496078695352,-0.9888134897134238
1.7365626829741858,14.309387452731503,-0.05793820741526068,1.3203960179519627,-0.9573619591698527
1.7262413041205655,14.073598730394817,-0.05674377984718917,1.2994786746778857,-0.9271388596049092
1.7161330926169165,13.841545822391144,-0.05556968130446572,1.2788869698073753,-0.898082948683094
1.7062343885744347,13.613171031038153,-0.05441591916755461,1.2586107118925045,-0.8701366073371173
1.6965415355773557,13.388418457485699,-0.05328244746665614,1.2386401053569682,-0.8432455906604862
1.6870508896841443,13.16723393222938,-0.05216917356902498,1.218965730824363,-0.8173587982337974
1.6777588272897592,12.94956494906047,-0.051075964146364644,1.199578526607969,-0.7924280621911782
1.6686617519716445,12.735360602250388,-0.05000265049935591,1.180469771281828,-0.7684079514961124
1.659756100428997,12.524571526781692,-0.04894903330784059,1.1616310672592485,-0.7452555910415853
1.6510383476132038,12.317149841450401,-0.04791488686763762,1.1430543253106293,-0.7229304943200442
1.64250501113697,12.113049094676246,-0.04689996286829411,1.1247317499577527,-0.70139440852579
1.6341526550404086,11.912224212868264,-0.04590399376016409,1.106655825686501,-0.6806111710575999
1.6259778929841366,11.714631451203289,-0.04492669575397076,1.088819303924333,-0.6605465764839366
1.6179773909320565,11.520228346684139,-0.04396777149136263,1.0712151907328757,-0.6411682531182051
1.6101478693799574,11.328973673352912,-0.043026912420850515,1.0538367351696534,-0.6224455484281833
1.6024861051801944,11.140827399542772,-0.04210380090984919,1.0366774182763527,-0.6043494225728866
1.5949889330074818,10.95575064705903,-0.04119811212029026,1.0197309426541092,-0.586852349422543
1.5876532465061421,10.77370565218714,-0.040309515672375014,1.0029912225891364,-0.5699282244737436
1.5804759991549673,10.5946557284316,-0.03943767711845556,0.9864523746946312,-0.5535522791228351
1.5734617369779742,10.418793965417237,-0.03849856929257803,0.9675672143538667,-0.5883851017408115
1.566611767022397,10.246322201329136,-0.03761220799161506,0.9487857199583819,-0.6244465242322857
1.559916758989397,10.077222007604522,-0.036776770152828514,0.930105321426204,-0.6616303584062099
1.5533677108029305,9.911475408905716,-0.03599043191901998,0.9115235530049878,-0.6998319190486432
1.5469559485618314,9.749064864568776,-0.03525137075986129,0.893038050738765,-0.7389477881423294
1.5406731261360926,9.589973250473964,-0.034557767303900686,0.8746465503146937,-0.7788755803818672
1.5345112244579369,9.43418384126944,-0.03390780689783184,0.8563468852911231,-0.8195137089376535
1.5284625505554814,9.281680292879216,-0.033299680907226896,0.8381369857113685,-0.860761150398882
1.522519736374478,9.132446625225214,-0.032731587770588225,0.8200148771108733,-0.9025172077943051
1.516675737431663,8.986467205091628,-0.032201733816244124,0.8019786799289458,-0.9446812705487481
1.510923831341766,8.843726729057416,-0.03170833384927724,0.7840266093400685,-0.9871525701829276
1.5052576162591333,8.704210206419656,-0.031249611513307296,0.7661569755239348,-1.0298299305033152
1.4996710092742784,8.567902942026688,-0.03082379942952494,0.7483681843979507,-1.0726115109568521
1.4941582448054636,8.43479051893518,-0.030429139112863626,0.7306587388410145,-1.1153945417414277
1.4887138730256744,8.304858780799613,-0.030063880662571475,0.7130272404430547,-1.1580750491662537
1.4833327583660925,8.178093813895835,-0.029726282221671875,0.6954723918211577,-1.2005475696456247
1.478010078138426,8.054481928672406,-0.029414609196844757,0.6779929995502761,-1.2427048505840013
1.4727413213202727,7.934009640714066,-0.029127133227080132,0.6605879777645987,-1.284437536268856
1.4675222875500948,7.816663650990716,-0.02886213088600797,0.6432563524948501,-1.3256338367292742
1.4623490863814401,7.702430825252627,-0.028617882099044853,0.6259972668172296,-1.3661791773420255
1.4572181368498134,7.5912981724179325,-0.028392668252363196,0.6088099869016,-1.405955826772105
1.4521261674101498,7.483252821781377,-0.0281847699661217,0.5916939090601244,-1.444842500621351
1.4470702163082594,7.37828199885379,-0.027992464499325825,0.574648567913054,-1.4827139379271905
1.442047632455997,7.276372999619067,-0.027814022748035284,0.5576736458060912,-1.5194404474053205
1.437056076887366,7.177513162969461,-0.027647705792309917,0.5407689836339651,-1.5548874200682992
1.432093524881442,7.081689841050093,-0.027491760940180403,0.5239345932478938,-1.5889148045819559
1.4271582688480227,6.988890367209212,-0.027344417208921678,0.5071706716507844,-1.6213765414519565
1.4222489220834835,6.899102021211412,-0.02720388017484726,0.4904776172136408,-1.6521199518773377
1.4173644235176175,6.812311991325988,-0.02706832611255363,0.4738560481799696,-1.680985076886879
1.4125040435875351,6.728507332851198,-0.026935895332804247,0.4573068237621328,-1.7078039622183125
1.4076673913922533,6.647674922576897,-0.02680468461477332,0.4408310681745314,-1.7323998843543595
1.402854423301771,6.569801408621835,-0.026672738612804323,0.42443019799281534,-1.7545865132586382
1.3980654532176469,6.494873155007731,-0.026538040099687195,0.40810595327501664,-1.7741670077530267
1.3933011647088414,6.422876180249485,-0.026398498887040947,0.39186043292772954,-1.7909330402823116
1.3885626252776113,6.353796089149949,-0.026251939237736145,0.3756961348449059,-1.8046637492181208
1.3838513030463564,6.287617996889434,-0.026096085553986664,0.35961600138301686,-1.8151246191445423
1.3791690861987882,6.224326444396979,-0.025928546085660066,0.34362347075538846,-1.8220662931487148
1.3745183055592851,6.163905303886512,-0.025746794353263328,0.32772253491646064,-1.8252233265959614
1.3699017607552373,6.106337673344271,-0.025548147913935577,0.3119178044417599,-1.8243129000436142
1.3653227504821968,6.0516057586762955,-0.025329744008738043,0.29621458075795953,-1.8190335210562325
1.3607851074861352,5.999690742187134,-0.025088511503056285,0.2806189357882941,-1.8090637624818722
1.3562932389994526,5.950572636094517,-0.024821138348973537,0.26513779857413716,-1.7940611107657172
1.3518521735306424,5.904230119939118,-0.02452403352669731,0.24977904759693867,-1.7736610357604017
1.3474676151324252,5.860640361099026,-0.024193282009049147,0.23455160618184476,-1.7474764484753942
1.3431460065928293,5.819778818279374,-0.023824590653127663,0.21946553625872373,-1.7150977927472808
1.3388946034615465,5.7816190289895815,-0.023413221916681822,0.20453212251675632,-1.6760941313927875
1.334721561526538,5.746132383894782,-0.022953910694524182,0.18976393409213485,-1.6300157514324478
1.3306360414342149,5.713287893896172,-0.022440756997955575,0.17517484367020192,-1.576399045443323
1.326648335830123,5.683051960360753,-0.0218670830475097,0.16077997339002686,-1.514774750183562
1.3227700270591036,5.655388165747759,-0.02122523663048435,0.14659552230991452,-1.4446810630109757
1.3190141877076673,5.630257111752773,-0.020506311718807024,0.1326384109676921,-1.3656837237033523
1.3153956430621019,5.607616345729596,-0.019699739898586636,0.11892565595647522,-1.2774058149383223
1.3119313254145237,5.5874204336526,-0.01879267840783682,0.10547336712126974,-1.1795706592338728
1.308640767428956,5.569621257393937,-0.017769076987360393,0.09229525797498812,-1.0720613820151297
1.305546809089572,5.554168628977891,-0.01660823789468221,0.07940061331442938,-0.9549995747327608
1.3026766358564503,5.541011308075792,-0.015282575806671937,0.06679184115333264,-0.8288412931870814
1.3000633354628564,5.530098446488093,-0.01375409523326076,0.05446217648777765,-0.6944786755508792
1.2977482856592935,5.521381302098565,-0.011968680361882839,0.042394983395858364,-0.5533172768823305
1.2957849634020968,5.514814662153242,-0.009846011384747073,0.03056768266329321,-0.4072747595710909
1.294245606994181,5.510356571778342,-0.007257948703206115,0.01896665483560212,-0.2586289899483737
1.293235756724663,5.507962570390173,-0.0039626098469937015,0.007633360588482348,-0.10965697208938846
