x,y,v_x,v_y,omega
2.375,32.48,0.0,2.41025641025641,-2.0
2.374719217093863,32.05020837425643,-0.0031198100681852133,2.3652060980054532,-1.9055517016167771
2.37390897986904,31.628410400434618,-0.005882825763188675,2.321438055570215,-1.8175162661390116
2.3726301041835196,31.214380705538733,-0.008326904075922462,2.2788918877174034,-1.735314647359877
2.3709369824922137,30.807904446442546,-0.010485559160811574,2.237510991129107,-1.6584303681369867
2.368878316210477,30.408776654787925,-0.012388510636263169,2.1972422494778123,-1.5864017940722226
2.366497756217906,30.01680163402328,-0.014062155947859872,2.1580357590182238,-1.5188154728227186
2.363834464138708,29.63179240342524,-0.015529978265449077,2.1198445809600184,-1.455300377215802
2.360923605139375,29.253570184569796,-0.016812899504917562,2.0826245174337825,-1.3955229171403492
2.357796781397291,28.88196392625226,-0.01792958651823972,2.0463339083166225,-1.3391826071796529
2.354482414061054,28.516809864313135,-0.01889671721772785,2.0109334465625444,-1.2860082950657057
2.3510060804007025,28.15795111322251,-0.019729212341732458,1.9763860099999815,-1.2357548710081483
2.347390811897939,27.80523728661816,-0.020440437688969745,1.942656507826129,-1.1882003903694254
2.343657358223599,27.458524144290944,-0.021042380914810376,1.9097117402540174,-1.143143552489973
2.3398244213680415,27.117673263371618,-0.021545806369160262,1.8775202699607172,-1.1004014870903458
2.335908863610136,26.782551731701698,-0.021960390940897908,1.8460523041495016,-1.059807806895012
2.3319258925157595,26.453031861572057,-0.022294843441066827,1.8152795861798692,-1.0212108911811717
2.327889225733766,26.12899092219019,-0.022557009692190013,1.7851752958408615,-0.9844723700554068
2.3238112379950215,25.810310889394174,-0.022753965182754243,1.755713957448198,-0.9494657835643165
2.3197030924089477,25.496878211270513,-0.022892096884733967,1.7268713550369443,-0.9160753933859971
2.3155748578843967,25.18858358845711,-0.022977175610274216,1.6986244540008468,-0.8841951279368383
2.3114356142709256,24.88532176802314,-0.023014420094962313,1.6709513285988282,-0.8537276443528189
2.3072935466172995,24.586991349916353,-0.02300855383421774,1.643831094809935,-0.824583493040788
2.303156029771654,24.293494605057028,-0.022963855561842765,1.6172438480714366,-0.7966803724048045
2.2990297043983023,24.00473730423723,-0.02288420414206158,1.5911706054818506,-0.7699424629866972
2.2949205453564314,23.720628557055562,-0.022773118545393947,1.565593252092251,-0.7442998316612681
2.2908339232730732,23.441080660182116,-0.022633793491919213,1.5404944909460438,-0.7196878977305781
2.2867746600444323,23.166008954306566,-0.022469131270757375,1.5158577965600901,-0.6960469537983407
2.282747078913852,22.895331689174935,-0.022281770180135205,1.4916673715691415,-0.6733217351995826
2.2787558467736693,22.62897046624542,-0.022065253599673207,1.4679017720921421,-0.6506859758607089
2.2748047808564347,22.36684952134415,-0.021835478814046627,1.4445531712553008,-0.6290074194159039
2.270896117393833,22.10889504204261,-0.021594115214858052,1.4216077098728992,-0.6082348556546022
2.2670318064608264,21.855035658155863,-0.021342672929662732,1.399052111090969,-0.5883203291258307
2.2632135392876327,21.6052023397047,-0.02108251788359629,1.376873649477504,-0.5692188992530965
2.2594427729953073,21.35932830026612,-0.020814885364467264,1.3550601220622425,-0.5508884204902382
2.255720753010023,21.117348905374058,-0.020540892249800265,1.3335998211829103,-0.5332893406499641
2.2520485333842672,20.879201585656986,-0.020261548036374297,1.3124815090067874,-0.5163845157287209
2.248426995229261,20.644825754421717,-0.019977764797028154,1.291694393607306,-0.5001390397219363
2.2448568634417225,20.41416272941339,-0.019690366175621282,1.271228106485227,-0.48452008807519287
2.2413387218892247,20.18715565850076,-0.01940009551880352,1.2510726814328716,-0.4694967735517615
2.2378730272016116,19.96374944905348,-0.019107623232452166,1.2312185346480067,-0.455040013417149
2.234460121300992,19.743890700794136,-0.018813553441099484,1.2116564460113792,-0.4411224069486016
2.231100242789471,19.527527641922738,-0.018518430020241814,1.1923775414486193,-0.4277181223733725
2.2277935373018933,19.314610068325056,-0.018222742063956826,1.1733732763033842,-0.41480279242531554
2.2245400669202096,19.10508928568887,-0.017926928843640375,1.1546354196542161,-0.4023534177861685
2.2213398187365794,18.898918054363847,-0.01763138430780592,1.1361560395127173,-0.3903482777467455
2.218192712643786,18.696050536811622,-0.017336461167677907,1.117927488845331,-0.3787668474850631
2.2150986084239137,18.496442247502664,-0.017042474608677985,1.0999423923653129,-0.36758972141395674
2.2120573121993923,18.300050005125698,-0.016749705663780694,1.082193634045411,-0.35679854210069406
2.2090685823043583,18.106831886984125,-0.01645840428104399,1.064674345305384,-0.3463759343060678
2.2061321346287732,17.91674718546178,-0.01616879211434685,1.047377893831799,-0.33630544373098614
2.2032476474827716,17.729756366447766,-0.015881065063445787,1.0302978729906016,-0.32657148009515474
2.200414766024245,17.545821029616995,-0.015595395586853656,1.013428091795743,-0.31715926420546864
2.197633106288644,17.364903870469398,-0.015311934808712584,0.9967625653997392,-0.3080547787015946
2.1949038260757248,17.187186897306837,-0.01501340089038798,0.9778704697398198,-0.3470524606362575
2.1922250782947375,17.012861266351692,-0.01475046334280331,0.9590809853173716,-0.38721099587821584
2.189590549781839,16.841908736844324,-0.014522075689400667,0.9403915647645088,-0.42843096186057245
2.1869941186257904,16.674311517739017,-0.014327159377808497,0.9217997586277642,-0.47061423900365335
2.184429859611917,16.51005225029524,-0.014164607443008506,0.9033032129697717,-0.5136637975787617
2.181892049039836,16.349113991070062,-0.014033287802333792,0.8848996673099514,-0.5574834849027728
2.179375168979374,16.191480195250627,-0.013932046202798143,0.8665869529059852,-0.6019778119320238
2.1768739110256488,16.037134700264836,-0.013859708838596047,0.8483629913805936,-0.6470517382936708
2.174383179611315,15.886061709607489,-0.01381508465399958,0.8302257937010414,-0.6926104547543113
2.1718980949314695,15.738245776817422,-0.013796967344286934,0.8121734595219438,-0.7385591620785977
2.1694139955346565,15.593671789538963,-0.013804137064741852,0.7942041769053743,-0.784802845174081
2.1669264406318676,15.452324953598236,-0.01383536185513639,0.7763162224360483,-0.83124604135182
2.1644312121743075,15.314190777021174,-0.013889398784421995,0.7585079617535256,-0.8777926014544248
2.1619243167501274,15.179255053915835,-0.013964994817574667,0.7407778505280355,-0.9243454425131334
2.159401987350219,15.047503848136255,-0.014060887403635003,0.7231244359117408,-0.9708062904920544
2.1568606850536094,14.918923476638916,-0.014175804780916054,0.705546358503152,-1.017075411559549
2.1542971006840395,14.793500492435417,-0.014308465992080346,0.6880423548690595,-1.063051330192442
2.1517081564909084,14.671221667036367,-0.014457580598266705,0.6706112606759431,-1.1086305322667849
2.149091007910078,14.552073972271302,-0.01462184807762717,0.6532520144914609,-1.1537071511176356
2.14644304546304,14.436044561357683,-0.014799956889457731,0.6359636623265265,-1.1981726343580632
2.143761896856743,14.32312074907831,-0.014990583180510036,0.6187453629998364,-1.2419153890326813
2.1410454293510486,14.213289990910546,-0.015192389104982926,0.6015963944197641,-1.2848204024419183
2.1382917524664373,14.106539860932347,-0.0154040207240309,0.5845161608935611,-1.3267688357086833
2.1354992211112878,14.002858028308726,-0.01562410544429906,0.5675042015911155,-1.3676375868683448
2.13266643921599,13.902232232137582,-0.015851248947894785,0.5505602003104688,-1.4072988199461385
2.1297922639704403,13.804650254405264,-0.01608403155821434,0.5336839967152809,-1.4456194561447795
2.1268758107722694,13.710099890769207,-0.01632100397701801,0.5168755992409043,-1.482460622902813
2.1239164590057245,13.618568918846872,-0.016560682317928118,0.5001351998961462,-1.5176770562079778
2.120913858785618,13.530045063646181,-0.0168015423499205,0.4834631912226516,-1.5511164511712057
2.11786793881752,13.444515959721919,-0.01704201285116593,0.46686018571360954,-1.5826187555045563
2.114778915544652,13.361969109584223,-0.01728046795848218,0.4503270380385579,-1.612015400229383
2.1116473037741574,13.282391837818299,-0.01751521838034462,0.43386487047169936,-1.6391284617134196
2.1084739290009957,13.205771240297892,-0.01774450132145063,0.41747510197727494,-1.6637697490632428
2.1052599416771334,13.132094127787944,-0.017966468943690177,0.4011594814665794,-1.6857398110795436
2.102006833707684,13.061346963133442,-0.018179175161300756,0.38492012580566337,-1.7048268575610646
2.0987164574949317,12.99351579112134,-0.01838056053594829,0.36875956321769204,-1.7208055909306843
2.095391047896787,12.928586159981183,-0.01856843499899097,0.35268078278403703,-1.7334359462642972
2.0920332475195837,12.866543033359118,-0.018740458081044083,0.33668729079447063,-1.7424617412842398
2.0886461358280077,12.807370691463309,-0.018894116269802537,0.3207831747145449,-1.7476092433995667
2.0852332626300685,12.751052619943678,-0.019026697040634172,0.30497317550358416,-1.7485856694109378
2.081798686586199,12.697571384948073,-0.01913525900236097,0.2892627688920082,-1.7450776464794802
2.0783470195046427,12.64690849271204,-0.019216597459374898,0.2736582559528139,-1.7367496824889044
2.074883477329318,12.599044232025449,-0.01926720448867631,0.25816686278707035,-1.7232427230974954
2.071413938915632,12.553957498032513,-0.019283222330054202,0.2427968482455321,-1.7041729161181693
2.067945013947349,12.511625596150395,-0.019260388428649505,0.22755761711135608,-1.6791307680272405
2.0644841217112977,12.472024025573319,-0.01919396974969813,0.21245983374504507,-1.6476809720687358
2.061039582978776,12.435126243074311,-0.019078682833877578,0.19751552735504466,-1.6093633265448675
2.0576207280467282,12.400903409943478,-0.01890859418887139,0.18273817409867757,-1.5636953651801857
2.0542380252420975,12.369324128380882,-0.018676992529249384,0.16814273215237682,-1.510177615793427
2.050903236181308,12.34035417916747,-0.018376219257301134,0.15374559244108313,-1.4483028231240513
2.0476296072947036,12.313956280884991,-0.017997435038304668,0.13956438847534133,-1.3775710540322879
2.0444321123949427,12.290089903470346,-0.017530286070146,0.12561758279849664,-1.297513373528757
2.0413277697541043,12.268711186555077,-0.01696240993917248,0.1119237162600639,-1.2077277071137562
2.038336071494887,12.249773036099327,-0.016278681829908034,0.09850017769272382,-1.1079313955275218
2.0354795867139406,12.233225498636763,-0.015460037958387038,0.08536134966908267,-0.9980352190190394
2.0327848384711293,12.219016530939825,-0.014481609183957682,0.07251606918577003,-0.8782419254856966
2.030283618516046,12.207093267912857,-0.013309723650297405,0.059964631113888035,-0.7491657653733135
2.0280150128027086,12.19740378698193,-0.011897006497900105,0.04769626811865013,-0.6119539516358863
2.0260286237814737,12.189899070278468,-0.010173982626934221,0.03568947303093523,-0.4683629854084359
2.0243900148639984,12.184534193823957,-0.008032783122792415,0.02392026535251979,-0.3207080835951628
2.0231913374716455,12.1812661871393,-0.005285854570015235,0.01239092003256868,-0.17158733081956812
2.0225812177495275,12.180039287121684,-0.0014932534535182962,0.001241302385413201,-0.023343849156396423
