x,y,v_x,v_y,omega
2.375,32.48,0.0,2.4615384615384617,-7.755102040816326
2.3739289359616005,32.041195913601925,-0.011900711537772243,2.414062498440084,-7.3806935449751965
2.3708384602972425,31.61080272393192,-0.02243790695509546,2.368084053448899,-7.03253655202046
2.365960748611249,31.188558600170655,-0.0317588895559423,2.323517321676263,-6.70815852459922
2.359503054166214,30.774216488747946,-0.039993270944449336,2.2802839163538304,-6.405371074769227
2.351650673074866,30.36754285875537,-0.04725540784830377,2.238311972452567,-6.122231556131214
2.3425695057724223,29.968316596338617,-0.05364645106773752,2.197535387733586,-5.857010663486925
2.332408278180388,29.576328025564507,-0.05925607773264446,2.157893176423175,-5.608164965548314
2.3213004744998216,29.19137803726982,-0.06416396316253731,2.1193289157400086,-5.374313513276327
2.309366024465192,28.813277310605674,-0.06844103722223634,2.0817902694172066,-5.15421783463476
2.29671278060235,28.44184561456983,-0.07215056125378037,2.0452285754255106,-4.946764757979766
2.283437815157993,28.076911178905036,-0.07534905479463765,2.00959848751664,-4.750951609806841
2.269628561596222,27.718310125437963,-0.07808709589170612,1.9748576621174898,-4.565873414676854
2.2553638216571668,27.365885952320777,-0.080410014542237,1.9409664836290224,-4.390711790713321
2.240714655764302,27.019489064777805,-0.0823584953784864,1.907887822404005,-4.224725286770275
2.225745171913016,26.678976346901997,-0.08396910296913307,1.8755868206605086,-4.067240949994256
2.210513225965593,26.344210769828038,-0.08527474089112466,1.844030702383487,-3.917646947170845
2.195071044432653,26.015061032261293,-0.08630505391931563,1.813188603913663,-3.7753860915926425
2.1794657792716805,25.691401229888427,-0.08708678120260671,1.7830314224515131,-3.639950150481303
2.163740002926404,25.373110550655376,-0.08764406707824529,1.7535316801379717,-3.5108748272324033
2.1479321507241447,25.060072993287157,-0.0879987351690762,1.7246634017311135,-3.387735328707354
2.1320769168074896,24.752177106753884,-0.08817053057153443,1.696402004194139,-3.270142441087019
2.11620560897416,24.44931574866836,-0.08817733424324076,1.6687241967561157,-3.1577390489166257
2.100346467112103,24.151385860841202,-0.08803535311294876,1.6416078902123434,-3.050197041302374
2.084524949327146,23.858288260425788,-0.0877592889421289,1.6150321144033417,-2.947214557081292
2.0687639893528127,23.569927445263428,-0.08736248855046459,1.5889769429562275,-2.8485135274314244
2.0530842283935202,23.286211412192863,-0.08685707766389295,1.5634234244944847,-2.7538374800254157
2.037504224172906,23.00705148722205,-0.08625408034292956,1.5383535196256881,-2.6629495736250486
2.022040639629744,22.7323621665763,-0.08556352569220803,1.5137500431048159,-2.5756308361047853
2.0067084134175346,22.462060967738736,-0.08479454333233934,1.4895966106459246,-2.4916785823919474
1.9915253088289941,22.196076289683006,-0.0839066187625544,1.4657887010844262,-2.407817754325779
1.9765059111302306,21.934338899465175,-0.08297557789037519,1.4424045235581389,-2.327511061347348
1.9616574760886056,21.67677382743794,-0.08200703368323452,1.4194296100777708,-2.250567611525662
1.946986296872074,21.423308650789373,-0.08100606872267344,1.3968501304618681,-2.1768087197795656
1.9324977950842397,21.173873382011433,-0.07997728447548517,1.3746528559596853,-2.106067000007626
1.9181966033629774,20.928400363687693,-0.078924845760763,1.3528251254152095,-2.038185534078328
1.9040866403622654,20.686824169162,-0.07785252091381598,1.3313548137591151,-1.9730171103772414
1.890171178851776,20.449081508686405,-0.0767637180916197,1.310230302636429,-1.9104235253784776
1.8764529075931788,20.215111140679454,-0.07566151811501769,1.2894404529963153,-1.8502749423888438
1.862933987584883,19.984853787755963,-0.07454870419937995,1.2689745794869307,-1.7924493022159618
1.8496161032071012,19.758252057215966,-0.07342778888708466,1.2488224265130414,-1.736831781046137
1.8365005087457418,19.53525036570534,-0.07230103846135219,1.2289741458272279,-1.68331429129238
1.823588070726025,19.315794867782536,-0.071170495091057,1.2094202755372534,-1.631795021595051
1.8108793064441588,19.099833388146145,-0.07003799692967803,1.1901517204226866,-1.5821780125334748
1.798374419047359,18.887315357296405,-0.06890519636809656,1.171159733463302,-1.5343727649420793
1.7860733294784175,18.678191750420584,-0.06777357662014245,1.152435898490256,-1.4882938780239503
1.7739757055704872,18.47241502930738,-0.06664446680130565,1.1339721138786667,-1.4438607147223594
1.7620809885503568,18.269939087109663,-0.06551905564458894,1.115760577207098,-1.4009970920504657
1.750388417183888,18.070719195787614,-0.06439840398284138,1.0977937708156615,-1.3596309942942124
1.7388970497751846,17.874711956076197,-0.06328345611386331,1.0800644482000599,-1.3196943071962504
1.727605784211173,17.681875249831634,-0.06217505015293253,1.06256562118398,-1.2811225714019605
1.7165133762253788,17.492168194621563,-0.06107392746700216,1.045290547816856,-1.2438547536045066
1.7056184560385514,17.305551100432705,-0.059980741275523636,1.0282327209482078,-1.207833033966199
1.6949195435192468,17.121985428378345,-0.058896064494527965,1.0113858574335701,-1.1730026085200012
1.6844150619943563,16.94143375129558,-0.05782039689314537,0.9947438879304876,-1.139311505369211
1.6741118979644165,16.764096325473368,-0.05665920343951625,0.975671954538566,-1.158368020691015
1.6640136181187262,16.590181670926803,-0.05554390595704519,0.9567130959787765,-1.1790448778821496
1.6541120789159018,16.419669694828787,-0.0544731962965581,0.9378644162214299,-1.2012198565797307
1.644399375794126,16.25254081437985,-0.05344572727872736,0.9191231443223432,-1.224772909795197
1.6348678497918951,16.088775934608428,-0.052460117190503704,0.9004866309156835,-1.2495858955836059
1.6255100933981703,15.928356426761809,-0.051514953850884365,0.8819523451578528,-1.2755423124183738
1.6163189557070266,15.771264107206907,-0.050608798272933006,0.8635178721188558,-1.3025270371412643
1.6072875469473118,15.617481216760329,-0.04974018794611998,0.8451809106209148,-1.3304260643531927
1.5984092424537333,15.466990400366967,-0.048907639760307965,0.8269392715275585,-1.3591262460989535
1.5896776861422017,15.319774687045385,-0.04810965259004505,0.8087908764900413,-1.3885150306781442
1.5810867935491275,15.175817470016717,-0.04734470955522288,0.7907337571618112,-1.4184801993851044
1.5726307544917146,15.035102486931525,-0.04661127997158857,0.7727660548958784,-1.4489095999423471
1.5643040354040876,14.897613800105898,-0.04590782100204277,0.7548860209444095,-1.4796908753443978
1.5561013814023659,14.763335776674275,-0.045232779017088325,0.7370920171847392,-1.5107111867718388
1.5480178181305109,14.632253068561528,-0.04458459067018938,0.719382517401334,-1.5418569291683124
1.5400486534379918,14.504350592171086,-0.0439616836911329,0.7017561091591376,-1.5730134379959497
1.5321894789399946,14.37961350767884,-0.043362477397725224,0.6842114963102559,-1.604064685596875
1.5244361715111048,14.258027197814428,-0.04278538292327415,0.6667475021832184,-1.6348929654899527
1.5167848947641258,14.139577246001842,-0.042228803154270134,0.6493630735121735,-1.6653785628228277
1.509232100566991,14.024249413720224,-0.04169113236945025,0.6320572851724724,-1.6953994090799225
1.5017745306526233,13.912029616932763,-0.041170755567966136,0.6148293457992987,-1.7248307190182155
1.494409218379149,13.802903901416855,-0.04066604747063624,0.5976786043774444,-1.7535446076658219
1.487133490701115,13.696858416811597,-0.04017537117419114,0.5806045579031807,-1.7814096850760868
1.4799449704163812,13.593879389179289,-0.03969707643395968,0.5636068602335657,-1.8082906263859257
1.4728415787582279,13.493953091855353,-0.0392294975455233,0.5466853322546201,-1.8340477145872602
1.4658215384079942,13.397065814335843,-0.038770950790403984,0.5298399735177258,-1.8585363532930645
1.4588833770104306,13.303203828923039,-0.03831973140474806,0.5130709755134386,-1.8816065466770167
1.4520259312819244,13.212353354817196,-0.037874110023100795,0.49637873677369426,-1.903102343705504
1.445248351811103,13.124500519306032,-0.037432328541579234,0.47976388001703,-1.9228612437875674
1.438550108662135,13.0396313156626,-0.03699259533584137,0.46322727157667126,-1.9407135610772024
1.431930997903604,12.957731557316716,-0.03655307975895034,0.4467700433775947,-1.9564817449222955
1.4253911492004026,12.878786827814785,-0.03611190583217743,0.4303936177549825,-1.9699796544339934
1.4189310346230342,12.802782426028031,-0.03566714502746964,0.41409973543119055,-1.9810117859454426
1.4125514788484916,12.72970330601023,-0.03521680802300438,0.39789048698884577,-1.9893724533736614
1.406253670950148,12.65953401084414,-0.0347588352919222,0.3817683481899143,-1.9948449233801087
1.4000391780017056,12.592258599753098,-0.034291086357438,0.3657362194883415,-1.997200510006079
1.3939099607533838,12.527860567693939,-0.033811327512803795,0.3497974700578597,-1.99619763750446
1.3878683916789565,12.466322756595368,-0.033317217758610664,0.3339559865929089,-1.9915808859119595
1.381917275742408,12.407627257370311,-0.03280629264748236,0.31821622701880964,-1.9830800422228951
1.3760598742965895,12.351755301825268,-0.032275945639391616,0.3025832790372388,-1.9704091918412652
1.370299932608777,12.298687143633753,-0.031723406447414365,0.28706292309071524,-1.9532659017067122
1.364641711617774,12.248401927664357,-0.03114571567484135,0.2716616987914738,-1.931330570072604
1.3590900246767614,12.200877547200044,-0.030539694780854727,0.25638697303421343,-1.9042660510846883
1.3536502802448889,12.156090489017789,-0.029901910017728364,0.24124700676861885,-1.871717708822277
1.348328531788524,12.114015667007816,-0.02922862838632515,0.22625101556439475,-1.8333141204318313
1.3431315365865257,12.074626246130052,-0.0285157627469887,0.2114092164107822,-1.7886687382123911
1.3380668257749808,12.037893460213464,-0.027758801825732145,0.1967328493290821,-1.7373829447425009
1.3331427889276155,12.003786429648958,-0.026952718700549206,0.18223415694320008,-1.6790511038657878
1.3283687779225022,11.972271988728544,-0.02609184802293097,0.16792629772806134,-1.6132684345548474
1.3237552370622683,11.943314537628002,-0.025169717090778122,0.1538231589446077,-1.5396428219558744
1.319313869804746,11.916875941209621,-0.02417880799280276,0.13993902348183992,-1.4578120251181417
1.3150578576444705,11.892915506170997,-0.023110216010257974,0.12628803250286882,-1.3674681055995561
1.311002154583353,11.871390079271883,-0.021953151335491524,0.11288337748729488,-1.2683911725753354
1.3071638925830593,11.852254320749829,-0.02069420422332643,0.09973616164664165,-1.1604944567994702
1.3035629513534117,11.835461213976508,-0.019316253883868727,0.08685391361248604,-1.0438817620334424
1.300222772808516,11.820962864763967,-0.017796841059416455,0.07423885541574846,-0.9189155826031384
1.2971715421173287,11.808711602168163,-0.016105722176000092,0.06188628453761134,-0.7862883363080055
1.294443927523508,11.79866128475523,-0.014201106644229952,0.049783908939420383,-0.6470791901398417
1.2920837145905146,11.790768492436346,-0.01202348150014142,0.037913783492638284,-0.5027658470889625
1.2901480493640902,11.784992853557576,-0.009483909904574164,0.026259981827029877,-0.3551502506283367
1.2887153098592097,11.78129478834153,-0.006435417927432076,0.014829631684597094,-0.20616019695678264
1.2879050940997476,11.779625070004055,-0.0025669793999250822,0.0037227942873255,-0.057524570335395764
