x,y,v_x,v_y,omega
2.375,32.48,0.0,3.4871794871794872,-7.755102040816326
2.3727540677282235,31.757618380190806,-0.021389831159777786,3.392645463384221,-7.172521718220506
2.366399175917104,31.05459272307231,-0.03913294799374058,3.3028369853633524,-6.656247231238732
2.356637869128085,30.369971435086217,-0.05383187856834191,3.2173657573613568,-6.196555877199058
2.344057575358082,29.702879576594807,-0.06598044305073911,3.1358900377949364,-5.785413278633563
2.3291511434124152,29.052509893867096,-0.07598557547941678,3.0581069405642154,-5.416137529971199
2.3123333116092444,28.418115296299028,-0.08418425121745016,2.983746369607857,-5.083138648537186
2.29395400675168,27.79900247928928,-0.09085674742602143,2.91256617334213,-4.781714487068743
2.2743091506018933,27.194526467581774,-0.09623712066718486,2.844348223872223,-4.5078894843887625
2.2536494903050937,26.604085907325917,-0.10052154882614378,2.778895207135913,-4.258286263012275
2.2321878508034954,26.027118974059146,-0.10387501785574454,2.716027966833358,-4.030022652442135
2.2101051189003362,25.463099792605924,-0.10643671455529564,2.655583285102098,-3.8206285626978906
2.1875552018804867,24.911535286447396,-0.1083243999194618,2.597412011645752,-3.627978476191901
2.1646691526443993,24.3719623904655,-0.1096379737575592,2.541377473896113,-3.450236315963589
2.1415586140612395,23.843945573513295,-0.1104623937011083,2.4873541161249033,-3.2858101856205084
2.1183187047565655,23.32707462700379,-0.11087007586721617,2.4352263268228005,-3.1333150310244178
2.095030444687245,22.820962683352775,-0.11092287717392807,2.3848874222344407,-2.9915416948326907
2.071762800054236,22.325244434170784,-0.11067373837854186,2.336238760451182,-2.8594311572989097
2.048574412197969,21.839574522949704,-0.11016805072876108,2.289188965463895,-2.736053005303297
2.0255150632373407,21.36362609090817,-0.10944479651531798,2.2436532444554573,-2.6205873646366302
2.002626921689745,20.897089457852328,-0.10853750393797086,2.1995527846478216,-2.5123096814748624
1.9799456036407401,20.439670922530624,-0.10747504890969765,2.156814218416032,-2.4105778576686223
1.9575010788288796,19.9910916691313,-0.1062823302508797,2.115369147291795,-2.3148213383419964
1.9353184459727995,19.551086768379225,-0.10498083980702544,2.075153717013703,-2.2245318249314274
1.913418597558965,19.11940426320532,-0.1035891450866353,2.0361082370235097,-2.1392553464354136
1.8918187909455657,18.695804330241643,-0.10212329885050102,1.9981768388210146,-2.058585469526871
1.8705331398757912,18.280058509481112,-0.10059718752830563,1.9613071684221388,-1.9821574667924784
1.8495730382172533,17.87194899536727,-0.09902282826729271,1.9254501088525606,-1.9096432936333376
1.828947525862221,17.471267983373714,-0.09741062273301548,1.8905595291812918,-1.840747249787324
1.8086636051625309,17.077817066816586,-0.09576957440689052,1.8565920570770962,-1.7752022221874302
1.7887265149749259,16.69140667923481,-0.09410747499887259,1.8235068722731143,-1.7127664228732145
1.7691399683098976,16.31185557818628,-0.09243106466806102,1.7912655186652755,-1.6532205496513803
1.7499063586717156,15.938990366755224,-0.09074616998129137,1.7598317330590638,-1.5963653087333243
1.7310269394182032,15.572645049457318,-0.08905782290930433,1.72917128882575,-1.542019248121664
1.7125019798307881,15.212660619571867,-0.08737036363750467,1.6992518529404406,-1.490016858441716
1.6943309010477803,14.858884675232243,-0.08568752953399819,1.670042855055985,-1.4402069045126469
1.6765123945598643,14.511171061871885,-0.08401253225567798,1.6415153674236336,-1.3924509564643135
1.6590445255825848,14.169379538858646,-0.08234812467079394,1.613641994607222,-1.3466220938218816
1.6419248232947088,13.833375468359034,-0.08069665902326159,1.5863967720557552,-1.3026037598571998
1.6251503596543637,13.503029524659446,-0.07906013755145576,1.5597550727022194,-1.2602887467706179
1.608717818268938,13.178217422336836,-0.07744025659545625,1.533693520846469,-1.2195782950232368
1.592623554593437,12.858819661818767,-0.07583844507597952,1.5081899126589533,-1.1803812924724582
1.5768636485598675,12.54472129100488,-0.07425589810087412,1.4832231427114098,-1.142613560942999
1.561454897617606,12.235815585819466,-0.07249411087304544,1.458735954292521,-1.1004928838000898
1.5464119481386005,11.93199967555725,-0.0707720746412944,1.4347489053476423,-1.0603563447024227
1.5317264773593213,11.633170461784516,-0.06908955182803159,1.4112436067736502,-1.02208645191837
1.517390224230446,11.339228616199883,-0.06744619225649352,1.3882025416514192,-0.9855739955936311
1.5033950111521501,11.050078402940564,-0.06584155134632633,1.365609013199234,-0.9507173713236282
1.4897327621397705,10.765627511428772,-0.06427510591443025,1.3434470964368856,-0.9174219663428727
1.4763955178902717,10.485786899011455,-0.06274626789032184,1.321701593251849,-0.8855996018666665
1.4633754481592964,10.210470642708241,-0.06125439621420215,1.3003579905882954,-0.8551680258555007
1.4506648618059979,9.93959579943835,-0.059798807150547285,1.2794024215058888,-0.8260504511163967
1.4382562148171396,9.673082274147962,-0.05837878321953133,1.2588216288787508,-0.7981751342204362
1.4261421165822525,9.410852695305469,-0.05699358092225,1.2386029315259575,-0.7714749912122727
1.4143153346570576,9.152832297273946,-0.05564243741293936,1.2187341925837638,-0.7458872465245083
1.4027687982222734,8.898948809108251,-0.054324576251672,1.1992037899466559,-0.7213531118951229
1.391495600418685,8.649132349358801,-0.053039212353931844,1.1800005886195513,-0.6978174924263244
1.3804889997164638,8.403315326495846,-0.051785556238651144,1.1611139148371765,-0.6752287172239431
1.3697424204567457,8.161432344596946,-0.05056281766342573,1.1425335318190168,-0.653538292322771
1.35924945268602,7.923420113966813,-0.049370208724439195,1.1242496170394074,-0.6327006738393287
1.34900385138862,7.68921736638292,-0.048206946488894016,1.1062527409024447,-0.6126730595031191
1.3389995352092627,7.458764774682507,-0.047072255219270956,1.0885338467205457,-0.5934151969037353
1.3292305847458976,7.232004876426952,-0.045965368241348836,1.0710842319037845,-0.574889206957006
1.3196912404829018,7.008882001398213,-0.044885529501469505,1.0538955302746746,-0.5570594212411418
1.3103759004256925,6.789342202699231,-0.04383199485290323,1.0369596954299045,-0.5398922319857034
1.3012791174899814,6.573333191246029,-0.04280403310624976,1.0202689850767759,-0.5233559536139987
1.2923955966920018,6.360804273453802,-0.04180092687450735,1.0038159462777607,-0.5074206948448772
1.2837201921800125,6.151706291932751,-0.040821973239676394,0.9875934015417739,-0.4920582404542144
1.2752564962310484,5.9461382436853825,-0.0397846548456969,0.9701975341474393,-0.5053554231608408
1.267005774170486,5.744211103651452,-0.03879365049299156,0.9529180852233425,-0.5206745809563451
1.258958389144894,5.545900768194048,-0.037848111655502545,0.9357517762757341,-0.5378980171975599
1.2511048892786867,5.351183808319746,-0.03694712516552007,0.9186954606223975,-0.5569113636707883
1.2434360205232855,5.1600374425872495,-0.03608972012401448,0.9017461177823244,-0.5776033171074454
1.2359427381178278,4.9724395111469555,-0.03527487421367701,0.8849008483157048,-0.5998653848000643
1.2286162167822252,4.788368450818922,-0.03450151945872825,0.8681568690941268,-0.6235916382547491
1.2214478597545186,4.607803271120758,-0.03376854747180965,0.8515115089836253,-0.6486784738522801
1.2144293067763776,4.430723531160261,-0.033074814224772466,0.8349622049258831,-0.6750243795189205
1.2075524411232026,4.257109317310466,-0.03241914437689346,0.8185064984055057,-0.7025297064296787
1.2008093957685788,4.086941221587029,-0.03180033519095236,0.8021420322938884,-0.7310964447814644
1.1941925587667377,3.9202003206495775,-0.031217160064678163,0.7858665480628045,-0.7606280026812409
1.1876945779312065,3.7568681553498173,-0.030668371702286694,0.7696778833634875,-0.7910289871948764
1.1813083648829088,3.596926710749834,-0.030152704948167925,0.7535739699696988,-0.8222049865958007
1.1750270985366185,3.4403583965339735,-0.029668879302216122,0.7375528320861013,-0.8540623528385889
1.168844228090836,3.2871460277371796,-0.02921560113380682,0.7216125850262228,-0.8865079832609403
1.1627534755828424,3.137272805711344,-0.028791565608989957,0.7057514342674529,-0.9194491004878521
1.1567488380678765,2.990722299249402,-0.028395458343065564,0.689967674893899,-0.9527930294736817
1.1508245894790816,2.8474784257841748,-0.028025956788313974,0.6742596914415973,-0.9864469705707379
1.1449752822230632,2.707525432575526,-0.027681731364242602,0.6586259581645831,-1.02031776745648
1.1391957485646154,2.570847877795046,-0.027361446335260407,0.6430650397447395,-1.0543116686846703
1.133481101853405,2.4374306114121573,-0.027063760438172275,0.6275755924732376,-1.0883340815482234
1.1278267376451736,2.307258755779099,-0.02678732725926982,0.6121563659368425,-1.1222893168522567
1.122228334770355,2.1803176858046385,-0.026530795358050936,0.5968062052484784,-1.1560803230941805
1.1166818564039318,2.0565930085973747,-0.026292808131693976,0.5815240538683358,-1.1896084084327823
1.1111835511919168,1.936070542448892,-0.026072003411305715,0.5663089570695945,-1.222772948699423
1.1057299544920802,1.8187362950148618,-0.0258670127776139,0.5511600661116542,-1.2554710795610449
1.1003178897895163,1.7045764405377888,-0.025676460580138838,0.5360766431937921,-1.2875973707863122
1.094944470351412,1.593577295938715,-0.02549896263990208,0.5210580672735627,-1.3190434803928406
1.08960710119003,1.4857252955860325,-0.02533312461135536,0.506103840847238,-1.349697786265705
1.0843034814085284,1.3810069645276144,-0.025177539974373112,0.49121359780436197,-1.3794449926367174
1.0790316070109334,1.2794088899471987,-0.02503078762177042,0.47638711248531496,-1.4081657086031671
1.0737897742654587,1.180917690576802,-0.02489142900179757,0.4616243100898867,-1.4357359956485605
1.0685765837195966,1.0855199837636818,-0.024758004768318378,0.44692527860650183,-1.4620268809140182
1.0633909449761263,0.9932023498521012,-0.02462903088377962,0.4322902824561581,-1.4869038327690312
1.0582320823516247,0.9039512934965899,-0.024502994111473744,0.4177197780725076,-1.5102261950617453
1.0530995415534208,0.8177532014736357,-0.024378346823802115,0.40321443166992404,-1.531846576317645
1.0479931975275087,0.7345942965023937,-0.02425350104202636,0.38877513948476117,-1.5516101901390558
1.0429132636490412,0.6544605865213455,-0.024126821610044497,0.3744030508109435,-1.5693541431907796
1.037860302449075,0.5773378087963863,-0.023996618389634152,0.36009959418867477,-1.5849066675178838
1.0328352380967498,0.5032113681565811,-0.023861137346796218,0.34586650714280115,-1.59808629464288
1.027839370885699,0.43206626856682817,-0.023718550377497035,0.33170586990244766,-1.608700970092795
1.0228743940080804,0.36388703715312687,-0.023566943695060287,0.3176201435613868,-1.6165471089433558
1.017942412940361,0.29865763969823433,-0.02340430456893555,0.30361221315189146,-1.6214085959692077
1.0130459678135195,0.23636138652761218,-0.02322850616288651,0.2896854360921106,-1.6230557385309752
1.0081880591990218,0.1769808276148339,-0.02303729016566352,0.27584369641056167,-1.6212441870938246
1.003372177814215,0.12049763566420069,-0.02282824683249528,0.2620914650240348,-1.6157138482369204
0.9986023387419412,0.06689247589556402,-0.02259879195106635,0.2484338661058661,-1.6061878295850238
0.9938831208771219,0.016144861291799373,-0.02234614009483022,0.23487674916809612,-1.5923714772920134
0.9892197124702906,-0.031767007779919254,-0.022067273303564092,0.22142676580065257,-1.5739515974269385
0.9846179638540324,-0.07686642032619062,-0.02175890399413241,0.20809144892574485,-1.5505959969922056
0.9800844487441489,-0.11917834799051263,-0.021417430385710513,0.1948792907344696,-1.521953544204865
0.9756265359527672,-0.15872965387053029,-0.02103888191316374,0.1817998128847367,-1.4876550393027934
0.9712524740156885,-0.1955493141814273,-0.020618850820918997,0.16886361864759442,-1.4473153177273486
0.9669714922503818,-0.22966864728874015,-0.020152404086764365,0.15608241094587127,-1.4005371918461345
0.9627939233335163,-0.26112154039351765,-0.01963396655004982,0.14346895195679965,-1.34691809341291
0.958731354955852,-0.2899446578355054,-0.019057160856275693,0.13103692844307832,-1.2860606252783606
0.9547968220207115,-0.3161776058654908,-0.01841458138315862,0.11880067184246497,-1.2175886780116385
0.9510050570640296,-0.33986301614908143,-0.017697465823336055,0.10677466419173552,-1.1411712956613673
0.9473728264433812,-0.36104649403255706,-0.016895206754269008,0.09497274422233937,-1.0565569857627422
0.9439193954562102,-0.3797763591869483,-0.015994612171168668,0.08340692391474289,-0.9636213811759955
0.9406671900828127,-0.3961030911159895,-0.014978772337378361,0.07208576112374235,-0.8624304303587125
0.9376427615062073,-0.41007839409552815,-0.013825309344577994,0.061012362490906864,-0.7533183539107497
0.9348782210460738,-0.4217538448453624,-0.012503647418597864,0.05018240655513091,-0.6369724405687507
0.9324134199889231,-0.43117923521963775,-0.010970648363788091,0.0395832160570424,-0.5145032710854236
0.9302993745567578,-0.43840105901607984,-0.009163117656834096,0.029196058194753825,-0.3874598127844996
0.9286040731532226,-0.44346228590132597,-0.00698260999588253,0.019006102617098605,-0.2577325840129179
0.9274242850304819,-0.4464063234527771,-0.004253467363552244,0.009032350253892981,-0.12729241162624758
