x,y,v_x,v_y,omega
2.375,32.48,0.0,4.0,-4.938775510204081
2.3734761948885024,31.691556053615965,-0.015238051114976737,3.88443946384032,-4.536430368813135
2.3691876892455985,30.92561498725645,-0.027647005314059787,3.77497119975483,-4.1838347334971715
2.3626495481039966,30.18100840931021,-0.03773440610195991,3.671094579707581,-3.873135344102033
2.354285158825123,29.45666242328343,-0.045909486686777086,3.572365280560212,-3.5979311068834625
2.3444438111779187,28.751587197720433,-0.05250398978526846,3.4783869750697733,-3.352969765064193
2.333414594662192,28.064868041872565,-0.05778817537199648,3.388804583408896,-3.1339147739576276
2.3214374545420524,27.39565771096691,-0.061983225829400884,3.303298725647656,-2.937164588892756
2.308712039119152,26.74316972710509,-0.06527092839960147,3.2215811129705303,-2.7597114720132367
2.2954048180387736,26.10667254750768,-0.0678012824041828,3.1433906830035503,-2.5990303658617786
2.2816548385483766,25.48548444596411,-0.06969851249978583,3.068490332432167,-2.452990832632744
2.2675784024027115,24.878968999273,-0.07106584895686502,2.996664134478919,-2.319786824255546
2.2532728827108577,24.28653109043013,-0.07198934796167589,2.9277149539497613,-2.1978803351211016
2.238819851919136,23.707613355913402,-0.07254095995554008,2.8614623912175263,-2.085955935772879
2.224287655362728,23.14169301673573,-0.07278100560853933,2.797741000559231,-1.9828838884715267
2.209733536535361,22.588279042781643,-0.07276018266513247,2.736398738981603,-1.8876900714208205
2.195205398329422,22.046909607888765,-0.07252119939425625,2.6772956099472096,-1.7995313351055937
2.1807432674471086,21.517149799605995,-0.07210010942887607,2.6203024728805,-1.7176752155510178
2.1663805158316487,20.998589552874098,-0.07152740672572427,2.5652999944384685,-1.6414831598152575
2.1521448824591443,20.49084178127022,-0.07082892699932011,2.5121777216002967,-1.5703965964569246
2.1380593305202273,19.993540683119864,-0.07002659238985044,2.460833259903279,-1.5039253211164916
2.124142768416475,19.506340202848936,-0.06913902864767152,2.4111715428060134,-1.4416377743551463
2.1104106577255406,19.028912630535572,-0.06818207826167016,2.3631041803276207,-1.383152872679867
2.09687552706425,18.560947324813338,-0.06716922835124123,2.3165488768947173,-1.3281331196263988
2.0835474073791405,18.1021495461435,-0.0661119684998519,2.271428909803633,-1.2762787759273981
2.0704342014474277,17.65223938906974,-0.06502009081727494,2.2276726609339526,-1.2273229092381566
2.0575419981443703,17.210950803438575,-0.06390194221329978,2.1852131953777354,-1.1810271769750627
2.044875340220862,16.778030695749433,-0.06276463702178206,2.1439878815136826,-1.1371782223439555
2.0324374528554126,16.353238102819432,-0.06161423663271332,2.103938047786334,-1.0955845849863433
2.0202304390325536,15.936343430833745,-0.06045590159587702,2.0650086720705336,-1.0560740449282218
2.0082554468036067,15.527127753623716,-0.05929402069359214,2.027148100029732,-1.018491332517815
1.9965128126646636,15.125382164687895,-0.05813232069583809,1.9903077893284706,-0.9826961484412998
1.98500218460784,14.730907178060345,-0.05697395987239642,1.9544420769470467,-0.9485614472252276
1.9737226278391118,14.343512173647632,-0.055821607814887014,1.9195079671800714,-0.9159719452779483
1.9626727156882202,13.963014883110745,-0.05467751369402832,1.8854649381888005,-0.8848228208123448
1.95185060784621,13.589240912769199,-0.053543564726074085,1.8522747652266733,-0.8550185781851762
1.941254117740324,13.222023300359112,-0.05242133633278516,1.8199013588742066,-0.8264720534891279
1.930880770583049,12.861202102790884,-0.05131213523996536,1.7883106168080678,-0.7991035418064488
1.9207278534029246,12.506624012330693,-0.05021703656127766,1.7574702877938388,-0.7728400295098637
1.910792458171866,12.158141998877703,-0.0491369157493085,1.7273498467360502,-0.7476145174838216
1.9010715189810707,11.815614976229558,-0.04807247615864384,1.697920379745402,-0.7233654232233715
1.8915618440800883,11.478907490425609,-0.04702427285117985,1.669154478294098,-0.7000360515191201
1.8822601434771657,11.147889428433402,-0.04599273317804765,1.641026141627965,-0.6775741249119327
1.873163052700146,10.822435745601577,-0.04497817459215156,1.6135106866902897,-0.6559313663469787
1.8642671532331545,10.502426210443694,-0.04398082007776161,1.5865846648885271,-0.6350631275116418
1.8555689900727086,10.187745165444586,-0.04300081152669759,1.5602257851025672,-0.61492805723719
1.8470650867857774,9.878281302695015,-0.04203822134261434,1.5344128423931416,-0.5954878051058488
1.838751958400088,9.573927453263483,-0.04109306251428142,1.5091256519221872,-0.576706756054496
1.8306261224122264,9.274580389306827,-0.04016529736433338,1.484344987644366,-0.5585517923213513
1.8226928575060861,8.980141614777835,-0.03916735169706872,1.4600427576455475,-0.5385667034188666
1.8149565664360843,8.69051615056393,-0.03819555900294947,1.436211884493498,-0.5194881962300109
1.8074120769371391,8.405611397486823,-0.03724933598650278,1.4128356462775766,-0.5012644718210352
1.8000543349409774,8.125338024955994,-0.036328083975112724,1.3898980790307023,-0.48384725205467893
1.7928784071510968,7.849609823693331,-0.035431193923694634,1.3673839335959082,-0.46719150225341927
1.785879482691409,7.57834356679297,-0.03455805067318135,1.3452786354077186,-0.45125517862183184
1.7790528739677454,7.3114588785561985,-0.03370803656345588,1.32356824696,-0.43599899796306696
1.772394016862622,7.048878110584976,-0.03288053448777877,1.3022394327522369,-0.421386227494655
1.7658984703674374,6.790526224657306,-0.0320749304640655,1.2812794265244654,-0.40738249280678435
1.7595619157422018,6.536330681944101,-0.03129061578829357,1.2606760006075821,-0.3939556022160102
1.7533801552807096,6.286221338160281,-0.03052698882662755,1.2404174372306258,-0.38107538595264856
1.7473491107485124,6.040130344273209,-0.029783456495345646,1.2204925016400907,-0.3687135487839791
1.7414648215518613,5.79799205241935,-0.02905943547116438,1.200890416898503,-0.3568435348205054
1.7357234426878503,5.559742926705447,-0.02835435316894568,1.1816008402405291,-0.34544040338121595
1.7301212425190646,5.325321458593905,-0.027667648518910713,1.1626138408748914,-0.3344807149080686
1.7246546004100463,5.094668086593469,-0.026998772571272502,1.143919879129457,-0.3239424260215303
1.7193200042576644,4.86772511999601,-0.026347188952545657,1.1255097868451294,-0.3138047928994594
1.7141140479429477,4.644436666418329,-0.025712374194619775,1.1073747489316883,-0.3040482822422477
1.7090334287279931,4.424748562924602,-0.025093817954927683,1.0895062860055764,-0.2946544891590966
1.704074944618136,4.208608310520457,-0.02449102314364444,1.0718962380358756,-0.28560606137459277
1.6992354917065944,3.9959650118238272,-0.023903505971769476,1.054536748930416,-0.27688662921226403
1.6945120615162046,3.7867693117308683,-0.02333079593213077,1.0374202519991695,-0.2684807408632986
1.6899017383506143,3.580973340907267,-0.02277243572377076,1.0205394562368406,-0.2603738024947912
1.6854016966653576,3.3785306619464883,-0.022227981128797748,1.003887333370931,-0.25255202279332467
1.6810091984675188,3.17939621804684,-0.021697000849587287,0.9874571056255406,-0.2450023615769355
1.6767262042193967,2.9837020134172363,-0.02113294163163511,0.9694849406704875,-0.2727195696296329
1.6725520591231304,2.7915912919300787,-0.020608509331028063,0.9516222742011009,-0.30202394059714094
1.6684789261252546,2.60304244668864,-0.020122820647730393,0.933866178213272,-0.3328096227805135
1.6644991499037856,2.4180344451353406,-0.019674941566959266,0.9162138373197184,-0.3649730904965039
1.660605266459167,2.2365468069326084,-0.019263892879224847,0.898662544707608,-0.3984129145551428
1.6567900116507526,2.0585595826146914,-0.018888655204921518,0.8812096984715592,-0.43302953749116563
1.6530463287744832,1.8840533329363218,-0.018548173557772128,0.8638527983121368,-0.46872505261913955
1.6493673752708895,1.7130091088458634,-0.01824136147816514,0.846589442592437,-0.5054029859859838
1.6457465286466402,1.5454084320118326,-0.017967104764326912,0.8294173257478671,-0.5429680802914907
1.6421773916875764,1.3812332758323649,-0.017724264826312616,0.812334236046804,-0.5813260798372403
1.6386537970364496,1.2204660468574353,-0.017511681684954365,0.7953380537024959,-0.6203835155466594
1.6351698112044395,1.0630895665532485,-0.017328176635148768,0.7784267493393887,-0.6600474890735486
1.631719738081907,0.9090870533373057,-0.01717255459017346,0.7615983828200549,-0.7002254549827152
1.628298122010783,0.7584421048110883,-0.017043606121067284,0.7448511024421184,-0.7408249999438565
1.6248997504784297,0.6111386801150687,-0.016940109202465553,0.728183144518062,-0.7817536178278842
1.621519656490821,0.46716108232779874,-0.016860830673622134,0.711592833354623,-0.8229184795326907
1.6181531206813942,0.3264939408270635,-0.016804527420645463,0.6950785816527036,-0.8642261962920791
1.6147956732110103,0.1891221935264511,-0.016769947283194055,0.67863889135341,-0.905582575136198
1.6114430955140921,0.055031068895004864,-0.016755829685985737,0.662272354961083,-0.9468923650732496
1.6080914219462499,-0.07579393233910992,-0.016760905992436674,0.6459776573800893,-0.988058992449238
1.6047369413895543,-0.20336705590800364,-0.016783899574521297,0.629753578308819,-1.028984283813768
1.6013761988731532,-0.32770231326307453,-0.016823525589488297,0.6135989952419243,-1.06956817447396
1.5980059972691714,-0.44881350150131283,-0.016878490450331393,0.5975128871404776,-1.1097084007539337
1.594623399126854,-0.5667142240993215,-0.016947490972841917,0.5814943388396122,-1.149300173792512
1.5912257287118097,-0.6814179126107334,-0.017029213177601366,0.5655425462745419,-1.1882358325054045
1.5878105743220159,-0.7929378495000705,-0.017122330720336386,0.5496568226188615,-1.2264044731088677
1.5843757909581244,-0.9012871923063557,-0.017225502918577426,0.5338366054439961,-1.2636915523488528
1.580919503432622,-1.006478999353341,-0.017337372336445642,0.5180814650258828,-1.299978461302725
1.5774401100107238,-1.1085262572504107,-0.017456561882538364,0.5023911139447932,-1.3351420663205433
1.5739362866856526,-1.2074419104595933,-0.017581671368173717,0.48676541814701274,-1.369054213352116
1.5704069922023798,-1.303238893240625,-0.01771127346455374,0.47120440966330474,-1.4015811915694314
1.566851473957169,-1.395930164327872,-0.017843908987553718,0.4557083012091326,-1.4325831518502257
1.563269274915648,-1.48552874474138,-0.01797808142765577,0.4402775029259412,-1.461913475351334
1.5596602417099033,-1.5720477591901556,-0.018112250629791757,0.4249126415617917,-1.4894180870920728
1.5560245340955974,-1.6555004815896979,-0.018244825513269593,0.409614582433604,-1.5149347092217371
1.552362635973752,-1.735900385289284,-0.018374155705182485,0.39438445456226495,-1.5382920485118592
1.548675368209104,-1.8132611986880676,-0.018498521941299334,0.379223679425603,-1.559308912668139
1.5449639035083924,-1.8875969670138062,-0.01861612506581462,0.36413400383175626,-1.5777932504096632
1.5412297836583424,-1.9589221211444539,-0.01872507343468531,0.3491175374747409,-1.5935411110767628
1.5374749394653295,-2.027251554471057,-0.018823368495444075,0.3341767957912904,-1.6063355210418468
1.5337017137880196,-2.092600708928863,-0.018908888277654527,0.31931474878678523,-1.6159452767583447
1.529912888112254,-2.1549856714602953,-0.01897936848000339,0.30453487652750244,-1.6221236584013332
1.526111713186409,-2.214423282311941,-0.019032380778443953,0.2898412319889716,-1.6246070744758245
1.5223019443187078,-2.2709312566986384,-0.019065307898568494,0.27523851187801857,-1.623113657588363
1.5184878820404024,-2.324528321472961,-0.0190753148844844,0.2607321358652188,-1.617341846398119
1.514674418967989,-2.3752343684901405,-0.01905931583965105,0.24632833430656864,-1.606969010938691
1.510867093865449,-2.42307062631005,-0.019013935185748794,0.23203424389250257,-1.5916502114858462
1.507072154132914,-2.4680598516569887,-0.01893546213960167,0.21785800957691479,-1.5710172300021024
1.5032966282617526,-2.510226541550942,-0.01881979657200985,0.20380888936263328,-1.5446780853060254
1.499548410248246,-2.549597166055655,-0.01866238356305758,0.1898973556844645,-1.5122173491912607
1.4958363586320114,-2.5862004198936503,-0.018458132599289155,0.17613518269546827,-1.4731977360161321
1.4921704138599878,-2.6200674883588846,-0.018201315120944736,0.16253550195687363,-1.4271636639788825
1.4885617393042456,-2.651232318436641,-0.0178854304364774,0.1491127988207202,-1.3736478103496366
1.4850228938710444,-2.6797318790111575,-0.01750302389553484,0.1358828069244518,-1.312182138713948
1.481568048379366,-2.7056063834573933,-0.017045431021247778,0.12286223753789917,-1.242315494539519
1.4782132648388786,-2.7288994326084435,-0.016502404383626452,0.11006825397261279,-1.1636406493356235
1.4749768691920733,-2.7496580152602945,-0.015861552084427334,0.09751757254589118,-1.0758345353126844
1.4718799668681066,-2.767932277916607,-0.015107471155238904,0.0852250540172107,-0.9787160278692605
1.4689471812000559,-2.783774951132777,-0.014220385525269788,0.07320167814450144,-0.872325153466584
1.466207744806888,-2.7972403136648225,-0.013173978406409402,0.06145194717594227,-0.7570241814688734
1.463697156958225,-2.8083826273808583,-0.011931900080218497,0.049971189984385996,-0.6336114343838523
1.4614597683219905,-2.817254163493331,-0.010441986282126055,0.03874417114032555,-0.5034188633787988
1.459552977996449,-2.8239033994483975,-0.008625916973291636,0.027748188410339443,-0.3683343536250586
1.458054694265343,-2.8283749735561656,-0.006356920337767651,0.0169675526673339,-0.23066260643728048
1.4570799335111726,-2.8307158585805468,-0.0033906872039357315,0.0064412975764454525,-0.09274538712771305
