x,y,v_x,v_y,omega
2.375,32.48,0.0,2.41025641025641,-7.510204081632653
2.3735820257614915,31.979151691742675,-0.013504516557224476,2.359727477908567,-7.104122709650672
2.369507056423399,31.488723231026476,-0.02530471523413518,2.311019767007618,-6.730451194605762
2.3631114024746305,31.008344460135184,-0.03560627475413212,2.264016146242754,-6.3857498813274445
2.354691080897993,30.537668621177634,-0.044587264070987925,2.2186108914482245,-6.067022069054598
2.344507167784794,30.07637012323789,-0.052402384626143494,2.1747081365493277,-5.771647121259654
2.332790338999161,29.624142606907373,-0.05918646095131756,2.1322205904079747,-5.49732523409809
2.319744740653587,29.180697255979304,-0.06505733281605237,2.0910684660498444,-5.2420315456059114
2.3055513027128187,28.745761316057393,-0.0701182666198351,2.0511785808254666,-5.003977786951681
2.2903705870891016,28.319076787579824,-0.0744599774155664,2.0124835951513846,-4.78158006700914
2.2743452444723515,27.90039926682832,-0.07816233322014683,1.9749213643867733,-4.573431677490563
2.2576021406616977,27.48949691328006,-0.08129579830988905,1.938434383691886,-4.378280032716284
2.2402542024612866,27.086149525463753,-0.08392266074164682,1.9029693097967466,-4.19500703352488
2.222402024632975,26.690147710523192,-0.08609808048036825,1.8684765467800257,-4.022612281651447
2.2041352724845935,26.301292135140226,-0.08787098759945651,1.834909885438704,-3.8601986784581435
2.185533909055893,25.919392847452066,-0.08928485457864184,1.8022261877818433,-3.706960027075161
2.1666692712723616,25.5442686612135,-0.09037836240737367,1.7703851097283407,-3.5621703249240397
2.1476050156606172,25.175746594778353,-0.0911859767520952,1.7393488563206563,-3.4251744880948456
2.1283979510962987,24.81366135856555,-0.0917384476699868,1.709081964753674,-3.2953802930466902
2.109098773460043,24.457854885578534,-0.09206324410387548,1.6795511113131343,-3.1722513568209876
2.089752714910154,24.108175900299628,-0.0921849325617371,1.650724938962169,-3.0553010061090107
2.070400118663345,23.764479521910523,-0.09212550788406096,1.6225739028388038,-2.944086909425029
2.051076948644975,23.42662689832004,-0.09190468276708055,1.595070131356289,-2.8382063663373334
2.031815242077209,23.094484867927797,-0.09154014168783578,1.5681873009508118,-2.7372921640135197
2.012643511977086,22.76792564643265,-0.09104776402762536,1.5419005228124834,-2.6410089248846855
1.9935871056036247,22.446826536318724,-0.09044182048152714,1.5161862401772688,-2.549049880535141
1.97466852409705,22.131069656929412,-0.0897351462477547,1.4910221349590653,-2.461134016386831
1.9559363456681136,21.820551798616364,-0.08866655307545053,1.4662908013556548,-2.369721523387021
1.9374335636479092,21.515173501887006,-0.0875504185455432,1.4420739294001326,-2.2826664764420257
1.9191693821055988,21.214828770378993,-0.0863941675716984,1.4183520849619218,-2.199707663529469
1.9011515290829832,20.919415587682074,-0.08520443264368696,1.3951067978658453,-2.1206025341840293
1.8833864143420076,20.62883572135572,-0.08398713631798593,1.3723205004803967,-2.045125651604465
1.8658792707318055,20.342994539339408,-0.08274756473155814,1.3499764711035467,-1.9730672907647844
1.8486342809509901,20.061800837795367,-0.08149043318097078,1.3280587816968181,-1.9042321670916076
1.8316546912757035,19.785166679512596,-0.08021994467890123,1.3065522495676787,-1.838438282080256
1.8149429136442303,19.513007242080434,-0.07893984228750864,1.2854423926434118,-1.7755158737989654
1.7985006173313332,19.24524067511105,-0.07765345593056061,1.264715388017392,-1.7153064616068168
1.782328811306973,18.981787965853627,-0.07636374430144069,1.2443580334818678,-1.657661975614424
1.7664279182522296,18.72257281260002,-0.0750733324104037,1.2243577117905695,-1.6024439624707825
1.750797841097871,18.467521505332883,-0.07378454525015274,1.2047023574202484,-1.5495228599851498
1.7354380228563242,18.216562813113335,-0.07249943800267557,1.1853804256230576,-1.4987773339065755
1.7203475004341184,17.969627877746817,-0.07121982316118765,1.1663808635819104,-1.4500936709004395
1.7055249530379002,17.72665011330333,-0.06994729489803375,1.147693083498921,-1.4033652223937092
1.6909687457215794,17.487565111102324,-0.0686832509716894,1.1293069374630191,-1.3584918945193962
1.6766769685640994,17.252310549803212,-0.06742891243288093,1.1112126939571056,-1.3153796798852306
1.662647471915772,17.02082611027054,-0.06618534136071214,1.0934010158778569,-1.2739402273299012
1.648877898105324,16.79305339490833,-0.06495345683403142,1.0758629399527082,-1.2340904462192916
1.635365709959082,16.568935851181173,-0.06373404932065409,1.0585898574487824,-1.1957521421810002
1.6221082164474694,16.34841869906089,-0.06252779364708572,1.0415734960777256,-1.158851681483282
1.6091025957416822,16.131448862156816,-0.06133526069374452,1.0248059030086956,-1.1233196815389481
1.5963459159346072,15.917974902305435,-0.060156927945065455,1.0082794289092047,-1.0890907252596378
1.5838351536543214,15.707946957411242,-0.05899318901003751,0.9919867129402608,-1.056103097204716
1.5715779758877342,15.501476294929628,-0.05774183733841237,0.9744005487893959,-1.0544649829985246
1.5595793303821979,15.29868549962763,-0.056530977000030166,0.9569403588486655,-1.0552679164229777
1.5478307487488832,15.099548503788618,-0.05536027665058468,0.9396024586657293,-1.0583757897738766
1.5363238431123347,14.904039996945972,-0.05422930084035231,0.9223833207880443,-1.0636566644903696
1.5250503269811695,14.71213539365035,-0.05313751945645862,0.9052795677416943,-1.0709824584825434
1.514002034215736,14.523810802653017,-0.0520843164048137,0.8882879655662287,-1.0802286458411055
1.5031709362465944,14.339042997391385,-0.05106899758701269,0.8714054178778908,-1.0912739676364516
1.4925491576865415,14.157809387668319,-0.05009079822301206,0.8546289604370177,-1.1040001525726357
1.4821289904686723,13.980087992421574,-0.04914888956621894,0.8379557561986523,-1.118291646311122
1.4719029066335767,13.805857413483718,-0.04824238505373893,0.8213830908285586,-1.1340353483201269
1.4618635698801912,13.63509681023638,-0.047370345930885974,0.8049083686699122,-1.1511203551381746
1.452003845986956,13.467785875065399,-0.04653178638563901,0.7885291091489661,-1.169437708965425
1.4423168122027858,13.303904809525598,-0.04572567822550704,0.7722429436110282,-1.188880150513571
1.4327957657008552,13.14343430112542,-0.04495095512621294,0.7560476125811296,-1.2093418750547174
1.423434231182339,12.986355500642478,-0.04420651647870212,0.7399409634468816,-1.230718290611698
1.414225967711964,12.832649999881312,-0.043491230858203035,0.7239209485642258,-1.2529057772266998
1.4051649748625317,12.682299809784105,-0.04280393913638884,0.7079856237901319,-1.2758014462317586
1.3962454982414263,12.535287338803908,-0.042143457255092755,0.6921331474498253,-1.2993028984235264
1.3874620344685051,12.391595371447938,-0.041508578677490075,0.6763617797498866,-1.3233079800154715
1.3788093356717022,12.251207046895676,-0.04089807653015627,0.6606698826525962,-1.3477145352031412
1.3702824135641092,12.11410583759287,-0.04031070544691991,0.6450559202312783,-1.372420154132034
1.3618765431642752,11.980275527717815,-0.03974520312292744,0.6295184595311669,-1.3973219150027145
1.3535872662199637,11.849700191410658,-0.03920029158480003,0.6140561719655608,-1.422316118983852
1.3454103943946425,11.722364170649577,-0.03867467818016422,0.5986678352828292,-1.4472980165306517
1.3373420122755746,11.598252052649524,-0.038167056287149954,0.5833523361462531,-1.4721615236236394
1.3293784802625515,11.477348646649705,-0.037676105741642395,0.5681086733758481,-1.4967989263510366
1.321516437397082,11.359638959944764,-0.03720049297711335,0.5529359619093012,-1.5211005721574284
1.3137528041932707,11.245108173001736,-0.036738870868709195,0.5378334375481009,-1.5449545459728833
1.3060847855337174,11.133741613489864,-0.03628987826989293,0.5228004625649484,-1.5682463293215403
1.298509873696619,11.025524729033272,-0.03585213922628327,0.507836532259747,-1.5908584403892272
1.2910258515838875,10.920443058476778,-0.03542426184734964,0.4929412825640064,-1.6126700529094065
1.2836307962246298,10.818482201432772,-0.03500483681224787,0.47811449880748197,-1.633556591610923
1.2763230826338132,10.719627785851465,-0.03459243548124276,0.46335612577641233,-1.6533893018672665
1.2691013881125115,10.623865433327904,-0.03418560757877324,0.44866627920988267,-1.6720347911063957
1.2619646970838834,10.531180721826402,-0.03378287840816224,0.4340452588996411,-1.6893545394982357
1.2549123065681589,10.441559145466144,-0.033382745551118406,0.4194935635790268,-1.7052043774559305
1.247943832410571,10.354986070970476,-0.03298367499733886,0.4050119078082774,-1.719433927597907
1.2410592163886018,10.271446690336592,-0.03258409664046124,0.39060124108584554,-1.731886009064411
1.2342587343394233,10.190925969231632,-0.03218239906599987,0.37626276943757175,-1.7423960025253444
1.227543005465344,10.11340859056629,-0.03177692354427952,0.3619979797561388,-1.750791174941024
1.2209130029949542,10.038878892638014,-0.031365957126099846,0.34780866717982073,-1.7568899642625746
1.214370066401115,9.967320801174239,-0.030947724719987125,0.33369696580849645,-1.7605012259495956
1.2079159154048822,9.898717754544023,-0.030520380006039516,0.3196653830507021,-1.7614234456705953
1.201552666028145,9.833052621347363,-0.030081995010503963,0.30571683786986875,-1.759443926159134
1.195282848998994,9.770307609541483,-0.029630548124267235,0.291854703138526,-1.754337961376658
1.1891094308652068,9.710464166231148,-0.02916391029275222,0.27808285219800993,-1.745868018512084
1.1830358382366128,9.653502867249546,-0.028679829027190063,0.26440570953151427,-1.7337829588096223
1.1770659856621732,9.599403295707834,-0.028175909776997236,0.25082830515147697,-1.717817342990826
1.1712043077610514,9.54814390882558,-0.027649594043210872,0.23735633182236582,-1.6976908878387449
1.1654557963818701,9.49970189261602,-0.027098133377564053,0.2239962035067669,-1.6731081697182393
1.1598260437808954,9.454053004453918,-0.026518558060290198,0.21075511232276395,-1.6437587116854642
1.1543212931190698,9.411171404294066,-0.02590763871900078,0.19764107967583822,-1.6093176478250828
1.1489484980276015,9.371029476467346,-0.025261838342603708,0.184662994864359,-1.569447237425666
1.1437153936565843,9.333597645743733,-0.024577250905178444,0.1718306310748224,-1.523799610064315
1.138630582616203,9.298844193966826,-0.02384952090797564,0.1591546239433454,-1.4720212695433608
1.1337036407239058,9.266735087354473,-0.023073735209142077,0.14664639141239383,-1.4137600790498843
1.1289452497581831,9.237233829907055,-0.02224427398821807,0.13431796522969017,-1.3486756977652232
1.1243673679091517,9.210301365650817,-0.02135460076446181,0.12218169435351794,-1.2764547346516915
1.1199834539381919,9.185896061875571,-0.020396960863727314,0.11024977017263092,-1.196832192744002
1.1158087691448093,9.163973816731875,-0.01936194193039329,0.0985335169101765,-1.1096209958095598
1.1118607934414813,9.14448834573966,-0.018237826672731886,0.08704239730139987,-1.014751287613807
1.1081598101216157,9.127391708135441,-0.01700963351646395,0.07578272273876667,-0.9123203129786919
1.1047297413162027,9.11263512514057,-0.01565768843984942,0.06475616292667939,-0.802651239330004
1.1015993584142871,9.10017009852939,-0.014155482054584159,0.053958376227413424,-0.6863541704548535
1.0988040634363185,9.089949726665662,-0.012466374878450183,0.04337849866524536,-0.5643739946429625
1.0963885849298705,9.08192988650848,-0.010538182325817684,0.03300093140316165,-0.4379985642295384
1.0944113241530604,9.076069511244569,-0.008292872691419949,0.022812166348383227,-0.3087921268793663
1.0929524440478535,9.072328196878129,-0.005601223548645905,0.01281939904628521,-0.17842203928889325
1.0921345670149536,9.070655311544524,-0.00218808152659158,0.0031128422261295537,-0.0483788118420265
