x,y,v_x,v_y,omega
2.375,32.48,0.0,4.0,-6.530612244897959
2.373200883824375,31.73055077810486,-0.018938065006574946,3.888939177843564,-6.023360172244262
2.368121577795511,31.001668177073558,-0.03452831424463025,3.783509254064858,-5.575818886388765
2.3603438233857523,30.29232548512134,-0.04734278480546072,3.683255924379539,-5.17897929195883
2.350350738738865,29.601577413403245,-0.0578475798986145,3.5877764094951563,-4.825431348770506
2.338544896186185,28.92855105455891,-0.06642444697170184,3.496711578339935,-4.5090417458892755
2.3252627594864603,28.272438190410988,-0.07338751828855844,3.409739623217144,-4.224704045418954
2.3107862866730224,27.63248868936757,-0.07899640606341823,3.3265709140819824,-3.9681433161692503
2.2953523085244525,27.008004795079316,-0.08346652181626572,3.246943762636514,-3.735762163746499
2.2791601489971622,26.398336152267028,-0.08697726268152818,3.1706208985454674,-3.5245185040887526
2.262377847255596,25.802875448415893,-0.08967854512442922,3.0973865104138385,-3.331827885143172
2.245147260828519,25.221054574617483,-0.09169604884480229,3.0270437400957193,-3.15548493983067
2.227588268698482,24.652341227540724,-0.09313544726085238,2.9594125449228255,-2.9935998554036964
2.2098022467078398,24.09623588892603,-0.09408583685117144,2.8943278615475982,-2.844546707487568
2.1918749518964487,23.552269130244227,-0.09462252958452243,2.8316380193134862,-2.706921226477837
2.173878924633422,23.019999199040388,-0.09480933634207493,2.771203361779581,-2.579506105956836
2.1558754957329596,22.499009850567425,-0.0947004415575304,2.712895043198966,-2.461242374415322
2.1379164687195793,21.988908394023333,-0.09434194805699926,2.6565939730546178,-2.351205666497883
2.1200455339606656,21.489323927349226,-0.09377315466840634,2.6021898866728255,-2.2485864726056204
2.102299460707893,20.99990573835368,-0.0930276164134116,2.5495805238066316,-2.152673633793559
2.084709104571924,20.520321853076723,-0.09213402712310417,2.498670900161295,-2.062840495618409
2.067300261129358,20.050257714927476,-0.0911169564828541,2.4493726593044824,-1.9785332496777666
2.050094390867734,19.5894149803253,-0.08999746732371489,2.4016034944026154,-1.899261082336802
2.0331092362354903,19.137510418425904,-0.08879363406832289,2.355286630854211,-1.8245878220686618
2.016359347962935,18.694274904083002,-0.08752097932699478,2.3103503622289394,-1.7541248341187219
1.9998565348885067,18.259452494533694,-0.08619284250909302,2.2667276330269583,-1.6875249570313509
1.9836102491291823,17.832799581440316,-0.08482069179958661,2.2243556626928007,-1.624477312401835
1.9676279164700932,17.4140841109062,-0.08341438882240289,2.1831756060873806,-1.5647028489283412
1.9519152202332686,17.00308486493238,-0.0819824136704862,2.1431322462686118,-1.5079505059087037
1.936476345552906,16.599590798518967,-0.08053205664912252,2.104173715977826,-1.4539939009007734
1.9213141898819481,16.203400427255207,-0.07906958199253672,2.0662512446933325,-1.4026284622416807
1.9064305446397354,15.814321260801062,-0.07760036792549459,2.0293189285081814,-1.3536689402081277
1.8918262521490572,15.432169278152127,-0.07612902671322178,1.9933335204279814,-1.3069472413562582
1.8775013413756365,15.056768441008778,-0.0746595077438387,1.9582542389756885,-1.26231053944995
1.8634551454516046,14.687950241948165,-0.07319518619333708,1.9240425932412815,-1.2196196237247052
1.8496864035188718,14.325553284430764,-0.07173893941437708,1.8906622227313579,-1.1787474513240301
1.8361933490536428,13.969422891967888,-0.07029321285119174,1.8580787505620968,-1.1395778758139128
1.8229737865176832,13.619410744037705,-0.06886007700101393,1.826259648703006,-1.1020045279121318
1.8100251579153765,13.275374536569334,-0.06744127670747845,1.7951741141219626,-1.065929828111046
1.7973446006100302,12.93717766502106,-0.06603827387511511,1.76479295480725,-1.0312641138455754
1.784928997561582,12.60468892826292,-0.06465228452960281,1.7350884847521097,-0.9979248663602726
1.7727750209852813,12.277782251638502,-0.06328431101040417,1.7060344270838552,-0.9658360245407256
1.7608791702924989,11.956336427728093,-0.061935169966254096,1.6776058246046637,-0.9349273747605218
1.74923780505673,11.640234873467456,-0.06060551672604637,1.6497789570862595,-0.9051340073094841
1.737847173646938,11.32936540239518,-0.05929586653492276,1.6225312647271606,-0.8763958312561771
1.7267034380839652,11.023620010908292,-0.0580066130753208,1.595841277240059,-0.8486571406943813
1.7158026956016446,10.722894677502008,-0.05673804463331648,1.5696885480892298,-0.8218662262596838
1.7051409973305702,10.427089174056313,-0.05549035822009853,1.544053593444406,-0.7959750266036958
1.6947143644676967,10.136106888310486,-0.05426367191541214,1.5189178354590434,-0.7709388152006335
1.6845188022477349,9.849854656737673,-0.05305803566313287,1.4942635495179313,-0.7467159184515924
1.674559297180651,9.56824421653958,-0.051778859779855094,1.4700568736198962,-0.7207284633164214
1.6648398059177896,9.29119034872054,-0.05053157456605417,1.4462996297383917,-0.6958811679580581
1.6553543314980046,9.018609135491015,-0.049315524589578795,1.4229762989934567,-0.6721108782901695
1.6460970035656566,8.750419542851468,-0.04813003259303066,1.4000720445807364,-0.6493586010964141
1.6370620819489252,8.48654329458591,-0.04697440547782713,1.377572674004089,-0.6275691861416798
1.6282439591815558,8.2269047531951,-0.045847939441848215,1.3554646037939087,-0.6066910358188717
1.6196371621184622,7.971430807315173,-0.044749924380192964,1.333734826521101,-0.5866758396702209
1.611236352776132,7.720050765202018,-0.04367964764433414,1.3123708799331752,-0.5674783314053463
1.6030363285118696,7.472696253893254,-0.042636397242636535,1.2913608180538265,-0.5490560662886974
1.5950320216411393,7.229301123688558,-0.041619464554524706,1.2706931841008673,-0.5313692169906374
1.5872184985794342,6.989801357615466,-0.04062814662132135,1.2503569850895544,-0.5143803861928946
1.579590958583879,6.754134985572016,-0.03966174806873355,1.230341667999407,-0.4980544344134741
1.5721447321599968,6.522242002859773,-0.03871958270897195,1.2106370973926315,-0.4823583216710981
1.564875279190526,6.294064292841245,-0.03780097486440606,1.1912335343813631,-0.4672609617471441
1.557778186835718,6.069545553474342,-0.03690526044936281,1.1721216168492032,-0.4527330879259221
1.5508491672480327,5.848631227493861,-0.03603178784206107,1.1532923408400537,-0.4387471292037416
1.5440840551384452,5.631268436025817,-0.03517991857465035,1.1347370430341033,-0.42527709605511654
1.5374788052266013,5.4174059154350545,-0.034349027865809734,1.116447384237069,-0.4122984749319966
1.5310294896027061,5.206993957220156,-0.033538505017295626,1.0984153338144966,-0.3997881307502784
1.5247322950252142,4.999984350782007,-0.03274775369314629,1.080633155008138,-0.3877242166880875
1.5185835201750641,4.7963303289039985,-0.031976192097906656,1.063093391076183,-0.37608609068333587
1.5125795728842855,4.595986515792429,-0.03122325306818585,1.045788852203486,-0.3648542380746616
1.5067169673542518,4.398908877535565,-0.030488384090063873,1.0287126031319247,-0.35401019988074733
1.500992321376633,4.205054674848885,-0.029771047253290873,1.0118579514646877,-0.3435365062588219
1.4954023535681453,4.014382417982581,-0.029070719151843918,0.9952184366016517,-0.33341661472441925
1.4899500940003607,3.827052206589048,-0.028321486824835828,0.9766785254355393,-0.36575706456161183
1.4846356331108606,3.643234357132357,-0.02762020674884781,0.9582462056875307,-0.39952686537397364
1.4794499952806845,3.4629086925391697,-0.02696545462142672,0.9399186847670616,-0.434619771839764
1.474384477631291,3.2860555559863087,-0.026355783793240238,0.9216932789472482,-0.47093151881926826
1.4694306539194422,3.112655790540799,-0.02578972896306726,0.9035674099528338,-0.5083595876072314
1.4645803777667115,2.9426907194124894,-0.025265809486729275,0.885538601924121,-0.5468029755058517
1.4598257852945573,2.7761421267482973,-0.024782532325417685,0.8676044787515819,-0.5861619677267054
1.4551592972313174,2.6129922388979345,-0.024338394656056382,0.8497627617785658,-0.6263379106223341
1.4505736205534476,2.453223706081097,-0.023931886163626855,0.8320112678723495,-0.6672329852327142
1.4460617497197918,2.296819584385883,-0.023561491032750303,0.8143479078667354,-0.7087499801081167
1.4416169675546224,2.143763318027201,-0.023225689653243474,0.7967706853825522,-0.7507920623375062
1.4372328458326415,1.9940387217924602,-0.022922960051817313,0.7792776960357786,-0.7932625456700917
1.4329032456170623,1.8476299635996298,-0.022651779059544314,0.761867127046664,-0.8360646545662981
1.4286223174003008,1.7045215470898114,-0.02241062322215482,0.7445372572672097,-0.8791012829525313
1.4243845010957235,1.5646982941727927,-0.02219796945760593,0.7272864576487652,-0.9222747463808153
1.4201845259282972,1.4281453274394025,-0.02201229546266879,0.7101131921763801,-0.9654865262087166
1.4160174102719343,1.2948480523489572,-0.021852079867467927,0.6930160193019947,-1.008637004315871
1.4118784614818,1.1647921390933718,-0.021715802133944362,0.6759935939146842,-1.051625186759693
1.4077632757709244,1.0379635040316337,-0.021601942191063154,0.6590446698930819,-1.0943484146432003
1.403667738182134,0.9143482905789604,-0.021508979796202542,0.6421681032929539,-1.1367020603209612
1.3995880227086877,0.793932849424106,-0.021435393608498044,0.6253628562318191,-1.1785792069035568
1.3955205926200682,0.6767037179355277,-0.021379659955916803,0.6086280015426984,-1.2198703088352585
1.391462201053279,0.5626475986023003,-0.02134025127344511,0.5919627282807381,-1.2604628311125579
1.3874098919347344,0.45175133633854614,-0.021315634184917505,0.5753663481798118,-1.3002408644817007
1.383361001303583,0.34400189446016327,-0.021304267195622246,0.5588383031715505,-1.3390847137008528
1.379313159114103,0.23938632911966096,-0.021304597956798114,0.542378174096874,-1.3768704556770537
1.3752642916028501,0.1378917619582225,-0.02131506005639154,0.5259856907603412,-1.4134694639909875
1.3712126243156215,0.03950535070340777,-0.0213340692828563,0.5096607435008805,-1.4487478960068003
1.3671566859002295,-0.05578574259469349,-0.021360019300217584,0.49340339647911025,-1.482566138435427
1.3630953127837302,-0.14799438603684223,-0.021391276662932283,0.4772139029119167,-1.5147782068877418
1.3590276548673847,-0.23713351545283956,-0.021426175088073426,0.4610927225196519,-1.5452310946336787
1.3549531823894843,-0.3232161755338083,-0.021463008889825927,0.4450405414905794,-1.573764065499026
1.3508716941255925,-0.40625556502998705,-0.021500025466928932,0.42905829531127654,-1.6002078856188287
1.3467833271181011,-0.48626508659631185,-0.021535416717190312,0.4131471948605844,-1.624383988678832
1.3426885681527303,-0.5632584019487723,-0.021567309234080338,0.3973087562179531,-1.6461035693932993
1.3385882672292753,-0.6372494930853634,-0.021593753118078637,0.381544834693532,-1.6651666004050125
1.334483653308197,-0.7082527304275104,-0.02161270920906074,0.36585766364482936,-1.6813607687210401
1.3303763526544716,-0.7762829488501879,-0.021622034514363658,0.3502498986991191,-1.6944603294634852
1.3262684101466007,-0.8413555326908835,-0.021619465568487484,0.33472466804504414,-1.7042248774785373
1.322162313973456,-0.9034865109557302,-0.02160259941198276,0.31928562947962885,-1.7103980417351472
1.3180610242069135,-0.962692664069877,-0.021568871814780715,0.30393703487983526,-1.71270611422246
1.3139680058172925,-1.0189916436382447,-0.02151553228649349,0.288683802681904,-1.7108566353404921
1.309887266796331,-1.0724021067744403,-0.02143961530257334,0.2735315987517581,-1.7045369732040268
1.305823402176281,-1.1229438665921947,-0.02133790701374297,0.25848692564564724,-1.6934129572315892
1.3017816448954056,-1.1706380603890452,-0.021206906469153835,0.24355721958435997,-1.677127660356506
1.297767924678383,-1.2155073368161737,-0.02104278002581946,0.22875095333278214,-1.6553004742612296
1.2937889364049724,-1.257576062810287,-0.020841307062713567,0.21407774134208254,-1.6275266955841452
1.2898522198809999,-1.2968705500953988,-0.02059781424226101,0.19954844060648713,-1.593377948709153
1.28596625358319,-1.3334192993895755,-0.020307094155737414,0.18517523617429563,-1.5524039275787618
1.2821405659576073,-1.3672532576969871,-0.019963301903028457,0.17097169337743282,-1.50413616569698
1.2783858694330175,-1.3984060796847473,-0.019559819408444402,0.15695274859895678,-1.4480948671719411
1.2747142248351713,-1.4269143773825164,-0.01908907109519961,0.14313459558811892,-1.3838002840258767
1.2711392479687202,-1.452817932334213,-0.01854226434112736,0.1295344039034401,-1.3107907341429879
1.2676763767785566,-1.476159829815309,-0.017909011344806273,0.11616978010808698,-1.2286501196033484
1.264343228350719,-1.4969864551166623,-0.017176761579798982,0.10305785464298209,-1.1370486351263438
1.2611600926846283,-1.5153472681100908,-0.016329929642208245,0.09021386107734211,-1.0358009286711478
1.2581506387942123,-1.5312942497804016,-0.015348532362170254,0.07764910387327373,-0.924945463373427
1.255342954892652,-1.5448809089250304,-0.014206035022675912,0.06536836080703118,-0.8048454600622832
1.252771120082726,-1.5561607850381307,-0.012865910344965502,0.05336717722558591,-0.6763024691666927
1.2504776384868754,-1.5651855549032732,-0.011276001190304249,0.04163040030220333,-0.5406545927012468
1.2485173523904975,-1.5720032661967807,-0.009358589297884919,0.030134981734730597,-0.3998024761904606
1.2469642827510223,-1.5766581196513911,-0.006989512170274413,0.0188634756821916,-0.2560797040290294
1.2459263316762745,-1.5791956551754325,-0.003936288616543625,0.007847424570885149,-0.11188889873740451
