x,y,v_x,v_y,omega
2.375,32.48,0.0,2.3076923076923075,-2.1224489795918373
2.3746042169227,32.00022938006497,-0.0037693626409508072,2.2615516916888936,-2.0123737608893926
2.3734658404848976,31.529994089537983,-0.0070723177190742835,2.216879646663375,-1.9106255234702085
2.371677126544585,31.068993725838105,-0.00996305314104454,2.173600007621191,-1.8163736232945775
2.3693196668971837,30.616943324308412,-0.01248894350087523,2.1316419117092016,-1.7288861271058686
2.3664657211520304,30.173572294700172,-0.014691492167249968,2.090939322654985,-1.6475164324681382
2.363179365767537,29.73862345190672,-0.016607130542210254,2.0514306087112266,-1.5716919112909384
2.3595174877589433,29.31185213048822,-0.018267898111062157,2.013058166703058,-1.5009042400470962
2.3555306460777805,28.893025373954043,-0.01970202266191837,1.975768086003392,-1.4347011410228172
2.351263819951481,28.481921190962204,-0.020934416636172137,1.939509847252228,-1.3726793080491917
2.346757060410116,28.078327871599335,-0.021987102805401053,1.9042360514417613,-1.314478329800191
2.3420460586922536,27.68204335775481,-0.022879580221858997,1.8699021756489482,-1.2597754558737477
2.337162643115727,27.29287466232637,-0.023629139554583206,1.8364663522409461,-1.208281077029363
2.3321352142434435,26.910637332613952,-0.024251135419544375,1.8038891688297087,-1.159734812333296
2.326989126706427,26.535154953790883,-0.02475922207585284,1.7721334866280776,-1.1139021134998373
2.3217470248152785,26.166258688801552,-0.025165557839844765,1.7411642751750933,-1.0705713111559338
2.3164291380560376,25.80378685143343,-0.025480982724357035,1.7109484616641617,-1.0295510396847332
2.3110535416935094,25.447584509658725,-0.0257151731092421,1.6814547933330124,-0.9906679871902583
2.3056363869671985,25.09750311664431,-0.02587677666515053,1.6526537115661875,-0.9537649253455924
2.300192104739549,24.753400167094757,-0.025973530264843687,1.624517236524799,-0.9186989807421387
2.294733585924919,24.415138876827445,-0.026012363207820615,1.597018861259119,-0.885340115090977
2.2892723415752854,24.082587883685235,-0.025999487741071196,1.5701334543809553,-0.8535697864359838
2.2838186451126155,23.755620968075068,-0.025940478570073894,1.5438371704778107,-0.8232797675822608
2.2783816588676484,23.434116791582987,-0.02584034281056267,1.5181073675420227,-0.7943711013529811
2.2729695468018547,23.117958652260484,-0.02570358162556811,1.4929225307675396,-0.7667531751697471
2.2675975261664996,22.80703516082282,-0.02545851966352862,1.468253578162557,-0.7383021048267296
2.26227905723849,22.501239069870515,-0.02519356536513525,1.4440901451927783,-0.7112044104630583
2.257018032030439,22.200466169403526,-0.02491143661629974,1.4204136687785007,-0.685379278103319
2.2518178018260255,21.904616055579606,-0.024614565330498172,1.3972064628779033,-0.6607516321821657
2.246681234088058,21.61359195199349,-0.024305127412050726,1.3744516665136521,-0.6372516638361091
2.2416107634207405,21.327300541485286,-0.02398506941954285,1.3521331954692473,-0.6148144031120626
2.2366084372384405,21.045651807738892,-0.023656132316648332,1.3302356973535787,-0.5933793305346378
2.231675956717041,20.76855888599192,-0.02331987264905732,1.3087445097604384,-0.5728900239950292
2.2268147135372542,20.495937922233196,-0.02297768144415191,1.2876456212750291,-0.5532938373802782
2.2220258228707923,20.22770794031359,-0.022630801093583144,1.266925635102163,-0.5345416077615238
2.21731015300901,19.96379071644119,-0.022280340447200692,1.2465717351111738,-0.5165873883109936
2.2126683519885377,19.70411066057288,-0.02192728831920242,1.2265716541108307,-0.49938820442637666
2.208100871528771,19.448594704251924,-0.021572525583336135,1.206913644183969,-0.4829038308133534
2.203607988561154,19.19717219447534,-0.021216836013014776,1.1875864489263714,-0.46709658751715816
2.19918982459938,18.949774793206053,-0.02086091600388368,1.1685792774477868,-0.45193115310620663
2.1948463631724353,18.706336382173504,-0.020505383300348984,1.1498817800050471,-0.4373743933985424
2.190577465518378,18.46679297263242,-0.020150784833534757,1.1314840251481666,-0.4233952042881928
2.1863828847154454,18.23108261977349,-0.019797603765821018,1.1133764782701914,-0.409964367376109
2.1822622784082726,17.999145341501762,-0.01944626582630029,1.0955499814605443,-0.3970544172414847
2.178215220270253,17.770923041318582,-0.019097145011982154,1.0779957345697448,-0.3846395193058894
2.174241210328268,17.546359435061675,-0.01875056872120631,1.0607052774007915,-0.3726953573465469
2.1703396842628147,17.325399981274927,-0.01840682237834963,1.0436704729492223,-0.3611990298077428
2.1665100217848354,17.107991814995156,-0.01806615360240674,1.0268834916200076,-0.3501289541420732
2.162751554180123,16.894083684757778,-0.017728775966277793,1.0103367963550174,-0.3394647784872007
2.15906357110287,16.68362589263646,-0.017394872388517384,0.9940231286099137,-0.3291873000499725
2.1554476574089727,16.476707807739498,-0.017042400886692285,0.9766252989801958,-0.34532160643626836
2.151903270130396,16.27343113073586,-0.016713668433085794,0.9593430534353931,-0.36339047579771494
2.148425405683827,16.073771927512986,-0.016408850105666707,0.9421731677348328,-0.38328302390664915
2.145009035346578,15.877706927905272,-0.016128010249088675,0.9251125428148373,-0.4048913483136912
2.141649127537073,15.685213499952276,-0.015871111746194204,0.9081581995946401,-0.4281102937491187
2.1383406682244575,15.496269625205358,-0.015638024564433372,0.891307274185528,-0.45283722468108734
2.135078679614187,15.310853874999808,-0.015428533628614266,0.8745570134863654,-0.4789718041452552
2.1318582372461323,15.128945387612887,-0.015242346067148721,0.8579047711509855,-0.5064157779816265
2.128674485632208,14.950523846230936,-0.015079097874984864,0.8413480039152285,-0.5350727636298835
2.1255226525519015,14.775569457651102,-0.014938360032695708,0.824884268273665,-0.5648480426441118
2.122398062116111,14.604062931645043,-0.014819644117691514,0.808511217498314,-0.5956483560916058
2.119296146702531,14.435985460913354,-0.014722407440214682,0.7922265989939576,-0.6273817019982467
2.1162124578592767,14.271318701560354,-0.014646057733633321,0.7760282519870023,-0.6599571339946005
2.1131426762675627,14.110044754019256,-0.01458995742554743,0.7599141055472681,-0.6932845603021491
2.1100826208489805,13.952146144357606,-0.01455342751333482,0.7438821769446333,-0.727274542177625
2.1070282570982584,13.797605805892179,-0.014535751064967753,0.7279305703451543,-0.7618380909048955
2.1039757047183008,13.646407061041248,-0.014536176363200759,0.7120574758541673,-0.7968864623877652
2.100921244630768,13.498533603340277,-0.01455391970854009,0.6962611689169895,-0.832330948352898
2.09786132543253,13.353969479544414,-0.014588167893729811,0.6805400100912345,-0.8680826631191806
2.094792569365909,13.212699071737944,-0.014638080359801567,0.6648924452084877,-0.9040523248275278
2.091711777868824,13.074707079366593,-0.014702791041006294,0.6493170059472188,-0.940150029952579
2.088615936769688,12.939978501103578,-0.014781409903146225,0.6338123108434155,-0.9762850198340363
2.085502221191281,12.80849861645411,-0.014873024176921941,0.6183770667705809,-1.0123654378695819
2.082368000227793,12.680252966995909,-0.014976699284866737,0.6030100709265566,-1.0482980759023024
2.079210841459874,12.555227337144643,-0.015091479457220487,0.5877102133712101,-1.0839881082122245
2.076028515373857,12.433407734323183,-0.01521638802865496,0.5724764801665007,-1.1193388113827665
2.0728189997534225,12.314780368401909,-0.015350427404055074,0.557307957178947,-1.154251268157473
2.0695804841148555,12.199331630263625,-0.015492578677533096,0.542203834614243,-1.188624053229273
2.066311374260848,12.087048069330816,-0.015641800884446368,0.5271634123648908,-1.222352898712788
2.0630102970325406,11.977916369874734,-0.015797029861337374,0.5121861062644611,-1.2553303368393987
2.059676105345349,11.871923325904511,-0.015957176683342355,0.4972714553567103,-1.2874453171848834
2.0563078836011215,11.76905581441008,-0.016121125642635813,0.4824191303045404,-1.3185827954914457
2.052904953577541,11.669300766704389,-0.016287731724794745,0.4676289430830066,-1.348623290882166
2.0494668809055288,11.572645137577805,-0.016455817532465215,0.4529008581225684,-1.3774424079908216
2.0459934822569075,11.479075871940076,-0.016624169597262827,0.43823500509390223,-1.4049103202510915
2.04248483337801,11.388579868582028,-0.016791534011282354,0.4236316935541682,-1.4308912103184421
2.0389412781204577,11.301143940639609,-0.016956611298743783,0.40909142970695683,-1.455242663354023
2.035363438638316,11.216754772286112,-0.01711805043593511,0.3946149355644385,-1.4778150087107056
2.0317522269416317,11.13539887111359,-0.017274441913442126,0.38020317084052113,-1.4984506054686506
2.028108858020297,11.057062515590815,-0.01742430971831736,0.36585735794781254,-1.5169830673328444
2.024434864779914,10.9817316969019,-0.017566102094851103,0.3515790105180593,-1.533236422717656
2.0207321150633226,10.90939205437655,-0.01769818092030645,0.33736996591383134,-1.5470242065343225
2.01700283106862,10.84002880361982,-0.0178188095054353,0.3232324222455041,-1.558148481456241
2.013249611517817,10.773626656337118,-0.0179261385974469,0.3091689804468898,-1.5663987885395585
2.0094754569811357,10.71016973073159,-0.018018190323328354,0.2951826919866999,-1.571551030422514
2.0056837988222895,10.64964145123027,-0.01809283976091909,0.2812771127877701,-1.5733662954965753
2.0018785323026886,10.592024436181184,-0.01814779375908851,0.2674563638701979,-1.5715896392786464
1.9980640544713781,10.537300372069861,-0.01818056653910964,0.25372519909479013,-1.5659488509425639
1.9942453075788893,10.48544987275358,-0.018188451484593797,0.2400890801078791,-1.5561532503741282
1.9904278288965438,10.436452322241905,-0.018168488347268773,0.22655425809856694,-1.5418925867939133
1.9866178080131462,10.39028569972032,-0.018117424827945296,0.21312786115463683,-1.5228361477204686
1.9828221529425252,10.34692638590949,-0.018031671082730766,0.19981798466277773,-1.498632242289325
1.979048566746972,10.306348950612211,-0.017907245065395757,0.18663378007322964,-1.468908303559255
1.9753056369270297,10.268525922629784,-0.01773970560072054,0.1735855340451229,-1.4332719715762399
1.9716029406521431,10.233427545435536,-0.017524068445817907,0.16068472494772318,-1.3913136880775412
1.967951170182757,10.201021525519547,-0.017254697929288118,0.14794403615694643,-1.342611575318693
1.9643622848497273,10.171272785788382,-0.01692516238527975,0.13537729461604897,-1.2867397106753427
1.9608496991865598,10.144143244637554,-0.016528034406792274,0.12299928777280217,-1.2232813707133974
1.9574285220365923,10.119591653275172,-0.01605460511670768,0.11082539186893088,-1.1518494147124032
1.9541158699578485,10.097573540392013,-0.015494462299899635,0.0988709213040245,-1.0721166688012194
1.9509312920791735,10.078041334244414,-0.01483485083033846,0.08715008962549618,-0.9838597831388809
1.947897365988228,10.060944754684584,-0.014059683369144179,0.07567447761097325,-0.8870200818024431
1.9450405604525853,10.046231581740727,-0.013147988398880095,0.06445097899717976,-0.7817833103048505
1.9423925196178442,10.033848888660966,-0.01207144812246412,0.053479431286276385,-0.6686748220887717
1.9399920231768026,10.023744725699444,-0.010790422744597806,0.042750692156776834,-0.5486545932067421
1.937888070546924,10.015869966735178,-0.009247221349485888,0.03224701226482256,-0.4231754289479127
1.936145021535417,10.010179427256855,-0.0073532454267696366,0.021948601814439493,-0.294142459055456
1.9348524124584077,10.006629974186314,-0.00495731721141501,0.011855713143088935,-0.16370053983082564
1.9341511268143015,10.005167853236504,-0.0017215936848339998,0.002069248283671457,-0.03381717455859842
