x,y,v_x,v_y,omega
2.375,32.48,0.0,3.3846153846153846,-5.551020408163265
2.373580547959477,31.811655269310542,-0.014194520405231887,3.2988319222791733,-5.163563400859219
2.3695494782445032,31.160079422413833,-0.026116176744504283,3.2169265466879002,-4.81682929936676
2.363326329876626,30.524525029741007,-0.03611530693426902,3.1386173800403867,-4.505293864961557
2.355266436626822,29.90429815393205,-0.04448362556376896,3.063651378049166,-4.224318028432267
2.3456715699477377,29.29875298171551,-0.05146504122707439,2.9918003441162244,-3.9699863080151396
2.334798638747076,28.707287181716804,-0.057264270779546274,2.922857655870835,-3.738978224038565
2.3228668371434384,28.12933786129794,-0.06205374525682632,2.8566355483177857,-3.528465252617398
2.3100635446344273,27.56437802273399,-0.06597917983328669,2.792962837321755,-3.33602771268337
2.2965492175417888,27.011913439452282,-0.06916409109309823,2.7316829954953126,-3.159587330300794
2.282461460517502,26.471479888585982,-0.07171347914976976,2.6726525131676615,-2.9973522195017632
2.2679184282940366,25.942640688040864,-0.07371684308488145,2.6157394922835335,-2.8477717607064923
2.253021677868206,25.424984495574158,-0.07525066117342663,2.560822432383547,-2.7094994161004804
2.2378585678312963,24.918123334702578,-0.07638043919566756,2.5077891763322153,-2.5813619452543657
2.2225042830603825,24.421690818074858,-0.07716240851347107,2.456535989945005,-2.4623338087607163
2.207023548322502,23.93534054361465,-0.07764493886533472,2.4069667546570903,-2.351515797900867
2.191472082655012,23.4587446425233,-0.0778697178095686,2.358992256256391,-2.248117122666751
2.175897837020358,22.99159246132281,-0.07787273853697127,2.312529555748504,-2.151440342313624
2.1603420501939468,22.533589362664692,-0.07768512972713623,2.26750143083268,-2.0608686419967213
2.1448401517467683,22.08445563174198,-0.07733385474464777,2.223835878394441,-1.9758550534169173
2.1294225360331756,21.643925476905338,-0.07684230239128297,2.1814656699719817,-1.895913292396359
2.114115227057551,21.21174611456686,-0.07623078736496068,2.1403279534127897,-1.8206099461975014
2.0989404507901948,20.78767692972893,-0.07551697530860217,2.1003638949665207,-1.7495577914531433
2.0839171287898464,20.371488704541505,-0.07471624469488289,2.061518356907723,-1.6824100623016716
2.0690613047547446,19.962962908202307,-0.073841995656134,2.0237396064842472,-1.6188555196626884
2.05438651377603,19.56189104229663,-0.07290591413100975,1.9869790525725286,-1.5586141980539066
2.0399041025347837,19.168074036348216,-0.07191819828145701,1.9511910069116196,-1.5014337271213414
2.025623507409403,18.781321688936913,-0.07088775297234765,1.9163324672013833,-1.4470861420590566
2.011552496396942,18.401452150246726,-0.06982235715226377,1.8823629197004879,-1.3953651110641676
1.9976973798629216,18.028291442350895,-0.06872880818793856,1.84924415925785,-1.3460835194879301
1.9840631943885993,17.661673013928525,-0.06761304655528569,1.8169401249658448,-1.2990713598666241
1.970653863357911,17.301437326447726,-0.06648026375159742,1.7854167498421283,-1.2541738849159827
1.9574723373981424,16.94743146915,-0.0653349958460886,1.7546418231351468,-1.2112499871464957
1.944520717342217,16.599508800435373,-0.06418120471316477,1.7245848640111239,-1.170170774242751
1.931800362002764,16.257528613482116,-0.0630223486813651,1.6952170055214453,-1.1308183139410075
1.9193119827276146,15.921355824142754,-0.06186144407012871,1.6665108878721633,-1.0930845259918875
1.907055726433841,15.590860679343088,-0.06070111886760774,1.6384405601245065,-1.0568702020367529
1.8950312485852252,15.265918484375728,-0.05954365961855129,1.6109813895490754,-1.0220841369609126
1.8832377773797742,14.94640934762695,-0.05839105243595771,1.5841099779386973,-0.9886423575993821
1.8716741702442858,14.632217941407351,-0.05724501891892748,1.5578040842573126,-0.9564674366313465
1.8603389635875947,14.323233277675008,-0.056107047647984756,1.5320425530661075,-0.9254878811653121
1.8492304166393159,14.019348497545945,-0.05497842183480171,1.5068052482245229,-0.8956375869356836
1.8383465500935308,13.720460673582117,-0.05386024362304882,1.482072991413746,-0.866855350242511
1.827696655918721,13.426472658199511,-0.05263869812504622,1.4578071624123257,-0.8358359677996661
1.81728859999332,13.137290746613111,-0.051441861128965545,1.4340119534516675,-0.8062253953687459
1.807117436897009,12.852822487123333,-0.05026976983414317,1.4106706414460985,-0.7779430338028991
1.7971782226707644,12.572978696601442,-0.049122372428304965,1.3877672637728105,-0.7509137694283743
1.7874660313309203,12.297673312747772,-0.04799954097013598,1.3652865747639016,-0.725067541374657
1.7779759689671986,12.026823254755172,-0.04690108266708051,1.3432140051620967,-0.7003389475835922
1.768703185725765,11.76034829180843,-0.04582674974725603,1.3215356243053258,-0.6766668856409971
1.7596428859411524,11.498170918895244,-0.04477624809886911,1.300238104826547,-0.6539942249977129
1.7507903366484205,11.240216239445164,-0.04374924482845089,1.2793086896742423,-0.6322675075198028
1.7421408746785656,10.986411854350123,-0.042745374870098475,1.2587351612761593,-0.6114366736362373
1.733689912515425,10.736687756954076,-0.04176424676130694,1.2385058126843185,-0.5914548116425621
1.725432943070639,10.49097623363032,-0.04080544768655171,1.2186094205532347,-0.5722779279755916
1.7173655435142605,10.249211769593408,-0.03986854787723399,1.1990352198158982,-0.5538647365013251
1.7094833782819694,10.011330959618473,-0.03895310444567587,1.1797728799334446,-0.5361764650596758
1.701782201365269,9.777272423364654,-0.038058664721327365,1.1608124826047594,-0.5191766776884105
1.6942578579782328,9.546976725021015,-0.03718476914903611,1.1421445008316136,-0.5028311111076413
1.6869062856831323,9.320386297013513,-0.03633095380197032,1.1237597792434162,-0.4871075241876916
1.6797235150473915,9.097445367529833,-0.03549675255543796,1.105649515593388,-0.47197555924924606
1.6727056698956186,8.878099891635998,-0.034681698962289224,1.087805243344978,-0.45740661415720163
1.6658489672128174,8.662297485774126,-0.03388532786572315,1.0702188152737362,-0.44337372427014404
1.6591497167481397,8.449987365445182,-0.033107176781052405,1.0528823880156903,-0.4298514533972723
1.6526043203626108,8.241120285893754,-0.03234678707423632,1.0357884074985886,-0.41681579299508786
1.6462092711590168,8.035648485624172,-0.031603704961704476,1.0189295951972306,-0.4042440689083243
1.639961152427536,7.833525632588593,-0.030877482353103152,1.0022989351585576,-0.3921148550243507
1.63385663643662,7.634706772898113,-0.03016767755605558,0.9858896617462324,-0.38040789326845725
1.6278986422764976,7.4393285576876735,-0.029412264045170035,0.967892490358166,-0.405130161246211
1.6220873750087432,7.24753867862383,-0.028700408632374802,0.9500063002802899,-0.4315134453442658
1.6164142260279264,7.059315238124338,-0.028031081175791388,0.9322281047146129,-0.45944789302672695
1.6108707974435488,6.874636924241507,-0.027403204667984432,0.9145550341137092,-0.48882614107519173
1.6054489109138412,6.693482987638461,-0.02681566062909336,0.8969843319167626,-0.5195430743715548
1.60014061545023,6.515833219378461,-0.026267294007016648,0.8795133506832535,-0.5514955901237342
1.5949381942876153,6.341667929448814,-0.02575691761913173,0.8621395486132258,-0.5845823665478923
1.5898341709090253,6.1709679259429215,-0.025283316166767933,0.8448604864457011,-0.6187036350293735
1.5848213143072933,6.003714494825406,-0.02484524985055244,0.8276738247294629,-0.6537609547859679
1.5798926435610587,5.839889380206145,-0.024441457611794858,0.8105773214631503,-0.6896569890510791
1.575041431797655,5.679474765049388,-0.024070660022239683,0.7935688301044103,-0.7262952817807069
1.570261209611254,5.522453252243867,-0.023731561841773312,0.7766462979507992,-0.7635800338665254
1.5655457680009768,5.368807845958962,-0.023422854260998566,0.7598077648982399,-0.8014158778073665
1.5608891608905808,5.218521933210521,-0.023143216842960196,0.7430513625861717,-0.8397076497525944
1.5562857072887155,5.071579265557691,-0.022891319175693575,0.7263753139421334,-0.8783601577826194
1.5517299931466813,4.9279639408492315,-0.02266582224464954,0.7097779331424486,-0.9172779452334544
1.5472168729690772,4.787660384933986,-0.022465379531392802,0.6932576260100037,-0.9563650478029949
1.5427414712317127,4.650653333245497,-0.022288637842249916,0.6768128908748973,-0.9955247430957235
1.5382991836607114,4.5169278121651,-0.022134237867763615,0.660442319929083,-1.0346592911688242
1.533885678426849,4.38646912006098,-0.022000814470858762,0.6441446011121177,-1.0736696645351804
1.529496897309913,4.259262807892579,-0.021886996698503507,0.6279185205718841,-1.112455265956283
1.525129056889231,4.135294659260211,-0.02179140750831612,0.6117629657518063,-1.1509136322194942
1.5207786498186016,4.014550669768553,-0.021712663197977326,0.595676929164767,-1.1889401219382245
1.516442446246663,3.897017025559691,-0.02164937252140886,0.5796595129238409,-1.2264275852392206
1.5121174954473808,3.7826800808561813,-0.021600135471414053,0.5637099341112712,-1.2632660130073716
1.507801127729861,3.671526334337049,-0.021563541703781275,0.547827531080063,-1.299342163144546
1.5034909567022177,3.5635424041493025,-0.021538168572653404,0.5320117707973934,-1.3345391610648027
1.4991848819708342,3.4587150013339603,-0.021522578741183178,0.5162622573560399,-1.3687360713945695
1.4948810923642126,3.3570309014184048,-0.021515317325031147,0.5005787417994979,-1.4018074375750154
1.4905780697798083,3.258476913895578,-0.02151490851901072,0.484961133428754,-1.4336227857787462
1.4862745937630057,3.1630398492742877,-0.02151985164901694,0.46940951278415033,-1.4640460892609126
1.4819697469398898,3.070706483343397,-0.02152861658214286,0.4539241465247715,-1.4929351889767704
1.4776629214399342,2.981463518244855,-0.02153963841741142,0.43850550446064945,-1.5201411660307957
1.4733538264614316,2.8952975398957825,-0.021551311367614515,0.42315427903005703,-1.5455076613025047
1.469042497151762,2.8121949712372434,-0.021561981729083548,0.40787140755535134,-1.568870137459893
1.4647293049968064,2.732142020716104,-0.02156993982047101,0.39265809765605464,-1.5900550785799825
1.4604149699394249,2.6551246253258505,-0.0215734107533429,0.3775158562464666,-1.608879122830971
1.4561005744764963,2.5811283874416375,-0.021570543875944634,0.362446522595664,-1.6251481242538415
1.4517875800182984,2.5101385045843116,-0.021559400706033408,0.34745230597759164,-1.6386561407901057
1.447477845833905,2.4421396911382054,-0.021537941137900602,0.33253582848347263,-1.6491843475936439
1.4431736509530395,2.377116090929828,-0.021504007670754537,0.3177001736003122,-1.6564998777110853
1.4388777194502012,2.3150511794532456,-0.021455307357629537,0.3029489411655059,-1.6603545969575815
1.43459324960329,2.255927654409799,-0.021389391111483063,0.28828630926895743,-1.6604838270382893
1.4303239475000287,2.199727313126889,-0.02130362992112795,0.273717103560148,-1.6566050418114693
1.426074065766623,2.14643091535277,-0.02119518741292734,0.259246874181047,-1.6484165777166
1.421848448222661,2.0960180299232505,-0.021060988026695513,0.24488198011413506,-1.6355964232152604
1.4176525814373304,2.048466863912065,-0.02089767982660859,0.23062967999773556,-1.6178011871244962
1.4134926543954722,2.003754073187128,-0.02070159059197292,0.2164982272516429,-1.5946653970517566
1.4093756278113685,1.9618545539193875,-0.020468675249064042,0.20249696542575166,-1.5658013541030769
1.4053093151081995,1.922741215710115,-0.020194451782624807,0.18863641666699024,-1.5307998790895343
1.4013024778013161,1.8863847388864379,-0.019873921286211176,0.1749283515697935,-1.4892324432200506
1.3973649391313865,1.852753321558744,-0.01950146541308455,0.1613858217071569,-1.440655402476311
1.3935077215324891,1.8218124267980471,-0.01907071057588883,0.14802312589979447,-1.3846173744674806
1.3897432162918009,1.793524547534556,-0.018574341830993754,0.13485566673512056,-1.3206712369581464
1.3860853982211894,1.7678490174337291,-0.01800383887512218,0.12189963427316097,-1.2483928079108604
1.3825501053906537,1.7447419110047235,-0.01734908943023367,0.10917143001688706,-1.1674089707693442
1.379155415694344,1.7241560958963902,-0.01659780753286404,0.09668672106646128,-1.0774387143340551
1.3759221709567893,1.706041523074763,-0.0157346398426817,0.08445900714981233,-0.9783508927540602
1.372874729702492,1.6903458594693994,-0.014739772700292529,0.0724976289038291,-0.8702415863240329
1.370042078496603,1.6770155644333151,-0.013586739358595867,0.060805321457022846,-0.7535299546754801
1.3674595119047512,1.6659974462581495,-0.012238926559920791,0.049375860294649715,-0.6290614910534967
1.3651712359465635,1.657240534271164,-0.010643833021955228,0.03819325957519981,-0.4981886424638876
1.3632345755185995,1.6506976415671168,-0.00872277125768617,0.027235667465288667,-0.3627724043494943
1.3617274693453427,1.646325001671503,-0.006348290474881599,0.016490731490850855,-0.22502857187959582
1.360765408626224,1.6440754156174968,-0.0032723167163051393,0.006005129049214715,-0.08715616566975123
