x,y,v_x,v_y,omega
2.375,32.48,0.0,3.7948717948717947,-2.1224489795918373
2.374305694127852,31.69450534300506,-0.0066124368775963855,3.686029700318086,-1.950315911085924
2.372352248118993,30.93127492063535,-0.011991810825825032,3.582831465107724,-1.7993817107958274
2.3693752814480233,30.189170479089018,-0.016360252707220947,3.48482988295257,-1.66631520629277
2.3655682945800494,29.467142764010106,-0.019896765083005186,3.3916245463704104,-1.5483970865182257
2.3610907681872475,28.764222334794365,-0.022746343419872077,3.302855731874741,-1.443393440090886
2.3560745665891214,28.079511561490186,-0.025027005133709247,3.2181992519745912,-1.3494580901828857
2.350629030485517,27.412177620331935,-0.026835243472050005,3.137362092389706,-1.2650566003019
2.34484504984183,26.761446337884237,-0.028250286467823217,3.060078692826442,-1.188906722715152
2.338798338252669,26.126596760392495,-0.02933744295275514,2.9861077594758925,-1.1199314189606564
2.3325520783710973,25.50695634604862,-0.0301507463955496,2.915229519989552,-1.057221562951551
2.326159069198025,24.901896694800552,-0.030735055252756986,2.8472433490396822,-1.0000061525563206
2.319663476732096,24.310829744015237,-0.031127730137047147,2.781965706058539,-0.9476283816409317
2.313102267209215,23.733204369457674,-0.03135997960467246,2.7192283373468467,-0.8995263145735504
2.306506385120696,23.168503340205746,-0.03145794504789271,2.6588767031477234,-0.8552171965103859
2.2999017250820164,22.616240583689326,-0.0314435791300048,2.600768597008619,-0.8142846519366537
2.293309936468988,22.075958723334665,-0.031335360041694245,2.544772930178631,-0.7763681899247037
2.286749091832714,21.54722685655544,-0.031148874589490096,2.4907686581949506,-0.7411545611019764
2.280234243918496,21.02963854525144,-0.03089729602210405,2.438643830414568,-0.7083706083671859
2.2737778912486912,20.522809994705863,-0.030591777023659065,2.388294746209978,-0.6777773282614008
2.2673903683850165,20.02637839993409,-0.03024177405895737,2.3396252039973984,-0.6491649179835223
2.261080173933979,19.540000441227658,-0.02985531595092172,2.2925458313019442,-0.6223486283422357
2.254854246925804,19.063350912935725,-0.029439226984077357,2.2469734857641086,-0.5971652784527336
2.2487182002490256,18.59612147149666,-0.028999312794766755,2.202830718417446,-0.5734703159679726
2.2426765182567254,18.138019490427226,-0.02854051570333234,2.160045291767671,-0.5511353287840046
2.2367327243964854,17.688767011438735,-0.028067044870380083,2.1185497462179335,-0.5300459317724592
2.2308895236923165,17.24809978211506,-0.027582485645515627,2.0782810092456483,-0.5100999661610792
2.2251489240745457,16.815766371685044,-0.027089891666585306,2.0391800424687783,-0.4912059604667039
2.2195123398747487,16.3915273573775,-0.026591862617198703,2.001191522364963,-0.47328181097226835
2.2139806802471482,15.975154574680204,-0.026090610026614048,1.9642635509426356,-0.45625364708662763
2.208554424821709,15.56643042555326,-0.025588013072810337,1.9283473931234927,-0.4400548528890702
2.2032336885183996,15.165147239286124,-0.025085666006322165,1.893397237992088,-0.4246252210178654
2.198018277141757,14.771106681248828,-0.024584918533134725,1.859369981410729,-0.4099102190331455
2.1929077351177444,14.3841192052823,-0.02408691026698375,1.8262250277943124,-0.3958603516418601
2.1879013865213595,14.004003545908706,-0.023592600174774533,1.7939241090970746,-0.3824306048535733
2.1829983703655222,13.630586246928363,-0.023102791785581667,1.7624311192871245,-0.36957996034965485
2.1781976709732502,13.26370122331133,-0.022618154807486225,1.7317119627798612,-0.3572709701820975
2.173498144130774,12.903189353594886,-0.022139243692287636,1.7017344154719967,-0.34546938344167805
2.1688985396148914,12.548898100267756,-0.021666513601832558,1.6724679971673198,-0.3341438178046731
2.1643975206001023,12.200681155861961,-0.021200334158064132,1.643883854316447,-0.32326546992823063
2.159993680377082,11.858398112687386,-0.02074100129927315,1.6159546521080925,-0.31280785955353346
2.1556855567515525,11.521914154335686,-0.020288747515291413,1.5886544750509353,-0.30274660292293637
2.151471644439706,11.191099767251487,-0.01984375069277133,1.5619587352747786,-0.2930592117466384
2.1473504057314474,10.865830470822448,-0.019406141766831357,1.5358440878589346,-0.2837249144860723
2.143320279654594,10.545986564577838,-0.018976011346060095,1.5102883525659287,-0.27472449717135217
2.13937968984067,10.231452891209223,-0.01855341545321734,1.4852704414208675,-0.2660401613522335
2.135532274171263,9.922118841673658,-0.01808863854113261,1.4607681255845077,-0.25623812592623196
2.1317811867075784,9.617877903577629,-0.01763600397014757,1.4367646181871938,-0.2468971211569614
2.1281239022440768,9.318627238774692,-0.0171952766346314,1.4132417132693353,-0.23798990713582718
2.1245579463765973,9.024267742835942,-0.016766207817554984,1.3901820575759145,-0.22949115871804635
2.121080898017098,8.73470387122731,-0.01634853846338697,1.3675691006015374,-0.22137730965119812
2.117690391271495,8.449843475612926,-0.015942001970930503,1.3453870481068826,-0.21362641107769326
2.1143841167745014,8.169597649584812,-0.015546326571866994,1.3236208188275396,-0.20621800293367962
2.1111598225625308,7.89388058317515,-0.015161237351661503,1.3022560041216178,-0.19913299693403205
2.10801531455463,7.62260942555822,-0.014786457961681305,1.281278830325317,-0.19235356997961622
2.104948456701861,7.355704155395415,-0.014421712064688385,1.2606761236061694,-0.1858630669517
2.1019571708573057,7.093087458318941,-0.01406672455012235,1.2404352771221565,-0.17964591197157145
2.0990394364117244,6.834684611088399,-0.013721222550652744,1.2205442203115768,-0.17368752730311784
2.0961932897337467,6.5804233719895535,-0.013384936287230845,1.2009913901536033,-0.16797425916406955
2.0934168234481354,6.330233877076854,-0.013057599766210739,1.181765704253079,-0.16249330978930784
2.090708185581043,6.08404854189066,-0.01273895134895287,1.162856535615429,-0.15723267515836994
2.088065578597185,5.841801968307223,-0.012428734211598392,1.1442536889887318,-0.1521810878601748
2.0854872583503807,5.603430856204092,-0.01212669671034811,1.125947378660119,-0.14732796462200706
2.082971532965912,5.368873919646479,-0.011832592665543595,1.1079282076028798,-0.14266335807777503
2.080516761670541,5.13807180732088,-0.011546181576085366,1.0901871478789997,-0.13817791239322688
2.0781213535837617,4.91096702696159,-0.011267228774196154,1.0727155222094793,-0.1338628224038088
2.0757837664819037,4.687503873533267,-0.01099550552921343,1.0555049866317054,-0.12970979595472643
2.073502505545002,4.467628360949142,-0.01073078910794686,1.0385475141694702,-0.1257110191630136
2.071276122094863,4.251288157119411,-0.01047286279813928,1.0218353794469974,-0.12185912434844208
2.069103212331484,4.038432522138198,-0.010221515900703523,1.0053611441836077,-0.11814716040428848
2.066982416073867,3.8290122494303205,-0.009976543695654653,0.9891176435104664,-0.11456856540063948
2.064914396485624,3.6231143622433386,-0.009718880954275245,0.9718146154131868,-0.13651361627898215
2.0628977977078238,3.420838390075847,-0.009486821691440576,0.9546232147533983,-0.16022742987566868
2.060927244948259,3.222161212929471,-0.009280347447271357,0.9375403771168572,-0.18560593090162658
2.0589973772739008,3.0270603421608406,-0.009099344689473144,0.9205631540129637,-0.21254771826551183
2.057102866710904,2.835513896629692,-0.008943613053353831,0.9036887081884475,-0.2409538469344696
2.0552384356830666,2.647500579792492,-0.008812872926051376,0.8869143093086774,-0.27072761586888516
2.05339887292158,2.462999657665897,-0.008706772421440755,0.8702373299922203,-0.30177436121089285
2.0515790479695597,2.281990937587139,-0.008624893788274844,0.8536552421864148,-0.33400125392106267
2.049773924396294,2.1044547477008138,-0.008566759290447904,0.8371656138738406,-0.3673171010668437
2.0479785718283403,1.9303719171033862,-0.008531836594823707,0.8207661061016713,-0.4016321499699495
2.046188176897508,1.7597237565782677,-0.008519543698815886,0.8044544703280293,-0.43685789441780115
2.0443980531993162,1.5924920398552551,-0.008529253426819565,0.7882285460816316,-0.47290688213621435
2.0426036503497276,1.428658985328692,-0.008560297521645614,0.7720862589332621,-0.5096925227064799
2.040800562222756,1.2682072381688059,-0.008611970354277118,0.7560256187799428,-0.547128895089521
2.038984534446941,1.1111198527601722,-0.008683532272527352,0.7400447184451557,-0.5851305538925249
2.037151471234643,0.9573802754003147,-0.008774212606505233,0.724141732601105,-0.6236123334788652
2.035297441614613,0.8069723271899036,-0.008883212346162723,0.7083149170218555,-0.662489148979697
2.0334186851353895,0.6598801870437825,-0.00900970650358335,0.6925626081792879,-0.7016757932146613
2.031511617104658,0.5160883747492484,-0.009152846170045041,0.6768832231972132,-0.7410867284689358
2.029572833427905,0.3755817339943519,-0.009311760275225475,0.6612752601827516,-0.7806358720035431
2.027599115108422,0.23834541528454167,-0.009485557053183918,0.6457372989582897,-0.820236374094412
2.0255874324700613,0.10436485866060963,-0.0096733252169175,0.6302680022220258,-0.8598003873020873
2.0235349491640515,-0.026374223875599512,-0.009874134840316512,0.6148661171704305,-0.8992388255669884
2.021439026021783,-0.15388586632879964,-0.010087037943193697,0.5995304776219567,-0.9384611116033965
2.01929722481672,-0.2781838671813617,-0.010311068771693629,0.5842600066881787,-0.9773749109274685
2.0171073120006033,-0.3992818084884888,-0.01054524376275227,0.5690537200463468,-1.0158858506990027
2.0148672624818955,-0.5171930757303684,-0.010788561177319996,0.5539107298762872,-1.0538972213818376
2.012575263518091,-0.6319308785685394,-0.011040000382723878,0.538830249534846,-1.0913096590320706
2.01022971879813,-0.7435082726702475,-0.011298520759758715,0.5238115990528832,-1.128020805805267
2.0078292527968533,-0.8519381827839112,-0.011563060204784446,0.5088542115534299,-1.1639249460322398
2.0053727154902767,-0.9572334272710776,-0.011832533191182808,0.4939576407053149,-1.198912614947053
2.0028591875286743,-1.0594067443263242,-0.012105828347888611,0.47912156934467215,-1.2328701768606076
2.000287985974095,-1.1584708201463698,-0.012381805505246517,0.4643458194176333,-1.265679369259757
1.997658670720292,-1.2544383193444872,-0.012659292150020984,0.44963036342159013,-1.297216808978514
1.9949710517262451,-1.3473219179465161,-0.012937079221852084,0.43497533755012713,-1.3273534562406262
1.9922251972098253,-1.4371343393510259,-0.013213916172624199,0.42038105677852616,-1.3559540320220453
1.9894214429659216,-1.5238883936898944,-0.013488505197885754,0.40584803216308074,-1.3828763838444622
1.9865604029939297,-1.60759702108723,-0.013759494535370502,0.3913769906687144,-1.4079707948134588
1.9836429816432173,-1.6882733393854537,-0.014025470709509921,0.37696889788581633,-1.4310792304971458
1.9806703875125882,-1.7659306969885833,-0.014284949582195956,0.36262498404876,-1.45203451816383
1.9776441493713715,-1.8405827315652985,-0.01453636604843868,0.3483467738247319,-1.4706594530502306
1.9745661344063068,-1.91224343545899,-0.0147780621902736,0.33413612040092444,-1.4867658268481065
1.9714385691407315,-1.9809272287691897,-0.015008273672347309,0.31999524445813105,-1.5001533746728009
1.9682640634218354,-2.0466490411981084,-0.015225114126664961,0.30592677867444473,-1.5106086387003077
1.9650456379293892,-2.10942440389573,-0.015426557229963483,0.2919338184457604,-1.5179037498531651
1.9617867557274395,-2.169269552682799,-0.015610416121938746,0.27801997952634294,-1.521795134001499
1.9584913584618115,-2.2262015441754244,-0.01577431974118528,0.2641894632605945,-1.5220221570379917
1.95516390790515,-2.2802383864636795,-0.015915685560353082,0.2504471299609139,-1.51830573522988
1.9518094336739673,-2.331399186086273,-0.01603168806995747,0.23679858073044624,-1.510346955429791
1.9484335880987103,-2.3797043130553632,-0.016119222170587765,0.22325024754660983,-1.4978257769628214
1.945042709433916,-2.4251755855583426,-0.016174860351261592,0.20980949057701906,-1.4803999276057502
1.9416438948766033,-2.467836475599114,-0.016194802099334476,0.1964847002875016,-1.4577041663636807
1.9382450852589397,-2.5077123360883107,-0.016174813306985447,0.18328539960958207,-1.4293501749756385
1.934855163865429,-2.5448306485158554,-0.01611015234549901,0.17022233779562787,-1.3949274716013942
1.9314840727116351,-2.5792212879865843,-0.015995477690631494,0.15730756192559237,-1.3540059328620566
1.9281429510066768,-2.61091679854524,-0.01582472902325808,0.1445544433949378,-1.3061407900959396
1.9248443027362607,-2.6399526656103447,-0.015590968790228931,0.13197762389179585,-1.2508813650161748
1.9216022039059513,-2.666367562958733,-0.0152861629270037,0.11959282704524238,-1.1877853641091314
1.9184325659166652,-2.690203537819052,-0.014900865542386184,0.10741645733873267,-1.116441281413769
1.915353481377011,-2.7115060781025093,-0.014423749120988382,0.09546487869421746,-1.0365023276611935
1.912385694979558,-2.7303239805590493,-0.013840883235706206,0.08375323993951535,-0.947736102770203
1.90955326909249,-2.7467089111962295,-0.013134601403038263,0.07229371850983177,-0.8500943469665106
1.9068845583137095,-2.7607145321619697,-0.012281691728203556,0.06109314783056665,-0.7438051018371611
1.90441368139683,-2.77239509437031,-0.011250469384935012,0.0501503017726478,-0.6294826735330061
1.9021828086563728,-2.7818035296912385,-0.009995937667038761,0.03945384414093053,-0.5082347923121526
1.9002458467281336,-2.7889894429535502,-0.008451318792380879,0.028983425023916147,-0.3817187652042909
1.8986748147467893,-2.7939982301000086,-0.006510890553755629,0.018719309704255477,-0.2520668032697764
1.8975729773083891,-2.7968746379551064,-0.00398279933576926,0.008675050820495477,-0.12159142301067744
