x,y,v_x,v_y,omega
2.375,32.48,0.0,3.5897435897435894,-6.408163265306122
2.373433973809903,31.806647099281832,-0.01648448621154806,3.4981816809739126,-5.957785844808642
2.3689878480804585,31.15029278252358,-0.030316837256289447,3.410811127007717,-5.555121189388393
2.362126458559183,30.510170170069518,-0.04190831559923866,3.327321635666609,-5.193645163318529
2.3532430874162484,29.88556823709683,-0.05160085432638824,3.2474355535195842,-4.867888279125685
2.342671408792421,29.275826056252807,-0.05967997329285259,3.170903192206978,-4.573241171790385
2.3306952333745685,28.68032784605044,-0.06638503110559218,3.097499020449519,-4.305800295186546
2.3175565004058263,28.098498679078396,-0.07191742119695728,3.0270185266246243,-4.062244613632466
2.303461864555885,27.529800736342885,-0.07644716669716178,2.9592756074333706,-3.8397363928633266
2.2885881492097035,26.973730018080854,-0.08011825799948345,2.8941003742722304,-3.6358408814463834
2.273086880099223,26.429813439501977,-0.08305299579504964,2.831337294979121,-3.4484609094809944
2.2570880689878066,25.897606253750514,-0.08535554221986211,2.770843607667844,-3.275783347297171
2.2407033828981366,25.37668975506422,-0.08711483767139852,2.7124879574510357,-3.116235052688152
2.2240288076822394,24.86666922345436,-0.08840700670646515,2.656149217389615,-2.9684464536282573
2.2071468937632095,24.367172078819536,-0.08929735033595769,2.60171546297696,-2.8312213086847384
2.190128655298471,23.87784621765871,-0.08984200192444397,2.5490830755580296,-2.70351149107561
2.1730351808277457,23.398358509775903,-0.09008930829371829,2.4981559547872876,-2.5843958774441784
2.1559190029238877,22.928393435800967,-0.0900809854311026,2.448844823896274,-2.4730626056459664
2.1388252658898765,22.467651849160248,-0.08985308861112402,2.401066614427103,-2.3687941095220926
2.121792723702238,22.015849848448696,-0.08943682915349101,2.354743919378702,-2.2709544519577314
2.1048545948517323,21.57271774808082,-0.08885926400972613,2.3098045055462877,-2.1789785673957742
2.0880392962132635,21.13799913670907,-0.08814387955310225,2.2661808773142362,-2.092363096613485
2.071371074383105,20.71145001425449,-0.08731108708014759,2.2238098853655663,-2.01065855394931
2.0548705498909925,20.292837999542904,-0.08637864441577406,2.182632374756405,-1.9334626133360564
2.0385551871997207,19.881941601517525,-0.08536201549234759,2.142592867615969,-1.8604143368066546
2.022439701344114,19.4785495478354,-0.08427467772456201,2.1036392764063976,-1.7911891994138671
2.0065364103537457,19.08246016537408,-0.08312838533194969,2.065722644239095,-1.7254947891686303
1.9908555411847175,18.69348080779583,-0.08193339539466384,2.028796909216189,-1.6630670807688521
1.9754054957030736,18.311427325854723,-0.08069866230685044,1.9928186901638538,-1.60366719844043
1.9601930822738955,17.936123576600288,-0.07943200536870934,1.9577470914617985,-1.5470785968406295
1.945223717681754,17.567400968040147,-0.0781402534959382,1.9235435249607074,-1.4931046002337067
1.930501603412226,17.205098036182473,-0.0768293703938297,1.8901715472253395,-1.4415662494811403
1.916029879738017,16.84906005169361,-0.07550456301889534,1.8575967105521867,-1.3923004141477022
1.9018107605583718,16.499138653683847,-0.07417037571421194,1.825786426392669,-1.3451581334943357
1.8878456515217106,16.155191508379357,-0.07283077204011731,1.794709839970376,-1.3000031555390776
1.8741352536063078,15.817081990655499,-0.07148920601675463,1.7643377150175978,-1.2567106479041008
1.8606796540320136,15.484678886599657,-0.07014868423897225,1.734642327675481,-1.215166057981588
1.8474784061189737,15.157856115443401,-0.0688118201088163,1.7055973687061385,-1.1752641031668996
1.8345305994899415,14.836492469356983,-0.06748088124941878,1.677177853256137,-1.1369078746252206
1.8218349218252174,14.520471369736025,-0.06615783101083268,1.6493600374907746,-1.1000080403603412
1.8093897132185672,14.209680638732948,-0.06484436484864525,1.6221213414889906,-1.0644821353095204
1.7971930140445596,13.90401228489566,-0.06354194224617137,1.5954402778508854,-1.0302539278527125
1.7852426071292093,13.60336230187497,-0.06225181475751617,1.569296385524799,-0.9972528535442733
1.7735360549136745,13.307630479251202,-0.06097505066916576,1.5436701684096097,-0.9654135080891915
1.76207073221267,13.016720224610825,-0.059712556709827926,1.5185430383311858,-0.9346751926259832
1.7508438550931196,12.730538396076472,-0.058465097180178456,1.4938972620304225,-0.9049815052713938
1.7398621244837247,12.448997293848976,-0.05713206712924104,1.4696932877326994,-0.8734734820470618
1.7291309620930266,12.172012231996227,-0.0558275369833696,1.4459389422962448,-0.8433495744117219
1.7186449729765658,11.89949925781244,-0.05455129582148044,1.4226186806909973,-0.8145330182544116
1.7083988084996566,11.631377307098361,-0.0533030670933533,1.399717642615077,-0.7869521132723434
1.6983871778329833,11.367568077676726,-0.05208251887162771,1.3772216144547587,-0.7605398356259611
1.6886048576221222,11.107995909896307,-0.05088927282164881,1.3551169937601735,-0.7352334841864426
1.6790467000596971,10.852587673664996,-0.04972291204598296,1.3333907560430924,-0.7109743571252145
1.669707639560961,10.60127266158749,-0.04858298794071333,1.3120304237201263,-0.6877074559415138
1.6605826982191605,10.35398248781528,-0.04746902618350281,1.291024037040001,-0.6653812143302426
1.6516669901956684,10.11065099224598,-0.04638053195851939,1.2703601268473828,-0.6439472495633469
1.6429557251811255,9.871214149735895,-0.04531699451035241,1.2500276890482263,-0.6233601342981153
1.6344442110474064,9.635609984014287,-0.044277891107745986,1.2300161606529172,-0.6035771869389125
1.6261278557957994,9.403778486010307,-0.04326269048811454,1.2103153972837275,-0.5845582788682434
1.6180021688941353,9.175661536324327,-0.04227085584519212,1.1909156520423876,-0.5662656570315386
1.6100627620844516,8.951202831594308,-0.041301847414637,1.1718075556420176,-0.5486637805101541
1.6023053497330078,8.73034781452536,-0.04035512470582348,1.1529820977153302,-0.5317191698509651
1.594725748785838,8.513043607366694,-0.03943014842228119,1.1344306092179954,-0.5154002680404948
1.5873198783854439,8.299238948635004,-0.03852638210818217,1.1161447458524196,-0.4996773121184139
1.580083759197552,8.08888413289694,-0.03764329355383675,1.0981164724429904,-0.48452221452093286
1.5730135124909579,7.881930953435937,-0.03678035598926061,1.0803380481991354,-0.46990845333035003
1.5661053590082905,7.6783326476403175,-0.03593704909144968,1.0628020128073798,-0.4558109706839411
1.559355617660944,7.478043844960304,-0.03511285982798618,1.0455011732980186,-0.4422060786644566
1.5527607040773752,7.281020517291566,-0.03430728315694762,1.0284285916360663,-0.4290713720566005
1.5463171290303936,7.0872199316521005,-0.03351982260075464,1.0115775729898682,-0.41638564740975786
1.540021496765916,6.8966006050278175,-0.032749990709535465,0.994941654634159,-0.4041288278975934
1.533877263959253,6.7093244876372715,-0.031926144097445014,0.9763858968452748,-0.43481515496046236
1.5278849119248243,6.5255636607096825,-0.03115124573864528,0.9579385971293587,-0.46697037234834093
1.5220352782901514,6.345297785495415,-0.03042384515264833,0.9395969314418764,-0.5004862537134436
1.5163194784447955,6.168507049246486,-0.029742469008992075,0.9213581869679066,-0.5352566301943115
1.5107289095242535,5.995172144417012,-0.029105624891449314,0.9032197586054869,-0.5711771515511948
1.5052552537159103,5.825274248495145,-0.028511804670060304,0.8851791458352227,-0.6081450509229274
1.4998904809590885,5.658795004393614,-0.027959487507011552,0.8672339499703474,-0.6460589121924882
1.494626851106566,5.495716501326932,-0.027447142519541556,0.8493818717842103,-0.6848184389429532
1.4894569156107789,5.3360212561035,-0.026973231120320493,0.8316207095150543,-0.7243242239721099
1.484373518794304,5.1796921947607295,-0.0265362090531009,0.8139483572509613,-0.7644775183123217
1.479369798761069,5.0267126344702895,-0.02613452813884642,0.7963628037010397,-0.8051799986718805
1.4744391880021044,4.877066265639268,-0.025766637744990797,0.7788621313623473,-0.8463335321745891
1.4695754137474766,4.730737134130749,-0.02543098598793436,0.7614445160957345,-0.887839937225062
1.464772498114372,4.5877096235245105,-0.025126020676323586,0.7441082271278255,-0.9296007392675445
1.4600247581001162,4.447968437334794,-0.0248501900000533,0.7268516275007831,-0.971516920135104
1.4553268054682222,4.31149858109756,-0.024601942967250632,0.7096731749964138,-1.0134886596029729
1.4506735465754057,4.1782853442340695,-0.024379729588713414,0.6925714235666461,-1.0554150676635718
1.446060182187875,4.048314281590926,-0.024182000806348043,0.6755450253085563,-1.097193905930255
1.4414822073361626,3.9215711945488536,-0.02400720815904557,0.6585927330290403,-1.1387212964508755
1.4369354112593231,3.798042111583147,-0.023853803176107524,0.641713403452072,-1.1798914160696563
1.4324158774915428,3.677713268147812,-0.023720236484738796,0.6249060011303923,-1.2205961743152882
1.4279199841471422,3.5605710857427297,-0.023604956614211938,0.608169603133627,-1.2607248726134836
1.4234444044636656,3.446602150008374,-0.023506408475017667,0.5915034045964243,-1.3001638424222928
1.4189861076673131,3.3357931876754847,-0.023423031486585214,0.5749067252234699,-1.3387960596676016
1.4145423602305063,3.2281310421772282,-0.023353257321909605,0.558379016863441,-1.3765007326140823
1.410110727597925,3.12360264770847,-0.023295507231577594,0.5419198722813816,-1.4131528600440062
1.4056890764651264,3.022195001490239,-0.023248188903143962,0.5255290352789528,-1.4486227563345653
1.4012755777029036,2.923895133966923,-0.02320969280446517,0.5092064123348854,-1.4827755397273665
1.3968687100311041,2.8286900766285186,-0.02317838795131992,0.4929520859640984,-1.5154705797781025
1.3924672645578515,2.736566827109673,-0.02315261703028558,0.4767663300237369,-1.546560899670722
1.3880703503142389,2.6475123111707433,-0.023130690797216115,0.4606496272281721,-1.5758925287954377
1.3836774009308448,2.561513341112626,-0.023110881659563366,0.44460268917308077,-1.6033038007490539
1.379288182621178,2.478556570116119,-0.023091416336927743,0.4286264792112185,-1.628624591757468
1.3749028036587343,2.39862844192697,-0.02307046747827126,0.41272223856929235,-1.65167549450008
1.370521725559205,2.3217151352290344,-0.023046144095720266,0.3968915161458355,-1.6722669225167746
1.3661457762080567,2.2478025019593098,-0.023016480653210457,0.3811362024828491,-1.6901981409205422
1.3617761652068625,2.1768759987200568,-0.0229794246225184,0.3654585684566599,-1.7052562201976882
1.357414501750341,2.108920610334934,-0.022932822288235014,0.3498613092814923,-1.7172149117070268
1.3530628153911726,2.0439207644799424,-0.02287440254511748,0.3343475944552489,-1.725833446457964
1.3487235801029824,1.9818602361992461,-0.02280175838319952,0.31892112428892394,-1.730855263389618
1.344399742115677,1.9227220409969625,-0.02271232569369892,0.3035861936298562,-1.7320066804653962
1.3400947520749724,1.86648831509007,-0.022603358945296227,0.28834776328480843,-1.7289955325680435
1.3358126021745071,1.8131401813326065,-0.02247190316486549,0.273211539425334,-1.721509816070286
1.3315578690321386,1.7626575993070261,-0.022314761491645838,0.2581840608439264,-1.7092164034542592
1.3273357632440264,1.7150191981712837,-0.02212845733058767,0.24327279321652281,-1.6917599259324008
1.3231521867701903,1.6702020911223734,-0.021909189762424345,0.22848622835094556,-1.6687619727230425
1.3190137996144586,1.6281816708999948,-0.021652780297908576,0.2138339845161846,-1.6398208297288739
1.3149280977105502,1.5889313867767392,-0.021354608164285697,0.19932690099176095,-1.6045120882482804
1.310903504597069,1.5524225052169385,-0.021009529872358063,0.18497711542718506,-1.562390610604119
1.306949480493381,1.5186238592068442,-0.020611776482250984,0.17079810573170243,-1.5129945640307134
1.3030766539999346,1.4875015956951785,-0.020154818185605543,0.15680466807529886,-1.4558525522251688
1.2992969842105186,1.459018937359847,-0.019631179597719484,0.1430127880860887,-1.3904953144191372
1.2956239651481702,1.433135984943295,-0.019032178953315198,0.1294393426144718,-1.3164740476483188
1.2920728911119939,1.409809600628499,-0.018347547743278934,0.11610154490968211,-1.233388130354598
1.288661212343443,1.3889934318704817,-0.017564860346727898,0.10301602096418888,-1.1409257811409204
1.2854090279090713,1.370638157559064,-0.016668660015079932,0.09019739284021339,-1.0389216405287922
1.2823397907886092,1.3546920586187916,-0.015639099147680288,0.07765628021529422,-0.9274345880895629
1.279481345131375,1.3411020172227772,-0.014449802507416796,0.06539678711116655,-0.806845582182009
1.27686748890365,1.3298149971949016,-0.013064473573898047,0.053413950024377904,-0.6779660223078757
1.2745403844707626,1.320779885524125,-0.011431362561758368,0.04169248861536781,-0.5421287885527778
1.272554418287053,1.3139491675840986,-0.009473544635184659,0.030209805490171455,-0.40120712615964416
1.2709829267484392,1.3092790394486755,-0.007068471560750847,0.018949438040595852,-0.25748310015536385
1.2699326163652052,1.3067242008792164,-0.003987427210134174,0.007943599532647254,-0.11329402881308487
