x,y,v_x,v_y,omega
2.375,32.48,0.0,3.6923076923076925,-3.3469387755102042
2.3740460591225037,31.75151054259959,-0.009539408774962687,3.5925868816963673,-3.0940279699883404
2.3713500015837248,31.042483112793676,-0.017421166612826288,3.497687416362778,-2.8700225431805255
2.3672155932037713,30.3519895997638,-0.023922917186710704,3.4072477139359783,-2.670688421270872
2.3618960912425178,29.679170565964235,-0.029272102425820845,3.3209426240596773,-2.49251894112667
2.355603293235634,29.023228431256037,-0.03365587764302162,3.2384787230222885,-2.3325937305444624
2.348514816020837,28.38342152223171,-0.03722889450494726,3.159590367220998,-2.1884678771671227
2.340779981729162,27.75905884990751,-0.0401194484118039,3.084036356020969,-2.0580842863584503
2.332524600668681,27.14949550535355,-0.042434362193006635,3.011597089518678,-1.939703929755344
2.323854875751693,26.55412858317458,-0.044262886976870704,2.942072132270999,-1.8318499960444914
2.3148606036590698,25.972393558645084,-0.045679833949361745,2.87527811302397,-1.7332629173128686
2.3056178101874196,25.40376105686614,-0.04674810076713931,2.8110469047654716,-1.6428639569805024
2.296190928217422,24.847733962356152,-0.04752071893283298,2.7492240403343926,-1.5597255778015928
2.286634604309758,24.303844825597793,-0.04804252014380794,2.6896673272492375,-1.483047209365688
2.276995202485083,23.771653529671944,-0.04835149810294663,2.632245632009211,-1.4121353386258637
2.2673120600942775,23.250745185538356,-0.04847992580510399,2.5768378093266833,-1.3463870791891286
2.257618539951112,22.740728229015474,-0.048455275626553246,2.5233317559021438,-1.2852765535542672
2.2479429144163854,22.241232696255864,-0.048300979720714475,2.4716235716939488,-1.2283435604485988
2.238309110386768,21.75190865765191,-0.048037060575458666,2.4216168143456067,-1.1751841066927824
2.2287373387688962,21.272424792752503,-0.04768065560326034,2.373221834648451,-1.1254424668919956
2.219244627715478,20.80246709101364,-0.047246454930919723,2.3263551827402096,-1.0788045001601707
2.2098452754383873,20.341737665114707,-0.046747067839988846,2.2809390762490978,-1.034992005134069
2.2005512356182204,19.88995366520482,-0.04619333036168065,2.2369009228497716,-0.9937579358342172
2.1913724461638235,19.446846283844888,-0.04559456418228411,2.1941728907495652,-0.9548823338488164
2.1823171102318497,19.012159842619084,-0.04495879513745797,2.1526915215084945,-0.918168858669607
2.1733919369114734,18.585650952433785,-0.04429293806630532,2.112397380344488,-0.8834418191932536
2.1646023477467056,18.16708774042833,-0.043602953581369765,2.0732347397100614,-0.8505436265001971
2.1559526542557377,17.756249137210574,-0.04289398132830923,2.0351512924674626,-0.8193326018767532
2.147446210771726,17.352924218818654,-0.042170453511809085,1.9980978914517609,-0.789681085313138
2.1390855462390217,16.95691159841266,-0.0414361918152347,1.9620283126081735,-0.7614737989061907
2.1308724780263604,16.568018863228694,-0.040694490311376307,1.9268990392314997,-0.7346064271276048
2.122808210342495,16.186062052792494,-0.039948186527279085,1.892669065130485,-0.7089843821083871
2.114893419442846,15.810865174799911,-0.039199722469208644,1.859299714795337,-0.6845217271937813
2.1071283274839625,15.44225975543354,-0.03845119711962852,1.8267544788683885,-0.6611402362439922
2.099512766604505,15.080084421205605,-0.03770441167494621,1.7949988634109582,-0.6387685696579871
2.092046234577879,14.724184509701715,-0.03696090859131234,1.7640002516279476,-0.6173415510115974
2.084727943184912,14.37441170685301,-0.036222005338361486,1.7337277768590929,-0.5967995306327933
2.077556860288941,14.030623708589602,-0.03548882362134526,1.704152205774995,-0.5770878244718876
2.0705317464552393,13.692683904929144,-0.034762314715673516,1.6752458308295848,-0.5581562183318792
2.06365118683763,13.360461084734123,-0.03404328146041979,1.646982371120616,-0.5399585289606837
2.05691361895403,13.033829159532267,-0.03333239737558202,1.619336880897954,-0.5224522147186663
2.050317356886558,12.712666904938736,-0.03263022329913614,1.5922856650373522,-0.5055980295594902
2.043860612368446,12.396857718348361,-0.031937221881982926,1.5658062008664024,-0.48935971493077723
2.037541513157252,12.086289391682666,-0.031253770229961175,1.5398770657905572,-0.4737037249390018
2.0313581190401857,11.78085389808146,-0.0305801709406976,1.514477870221493,-0.4585989807514687
2.0253084357713202,11.480447191523464,-0.02991666174795798,1.4895891953584903,-0.44401665074461305
2.019397003269404,11.184969595397654,-0.029197663271206365,1.4651867658995967,-0.4280915471795084
2.013627644467736,10.894325011294477,-0.02849592474547137,1.4412590751321726,-0.4128912403162621
2.0079969324687057,10.608420177894622,-0.027811195244831808,1.4177892588663672,-0.39837419516632866
2.0025014933175083,10.327165130191027,-0.027143196267142154,1.3947612181695954,-0.38450170782738796
1.9971380109904608,10.050473050793912,-0.02649162700333337,1.3721595758015492,-0.37123768189062845
1.9919032314011242,9.778260129654534,-0.025856168890031634,1.3499696355922215,-0.3585484248583227
1.9867939655582503,9.510445431642047,-0.025236489538708103,1.3281773445326543,-0.34640246257486346
1.9818070919921582,9.246950771451928,-0.024632246122213753,1.3067692573685517,-0.3347703698937976
1.976939558551047,8.987700595364544,-0.024043088288899336,1.2857325035052982,-0.32362461599650494
1.9721883836556244,8.732621869409062,-0.0234686606653251,1.2650547560495333,-0.3129394229484117
1.96755065708903,8.481643973521368,-0.022908605000618875,1.2447242028274152,-0.30269063622893677
1.9630235403891014,8.234698601315298,-0.022362561998667176,1.224729519233275,-0.29285560610426054
1.9586042669013977,7.991719665114509,-0.02183017287837047,1.2050598427746297,-0.2834130788296645
1.9542901415438574,7.75264320591798,-0.02131108069703244,1.1857047491906516,-0.2743430967725041
1.9500785403274068,7.517407307995786,-0.020804931467473534,1.1666542300312792,-0.2656269066394791
1.9459669096711028,7.285952017833324,-0.020311375095567755,1.1478986715933277,-0.2572468750741823
1.941952765545394,7.058219267162162,-0.019830066161517876,1.129428835118288,-0.24918641096417207
1.9380336924727184,6.834152799833923,-0.01936066456523939,1.1112358381640908,-0.24142989386209968
1.9342073424108286,6.6136981023105115,-0.018902836053658053,1.093311137070028,-0.23396260798367713
1.9304714335409139,6.396802337559478,-0.018456252645489554,1.075646510440319,-0.2267706812973032
1.9268237489796531,6.183414282157688,-0.018020592967118398,1.0582340435775752,-0.21984102926670554
1.9232621354317923,5.973484266419664,-0.017595542511489395,1.0410661138026616,-0.21316130284962062
1.9197845017975996,5.766964117379171,-0.017180793830436282,1.024135376602274,-0.20671984039288419
1.916388817747599,5.563807104463947,-0.016776046669570385,1.0074347525499445,-0.20050562309781703
1.9130731122752707,5.36396788771393,-0.016381008053713265,0.9909574149502237,-0.19450823375989862
1.9098387941640254,5.167574622437911,-0.015962173058739922,0.9729752378099609,-0.2228902287293602
1.9066847263254165,4.974766837983196,-0.01557850532734921,0.9551026067371783,-0.25285023989193467
1.9036039424946525,4.785522917949589,-0.01522933298029191,0.9373365935988979,-0.28428373537619045
1.9005896168053968,4.599821820409208,-0.014913923912262924,0.9196743818049196,-0.31708846676833413
1.8976350752323374,4.417643055998891,-0.014631491818332024,0.9021132622982654,-0.3511642449260061
1.8947338058807768,4.238966666777827,-0.014381201697274274,0.884650629912374,-0.38641272029977153
1.8918794682242728,4.063773205778048,-0.014162174867765989,0.8672839800853979,-0.4227371668646581
1.8890659013844917,3.8920437171770743,-0.013973493530044578,0.8500109059243445,-0.46004226876614035
1.8862871315412437,3.723759717023217,-0.013814204902435356,0.8328290956142284,-0.49823390878034934
1.8835373785550902,3.5589031744448043,-0.013683324959099167,0.8157363301698961,-0.5372189576767746
1.8808110618799376,3.397456493274735,-0.01357984179242554,0.7987304815307815,-0.5769050635530109
1.878102805838629,3.239402494021501,-0.013502718620661594,0.7818095110015729,-0.617200440184797
1.8754074443307027,3.0847243961168758,-0.013450896458601118,0.7649714680446807,-0.6580136534002274
1.8727200250381992,2.933405800369055,-0.013423296466435218,0.7482144894335093,-0.6992534044440022
1.8700358131926398,2.785430671547811,-0.013418821989158393,0.7315367987789249,-0.7408283092452617
1.8673502949641034,2.640783321025417,-0.013436360296203985,0.7149367064450195,-0.7826466724401283
1.864659180531661,2.4994483893934785,-0.013474784028220726,0.6984126098743675,-0.824616254926666
1.8619584068933324,2.361410828971291,-0.013532952355066057,0.6819629943475248,-0.8666440336445382
1.859244140473211,2.226655886115875,-0.013609711846147532,0.6655864342066258,-0.9086359521730578
1.8565127795834808,2.0951690832373444,-0.013703897051154077,0.6492815945786733,-0.9504966606283008
1.8537609567997713,1.9669362004154145,-0.013814330785942979,0.6330472336406224,-0.9921292432111096
1.8509855413096927,1.8419432565037788,-0.013939824114841267,0.6168822054757434,-1.0334349316116143
1.8481836412965253,1.7201764895982876,-0.014079176016831414,0.6007854635791815,-1.0743128023107762
1.8453526064229457,1.6016223367323406,-0.014231172718964817,0.5847560650802776,-1.1146594556337301
1.8424900304834675,1.486267412648285,-0.014394586675819413,0.5687931757602785,-1.1543686742017527
1.8395937542990035,1.3740984874765765,-0.014568175168818812,0.5528960759567969,-1.1933310581979952
1.8366618689327536,1.2651024631347951,-0.014750678493679028,0.5370641674610268,-1.231433634605456
1.8336927193135804,1.1592663482356294,-0.014940817698053763,0.5212969815306212,-1.2685594372933038
1.8306849083613246,1.0565772312665054,-0.015137291824505582,0.5055941881606154,-1.3045870545197775
1.827637301718262,0.9570222517727203,-0.015338774606118575,0.48995560677724803,-1.3393901400879806
1.8245490332023255,0.8605885692404556,-0.015543910553249734,0.474381218545415,-1.3728368840386846
1.8214195111110074,0.7672633293348881,-0.015751310359930753,0.4588711805102566,-1.4047894383986366
1.8182484255203053,0.6770336271011104,-0.015959545547090375,0.4434258418275053,-1.435103293135601
1.8150357567409117,0.589886466680742,-0.0161671422468456,0.42804576237617237,-1.4636265971213107
1.8117817851144935,0.5058087170339931,-0.01637257401733623,0.4127317340913174,-1.4901994185999967
1.8084871023566982,0.4247870630844375,-0.01657425356061621,0.39748480540424713,-1.5146529394478323
1.8051526246809826,0.34680795162076805,-0.016770523196540585,0.38230630923244313,-1.5368085774544418
1.8017796079690442,0.27185753119540834,-0.016959643922842063,0.36719789502117733,-1.5564770310610805
1.7983696652902679,0.19992158515313463,-0.01713978286492151,0.35216156540156873,-1.5734572415982548
1.794924787115053,0.13098545680370677,-0.01730899888722604,0.3371997180926773,-1.5875352692948397
1.791447364616338,0.06503396562117558,-0.017465226099925662,0.32231519373260137,-1.5984830814991537
1.7879402165115819,0.0020513132113109123,-0.017606254947636173,0.3075113303660698,-1.6060572551268575
1.7844066199660522,-0.057979022358125576,-0.017729710507659886,0.2927920253282887,-1.6099976010166321
1.7808503461604752,-0.11507440541315361,-0.01783302754810963,0.2781618052219795,-1.6100257266402858
1.777275701226412,-0.16925317639007176,-0.017913421792523587,0.26362590454719936,-1.6058435669623599
1.7736875733778747,-0.22053480216976595,-0.0179678566928466,0.2491903532497085,-1.5971319333601368
1.7700914872282483,-0.268940044785424,-0.017993004803419716,0.23486207290685213,-1.5835491606174343
1.7664936664943207,-0.3144911501082177,-0.017985202535856778,0.22064898032110744,-1.5647299768348493
1.76290110658142,-0.35721205771157116,-0.017940396593151234,0.20656009571246214,-1.5402847876146828
1.7593216589599745,-0.3971286322974734,-0.01785407962130308,0.1926056501465336,-1.5097996642337954
1.7557641298585702,-0.4342689155913888,-0.017721211392739303,0.1787971827926385,-1.4728374703456282
1.7522383967359365,-0.4686633951038601,-0.01753611983359704,0.1651476123320656,-1.4289407736830386
1.7487555474631877,-0.5003452820674852,-0.01729237289389224,0.15167125730420447,-1.3776374961943654
1.745328049500277,-0.5293507844061196,-0.01698260673521335,0.138383766082119,-1.318450692971341
1.7419699601804495,-0.555719350728836,-0.01659828646306182,0.12530189714506018,-1.2509144536276937
1.7386971955187467,-0.5794938468161064,-0.016129360153966432,0.1124430637276482,-1.1745987077753661
1.7355278853889002,-0.6007206057923042,-0.01556374114449947,0.09982452603435649,-1.089146635951688
1.7324828601763476,-0.6194492673319161,-0.014886510981027374,0.0874620893617295,-0.9943291882312224
1.7295863424901423,-0.6357322939884469,-0.014078665881024223,0.0753681772035549,-0.8901211810313021
1.7268669643088743,-0.6496240381082998,-0.01311511593165656,0.06354926399494776,-0.7768009320594593
1.7243593075466954,-0.6611792656387365,-0.01196145169013402,0.05200301130943015,-0.6550672719278785
1.7221063023482257,-0.6704511954144223,-0.01056860029456168,0.04071628644745875,-0.526149664505196
1.7201631000545607,-0.6774895130806939,-0.008863422642087808,0.02966689021528316,-0.3918570369457501
1.7186038264848307,-0.6823397122698296,-0.006729313055211629,0.01883510167604336,-0.2544786049856327
1.7175358135991132,-0.6850474477654913,-0.0039508158019643524,0.008242253280608734,-0.11644511623187914
