x,y,v_x,v_y,omega
2.375,32.48,0.0,2.1538461538461537,-2.612244897959184
2.3745544067205513,32.03204387374985,-0.004243745518557938,2.112402667583825,-2.484308961942542
2.3732700007826444,31.592660815852955,-0.00798869198531968,2.0721978838151784,-2.36542553771512
2.371245795085997,31.161597163824144,-0.011289457506556685,2.0331702307449295,-2.2547447473408577
2.3685700128155878,30.738611747874923,-0.014194183164008313,1.9952623021047677,-2.1515121829825747
2.3653213586419604,30.323475055100293,-0.016745380394347673,1.9584204862250645,-2.0550566284700715
2.3615701247951804,29.91596846712398,-0.01898065624165275,1.9225946373588563,-1.9647795504821168
2.3573791556301393,29.51588356295661,-0.02093333580635955,1.8877377832827655,-1.8801460771777854
2.352804690594472,29.123021479970014,-0.02263299786666019,1.8538058642086455,-1.8006772314777866
2.347897102440342,28.73719232684851,-0.024105936934577882,1.8207574988532764,-1.7259432261403445
2.3427015449684134,28.3582146431807,-0.025375562798075745,1.7885537741734985,-1.6555576602511928
2.3372585224615556,27.985914901032114,-0.026462746791048465,1.7571580558130169,-1.5891724832683198
2.331604391181199,27.620127044413035,-0.027386122545680472,1.7265358167496396,-1.5264736145121844
2.3257718017997138,27.260692063044615,-0.02816234775417898,1.6966544819972167,-1.4671771239005391
2.3197900903782656,26.907457597245294,-0.028806332450090184,1.6674832875201382,-1.411025894527793
2.31368562443122,26.560277571119645,-0.02933143847415245,1.6389931517717424,-1.3577866999649522
2.307482109712545,26.219011851543137,-0.029749654084654725,1.6111565584807404,-1.3072476393727712
2.3012008625900013,25.88352593070629,-0.030071747082428216,1.5839474494892185,-1.2592158820508095
2.2948610522171555,25.553690630217147,-0.030307399325630202,1.5573411265978458,-1.213515680188954
2.2884799161532046,25.22938182496652,-0.03046532509294758,1.5313141615033667,-1.1699866145885325
2.282072952601195,24.910480185141132,-0.03055337540238172,1.5058443130241308,-1.128482043174579
2.275654092023923,24.59687093492864,-0.030578630095449925,1.48091045090442,-1.0888677263898343
2.269245138541341,24.28844516597316,-0.030459022119615535,1.4564778248620163,-1.0486485585279324
2.2628653847327747,23.98509800966128,-0.0303005379619682,1.4325427114416263,-1.0103334636300778
2.2565225294406397,23.68672690272046,-0.03010760767741344,1.4090868784709298,-0.9738092352877645
2.2502233873261135,23.39323302019126,-0.02988422198474094,1.3860929551405161,-0.9389706721392777
2.2439739764566187,23.10452109992262,-0.029633976772352903,1.3635443807512675,-0.9057199223016164
2.2377795970494407,22.820499277446658,-0.02936011281981396,1.3414253571150394,-0.8739658886464421
2.2316449023183296,22.541078930497722,-0.02906555128600867,1.3197208043034099,-0.8436236886189287
2.225573962261395,22.26617453250166,-0.028752925446702812,1.298416319468636,-0.8146141630178136
2.2195703211334346,21.995703514416306,-0.028424609105299845,1.277498138487101,-0.7868634287846566
2.213637049262202,21.729586134354278,-0.028082742049295912,1.2569531001988674,-0.7603024714024452
2.207776789794596,21.467745354464427,-0.027729252880287755,1.2367686130378122,-0.7348667729885944
2.201991800893987,21.21010672458958,-0.027365879506461015,1.2169326238654907,-0.7104959725939445
2.1962839938527963,20.956598272255647,-0.026994187552499046,1.197433588838636,-0.6871335555951753
2.1906549675340097,20.707150398581287,-0.026615586912136276,1.1782604461552455,-0.6647265693996632
2.185106039510766,20.461695779728522,-0.02623134664256298,1.1594025905377543,-0.6432253629748507
2.179638274233704,20.22016927354304,-0.02584260837707957,1.1408498493239954,-0.6225833479735254
2.174252508520811,19.982507831059017,-0.025450398412376358,1.1225924600476638,-0.6027567794562274
2.1689493746335433,19.748650412567017,-0.025055638609217095,1.1046210493999546,-0.5837045544159499
2.163729321175445,19.51853790796535,-0.024659156229818235,1.0869266134730515,-0.5653880264915313
2.158592632025049,19.292113061135275,-0.024261692821571923,1.0695004991943042,-0.5477708354173861
2.1535394434930875,19.069320398098803,-0.023863912244725245,1.0523343868673414,-0.5308187499008885
2.1485697598746363,18.85010615873471,-0.02346640793100015,1.0354202737430853,-0.5144995227468665
2.1436834675495535,18.634418231843963,-0.023069709450742267,1.01875045854976,-0.4987827571631162
2.1388803477691494,18.42220609337,-0.02267428845787095,1.002317526916547,-0.48363978328318113
2.1341600882532465,18.213420747592547,-0.02228056407453533,0.9861143376306241,-0.4690435440342537
2.129524988355757,18.008161886866837,-0.021863244472982435,0.9687319549952104,-0.48284650183938754
2.124975051002549,17.806541148021672,-0.021469492224240556,0.9514655578158854,-0.49861767913257266
2.120505307827686,17.608534514778107,-0.02109949039349901,0.9343119016466221,-0.5162437460658006
2.1161107638264856,17.41411863877947,-0.020753309617934503,0.9172678697689695,-0.5356144084549754
2.1117864199851004,17.223270813321587,-0.020430917442875857,0.9003304679251561,-0.5566221667292617
2.107527294026,17.035968948145417,-0.0201321869295068,0.8834968194669213,-0.5791620822274609
2.1033284394169254,16.852191545206573,-0.01985690458549047,0.8667641609030219,-0.6031315499236696
2.0991849627805563,16.67191767533952,-0.019604777665644498,0.8501298378308036,-0.6284300766868359
2.0950920398326525,16.49512695573713,-0.019375440885821067,0.8335913012396066,-0.654959064195142
2.0910449299677523,16.321799528168476,-0.019168462589420236,0.8171461041761499,-0.6826215956364111
2.087038989603605,16.151916037859717,-0.018983350402458167,0.8007918987644097,-0.7113222253299365
2.0830696843883185,15.985457612964087,-0.018819556409796198,0.784526433574912,-0.7409667704031497
2.0791326003676813,15.822405844547934,-0.018676481881985865,0.7683475513408262,-0.7714621036482184
2.0752234542042594,15.662742767019964,-0.018553481579172863,0.7522531870208025,-0.8027159466687642
2.071338102534608,15.506450838930608,-0.018449867655604652,0.7362413662111759,-0.834636662405113
2.0674725505462943,15.35351292406757,-0.018364913185477127,0.7203102039130008,-0.8671330460974634
2.0636229598523674,15.20391227277215,-0.018297855328110374,0.7044579036624208,-0.9001141137096448
2.0597856557374037,15.0576325033988,-0.018247898147737234,0.6886827570361692,-0.9334888867912058
2.055957133846339,14.914657583837506,-0.018214215100494747,0.6729831435475818,-0.967166172701836
2.0521340663849448,14.774971813015004,-0.018195951198501245,0.6573575309524466,-1.001054339058893
2.048313307898996,14.638559802286217,-0.018192224858152015,0.6418044759883837,-1.0350610811953362
2.044491900698011,14.505406456621923,-0.018202129436944468,0.6263226255763117,-1.0690931813308215
2.040667079988809,14.375496955492018,-0.018224734460216992,0.6109107185180106,-1.1030562580622034
2.0368362787841936,14.248816733335985,-0.018259086536119254,0.5955675877299252,-1.1368545046702774
2.032997132652743,14.125351459503012,-0.018304209953887415,0.5802921630602885,-1.1703904146163289
2.0291474843770962,14.005087017533508,-0.01835910695703348,0.565083474744509,-1.203564492463993
2.0252853885902784,13.888009483641252,-0.018422757679327068,0.5499406575627084,-1.2362749483082507
2.0214091164625723,13.774105104240952,-0.018494119727398475,0.5348629557734852,-1.2684173736234237
2.017517160515312,13.663360272349227,-0.018572127389365714,0.5198497289096113,-1.2998843962554836
2.0136082396428066,13.555761502667579,-0.018655690444019556,0.5049004585346502,-1.330565312081078
2.0096813044295145,13.4512954051336,-0.018743692539715025,0.49001475607466694,-1.3603456906374658
2.0057355428567005,13.349948656700825,-0.01883498910613018,0.47519237185653435,-1.3891069517963748
2.0017703865012435,13.251707971077959,-0.018928404755365346,0.4604332055041058,-1.4167259103148644
1.997785517339188,13.156560066124097,-0.01902273012135394,0.44573731786601983,-1.443074284854527
1.9937808752782449,13.064491628557356,-0.019116718078105336,0.43110494467438865,-1.4680181678277238
1.9897566665569313,12.9754892755895,-0.019209079267739352,0.41653651216235693,-1.4914174522226744
1.9857133731636862,12.889539513047882,-0.019298476858403982,0.4020326549006437,-1.5131252114029583
1.9816517634473803,12.806628689487702,-0.019383520439746577,0.38759423614870414,-1.532987027807982
1.9775729041115286,12.726742945731335,-0.01946275894931684,0.37322237105478917,-1.5508402665527297
1.973478173808647,12.649868159197158,-0.019534672506698686,0.3589184530802098,-1.5665132902152492
1.9693692785791075,12.575989882296906,-0.0195976630127252,0.344684184065068,-1.5798246117210566
1.9652482694112292,12.505093274088807,-0.019650043348021753,0.3305216083929952,-1.5905819833467334
1.9611175622370827,12.437163024274145,-0.019690024977183043,0.3164331517466471,-1.5985814217035377
1.9569799607227871,12.372183268519244,-0.01971570373039363,0.3024216649667103,-1.6036061714614982
1.9528386822645796,12.310137493977756,-0.01972504349063036,0.2884904735236486,-1.605425615018933
1.948697387665005,12.25100843378588,-0.019715857457698445,0.27464343306564265,-1.6037941420091792
1.9445602150406354,12.194777949217954,-0.019685786583918136,0.26088499139078836,-1.5984500024724688
1.9404318186089473,12.14142689814063,-0.019632274670253205,0.2472202569647019,-1.589114182160794
1.9363174131252745,12.090934988420571,-0.019552539459963904,0.2336550737025347,-1.5754893598881887
1.9322228249034124,12.043280615070405,-0.019443538843484758,0.2201961010609616,-1.5572590381192526
1.9281545505750013,11.998440680232285,-0.01930193095090617,0.20685089739731707,-1.5340869834640638
1.9241198250544072,11.956390395707647,-0.019124026388086857,0.19362800283732828,-1.5056171796462767
1.9201267006278138,11.917103068809439,-0.018905730055657873,0.1805370152408486,-1.4714745906279316
1.916184139759466,11.880549874082192,-0.01864246869051239,0.16758864882815813,-1.4312671680733928
1.9123021252380585,11.84669961625703,-0.018329098180035232,0.15479475903052808,-1.3845897314335653
1.9084917928908731,11.815518494176594,-0.01795978131696697,0.1421683084022175,-1.3310306208131317
1.904765594630087,11.786969881997585,-0.017527821166711394,0.12972323615977296,-1.2701823940880679
1.9011375036475753,11.761014153556058,-0.017025426285781214,0.11747417756905268,-1.2016583248252115
1.8976232800835189,11.737608589144973,-0.01644336956237406,0.10543595967938844,-1.1251170402936856
1.8942408259639096,11.716707421379432,-0.015770479195811208,0.09362278094481685,-1.040298218624138
1.8910106749974607,11.698262096864376,-0.014992863341798186,0.08204697634144556,-0.9470725426616784
1.8879566896347724,11.68222184722255,-0.014092711540947269,0.07071730596165123,-0.8455083813913113
1.8851070805721766,11.668534661464317,-0.013046422388535275,0.05963684411674755,-0.7359545293524117
1.8824959336705827,11.65714869886261,-0.011821643340932086,0.048800894947139975,-0.6191304888667313
1.8801655532851895,11.64801401656911,-0.010372455567573758,0.03819607927666228,-0.4962008018488462
1.8781701994962594,11.641084107181772,-0.008630913850807923,0.027803057745615114,-0.3687885326141175
1.8765825762735773,11.636315939827071,-0.006489307317593231,0.017608059918213216,-0.23886501680247632
1.875507614108629,11.633665028397168,-0.0037484275866758827,0.007638715604660848,-0.1084591505270047
