x,y,v_x,v_y,omega
2.375,32.48,0.0,2.6666666666666665,-2.0
2.3746015416669013,31.952333001048952,-0.00398458333098881,2.6100033228437876,-1.8873485133925398
2.3734592670748103,31.435800838324724,-0.007438162589919268,2.5553183043984835,-1.7840552905693707
2.3716726747538823,30.930018900142457,-0.010427760619361669,2.5025010774241836,-1.689102668780412
2.3693287739433884,30.434623858211683,-0.013011247485576055,2.4514493418835532,-1.6016042423134915
2.3665037779884015,29.949272098881586,-0.015238712064295123,2.4020682514174037,-1.520785612862255
2.3632645458910315,29.473638301281515,-0.017153608909401777,2.3542697245833306,-1.4459682796269604
2.3596698129586047,29.007414145373172,-0.018793720414868702,2.3079718345000866,-1.3765561075060944
2.355771244258999,28.550307135314466,-0.020191966581186965,2.2630982660869745,-1.31202392086957
2.3516143387416144,28.102039525519487,-0.021377088592657578,2.219577831862804,-1.2519078566617179
2.347239207127627,27.662347338462762,-0.022374227547217216,2.17734403870446,-1.1957971791099982
2.342681242794308,27.230979464678843,-0.02320541578597181,2.1363346991347463,-1.1433273130218928
2.337971701701893,26.807696836598467,-0.023889995138181505,2.0964915816690004,-1.0941738965260368
2.333138204801159,26.392271668877274,-0.02444497386915672,2.0577600955429207,-1.0480476894529187
2.328205174207322,25.984486758742655,-0.024885332069214176,2.0200890058032845,-1.0046902021337207
2.3231942126449434,25.584134840632874,-0.025224283554573113,1.9834301752945052,-0.9638699326062082
2.318124434190506,25.191017990049673,-0.025473500989802188,1.9477383305375047,-0.9253791191353503
2.3130127531089033,24.80494707210701,-0.02564330982621962,1.9129708488891546,-0.8890309304329848
2.3078741365528765,24.425741230747768,-0.025742855734051648,1.8790875647032226,-0.8546570286656614
2.302721826034427,24.053227415027692,-0.025780249450442484,1.8460505924975696,-0.822105450804103
2.2975675318553357,23.68723993924039,-0.02576269234047163,1.8138241653754439,-0.7912387625143928
2.2924216040762837,23.327620073987063,-0.025696585450046185,1.782374487157784,-0.7619324459578994
2.2872931830914296,22.974215665584897,-0.025587624398497225,1.7516695968638925,-0.7340734888251348
2.282190332441653,22.626880781465097,-0.025440882099266926,1.7216792443341289,-0.7075591468963726
2.277120156132071,22.285475379439276,-0.02526088099655395,1.6923747759240737,-0.6822958565752115
2.2720889024070257,21.949864998915068,-0.025051656253896364,1.6637290293179703,-0.6581982773232241
2.267102055669733,21.619920472322,-0.024816811119029173,1.6357162366127063,-0.6351884468505763
2.2621644180067197,21.295517655169306,-0.024559565511106184,1.6083119349142614,-0.6131950343838338
2.257280181583018,20.976537173301057,-0.024282798725909563,1.5814928837682156,-0.5921526794156423
2.25245299300769,20.662864186042626,-0.023989087027372336,1.5552369888160809,-0.5720014051052356
2.247686010626372,20.354388164047904,-0.02368073678580868,1.5295232311311684,-0.5526860969961764
2.2429819555746366,20.051002680760533,-0.023359813731545123,1.5043316017425117,-0.5341560389916017
2.2383431573200245,19.752605216495887,-0.023028168814573164,1.4796430409039552,-0.516364499613287
2.2337761901931152,19.459097493866125,-0.02264150245452127,1.4554341853936918,-0.49788727494158347
2.2292867135877152,19.17038475462533,-0.022253263599478202,1.431693207014263,-0.48025046855920395
2.224874943139638,18.886375078784546,-0.021864440881291726,1.408403551393594,-0.46340595260463463
2.2205409088393244,18.60697978244781,-0.02147590212184608,1.3855494119737803,-0.44730887597926067
2.216284477877539,18.332113272490524,-0.02108840749601089,1.3631156875990362,-0.4319174059157464
2.212105375004355,18.061692909434633,-0.020702621235831276,1.341087942959885,-0.41719249263646496
2.2080032006761936,17.79563887797159,-0.020319122045777873,1.3194523716705178,-0.40309765480191045
2.2039774472338247,17.533874064626936,-0.019938412377913058,1.2981957617760247,-0.3895987837012498
2.2000275133262717,17.276323942098934,-0.019560926697615718,1.2773054635040288,-0.37666396435925553
2.1961527167710444,17.022916459839397,-0.019187038854658636,1.256769359091321,-0.36426331192969474
2.192352306019516,16.773581940477204,-0.018817068660624464,1.2365758345306075,-0.35236882191818725
2.1886254703772936,16.52825298171458,-0.018451287761599832,1.2167137530956103,-0.3409542329304851
2.1849713491126774,16.28686436335356,-0.018089924884564155,1.197172430514626,-0.3299949007775599
2.181389039571552,16.04935295913475,-0.01773317052668595,1.1779416116734294,-0.31946768288898497
2.177877604404016,15.815657653093592,-0.017381181148679925,1.1590114487381604,-0.3093508320927435
2.1744360779965164,15.585719260160005,-0.01703408292631187,1.140372480597716,-0.2996238989144059
2.1710634721930915,15.359480450746911,-0.016691975107936168,1.1220156135332262,-0.29026764163302854
2.167758781380248,15.136885679090636,-0.016354933020500353,1.103932103029541,-0.28126394340635724
2.164520987002032,14.917881115122647,-0.016023010761656565,1.086113536650342,-0.272595735845058
2.161349061564727,14.702414579667153,-0.015696243611397133,1.0685518179045945,-0.26424692847568404
2.1582419721842965,14.49043548277293,-0.015374650192909031,1.0512391510376278,-0.25620234358574395
2.1551986837241,14.281894765000647,-0.015058234409056737,1.0341680266852171,-0.24844765599228916
2.152218161565394,14.076744841498755,-0.014746987178001032,1.0173312083337036,-0.24096933731851683
2.1492993740487045,13.874939548712039,-0.014440887988895064,1.0007217195334426,-0.23375460440154888
2.146441294620182,13.676434093577015,-0.014139906296327751,0.9843328318167847,-0.22679137148928563
2.1436451393317832,13.481362301269382,-0.013821646587662034,0.9663850912595505,-0.25515310756459
2.140909522906625,13.289869176633157,-0.013534517663921414,0.948546155102698,-0.28506473460492343
2.1382282702530953,13.101933248660206,-0.013278008871371592,0.9308131246268244,-0.3164224424907212
2.1355953151302236,12.917533615037396,-0.01305154235734628,0.9131832116012739,-0.3491246139623269
2.1330047129550316,12.736649920437099,-0.012854479394574127,0.8956537344017031,-0.38307160344385427
2.1304506523987863,12.559262335547931,-0.012686126167878401,0.8782221144899667,-0.4181655199264357
2.127927465876039,12.385351536774166,-0.01254573905959483,0.8608858732476807,-0.45431001302642127
2.125429639023415,12.21489868653368,-0.012432529466643298,0.8436426291572051,-0.491410061332685
2.122951819258856,12.047885414085336,-0.012345668178949531,0.8264900953262161,-0.5293717621491615
2.1204888235063795,11.884293796817257,-0.012284289345816529,0.8094260773545549,-0.5681021217238067
2.118035645166411,11.724106341927335,-0.01224749405386617,0.7924484715446634,-0.60750884503301
2.115587460407296,11.5673059684269,-0.0122343535372827,0.7755552634596924,-0.6475001241606541
2.1131396338497415,11.413875989397297,-0.012243912038265489,0.7587445268363345,-0.6879844242730021
2.1106877237126334,11.263800094427399,-0.012275189332811517,0.7420144228626344,-0.7288702661437838
2.1082274864859354,11.117062332157683,-0.012327182934170833,0.7253631998345152,-0.7700660041275253
2.105754881194166,10.973647092853373,-0.012398869983521426,0.708789193208596,-0.8114795984125125
2.1032660733123576,10.8335390909252,-0.012489208834563023,0.6922908260731186,-0.8530183803068303
2.1007574383953216,10.696723347311533,-0.012597140335799261,0.6758666100635393,-0.8945888092206424
2.0982255654806186,10.563185171629712,-0.012721588811228793,0.659515146754656,-0.9360962199040518
2.0956672603257998,10.432910143997532,-0.012861462736959515,0.6432351295671377,-0.9774445583812198
2.0930795485413185,10.305884096417504,-0.013015655107853576,0.6270253462331232,-1.0185361048864736
2.0904596786820675,10.182093093606863,-0.013183043484656787,0.6108846818732916,-1.059271181955364
2.0878051253627907,10.061523413144869,-0.01336248970811214,0.5948121227466479,-1.0995478456514398
2.085113592465755,9.944161524795764,-0.013552839262244373,0.5788067607443896,-1.1392615577162428
2.082383016513104,9.82999406885024,-0.013752920264264732,0.5628677987108459,-1.1783048362141093
2.079611570281347,9.719007833310371,-0.01396154205330762,0.5469945566878498,-1.2165668820033957
2.076797666741577,9.611189729722156,-0.014177493344388881,0.5311864791943133,-1.2539331781006755
2.073939963416391,9.506526767435673,-0.01439953990747263,0.5154431436705291,-1.2902850587138828
2.07103736725322,9.405006026044902,-0.01462642172423964,0.49976427023720305,-1.3254992444049563
2.068089040124102,9.306614625726898,-0.014856849566938501,0.48414973294282454,-1.3594473395045463
2.0650944050739657,9.2113396951626,-0.015089500934424646,0.4685995727001546,-1.3919952875456163
2.062053153453525,9.119168336678204,-0.015323015269981052,0.4531140121438187,-1.4230027801178542
2.05896525308917,9.03008758819615,-0.015555988373566412,0.4376934726767086,-1.4523226141849228
2.0558309576610627,8.944084381527123,-0.015786965907510865,0.4223385940135589,-1.4797999925741219
2.0526508174824034,8.861145496468168,-0.016014435879082314,0.4070502565760012,-1.5052717620775382
2.049425691897954,8.781257510096093,-0.016236819965411525,0.39182960714473164,-1.5285655834473448
2.0461567635488604,8.704406740558532,-0.016452463525521658,0.37667808823087784,-1.5494990276034273
2.042845554784305,8.630579184566518,-0.01665962412003534,0.3615974716892687,-1.5678785927143073
2.039493946539234,8.55976044768169,-0.01685645833067687,0.3465898971590213,-1.583498637632396
2.036104200042392,8.491935666368011,-0.017041006637739085,0.3316579159777746,-1.5961402287118662
2.032678981771371,8.427089420643409,-0.017211176072470098,0.3168045412682409,-1.6055698996786971
2.029221392133106,8.365205636023767,-0.017364720310177377,0.3020333049281716,-1.611538328496093
2.025734998421629,8.306267473306061,-0.017499216804600058,0.28734832224888257,-1.613778941864973
2.0222238726933477,8.250257204599812,-0.017612040478210387,0.2727543648136069,-1.6120064682804915
2.0186926353089234,8.197156073904605,-0.017700333366030826,0.2582569421384624,-1.6059154761411458
2.0151465050278095,8.146944140476489,-0.01776096944510781,0.24386239214271477,-1.5951789567946433
2.0115913567193355,8.099600103276419,-0.01779051363963257,0.22957797985796521,-1.579447047311911
2.008033787992801,8.055101105027266,-0.01778517362571412,0.21541200263356444,-1.5583460396594775
2.0044811963811267,8.013422514943674,-0.017740742491029353,0.2013738982023516,-1.5314778997758034
2.000941869192027,7.974537690229685,-0.01765252939996906,0.18747434893754977,-1.498420633447228
1.9974250888570844,7.938417718248896,-0.017515273949453403,0.17372537087033443,-1.4587300024139669
1.9939412577128433,7.9050311442908665,-0.01732303749295842,0.16014036870997578,-1.4119433368949204
1.9905020478920912,7.874343694711289,-0.01706906071456265,0.14673412708580783,-1.357586540187922
1.9871205848144942,7.846318012787158,-0.016745570061406458,0.1335226921555097,-1.2951858734057076
1.9838116773613608,7.820913436033187,-0.016343504469928792,0.12052307538419463,-1.2242867763732792
1.9805921153996897,7.798085860215224,-0.01585211514678159,0.1077526827954474,-1.144482824365985
1.9774810678704442,7.7777877576583485,-0.015258360145673593,0.09522834277330046,-1.055458833303438
1.9745006354096384,7.759968444452937,-0.01454596446238358,0.08296478928079784,-0.9570527273488113
1.9716766456472135,7.744574715895581,-0.013693933161865318,0.07097249629276944,-0.8493400833221854
1.9690398355584666,7.731551971854145,-0.012674167725604351,0.05925494412160308,-0.7327411378890701
1.9666276598065562,7.720845887466822,-0.011447589793499377,0.047805899751611036,-0.6081387974051193
1.9644871381088886,7.71240445972175,-0.009957627183176259,0.03660837769909911,-0.47697366016935994
1.962679552785747,7.70617971948834,-0.00811822604824116,0.02563902463500488,-0.34124924161180975
1.9612890731752366,7.702127183860306,-0.005786570056861767,0.014886331645341956,-0.2033543197622097
1.960443437153778,7.7001972158362015,-0.0026697901577249026,0.004413348595698833,-0.06562702310373555
