x,y,v_x,v_y,omega
2.375,32.48,0.0,3.641025641025641,-6.285714285714286
2.3726837739888564,31.65524157510686,-0.020141095749072687,3.5307867493494554,-5.749820595132707
2.366181971845835,30.855128384343768,-0.0363963141902446,3.4267192572861385,-5.283305636591898
2.356304908550581,30.078304148423378,-0.049491192725005816,3.3282740985433397,-4.874702880497425
2.343712892074626,29.32353094371911,-0.06000460271808255,3.2349711597546515,-4.5147700530958605
2.3289462100095437,28.589674687718713,-0.06840132828263305,3.1463875880748926,-4.195999937340979
2.312448538346831,27.875693020706414,-0.07505668617574197,3.062148646814628,-3.9122510263964965
2.294585357331343,27.180625074989507,-0.08027532265458966,2.9819204463758733,-3.6584656667847266
2.2756585403535827,26.50358275426775,-0.08430569454332172,2.9054040816394178,-3.4304528880030527
2.2559179842004267,25.843743237976085,-0.0873513154841228,2.8323308426359186,-3.2247196053946863
2.2355709342648047,25.20034249147522,-0.08957955352128669,2.7624582573716476,-3.038338368162096
2.2147895013538745,24.572669611112648,-0.09112855874767126,2.695566789259393,-2.868842973132126
2.193716750660144,23.960061868874227,-0.09211275163259218,2.631457056292084,-2.714145506519151
2.1724716567391984,23.361900348232496,-0.0926271955060684,2.5699474710273105,-2.5724699918688967
2.151153152954777,22.777606083347223,-0.09275109827150549,2.51087222362724,-2.4422990004325675
2.129843454150697,22.2066366296937,-0.09255063045962661,2.4540795472729697,-2.3223304478732993
2.1086107932457323,21.64848300668387,-0.09208120349659002,2.3994302180299436,-2.211442446213457
2.0875116830973446,21.102666962756864,-0.09138931953286566,2.346796250900513,-2.108664563540699
2.0665927922054506,20.568738521364722,-0.0905140795270858,2.2960597612050457,-2.0131542094631594
2.045892505051374,20.04627377271583,-0.08948841746488222,2.2471119661766696,-1.9241771425312841
2.0254422239165875,19.534872881397316,-0.08834011414195563,2.1998523061581983,-1.8410913091077703
2.0052674580211294,19.03415828432812,-0.08709263277507401,2.1541876683565304,-1.7633333876885517
1.985388737098619,18.54377305708659,-0.08576581002936276,2.110031698961129,-1.6904075403663108
1.9658223795786864,18.063379429656848,-0.08437642927439944,2.067304191732297,-1.6218759727970338
1.9465811399923654,17.59265743515877,-0.08293869756317476,2.025930543033586,-1.5573509822502474
1.9276747557547016,17.131303677256458,-0.08146464363390005,1.9858412648126194,-1.496488235027117
1.9091104098818654,16.679030203749,-0.07996445091250196,1.9469715482957093,-1.4389810634442657
1.8908931232890613,16.23556347539111,-0.07844673685101342,1.909260872207677,-1.384555611537996
1.8730260879511533,15.80064342031412,-0.07691878782644727,1.872652650200921,-1.3329666898096895
1.855510950280875,15.374022565556405,-0.07538675713249188,1.8370939129096395,-1.2839942243738904
1.8383480525036682,14.955465238195675,-0.07385583223452587,1.8025350206619422,-1.2374402060729897
1.8215366385154592,14.544746829427993,-0.07233037635859632,1.7689294034048608,-1.193126061486166
1.8050750296459457,14.14165311567968,-0.07081404859369547,1.7362333248413404,-1.1508903810654632
1.7889607748720424,13.745979631484825,-0.06930990596198355,1.704405668157389,-1.1105869504901587
1.7731907792995547,13.35753108942685,-0.06782049032051983,1.6734077410423884,-1.0720830402235348
1.7577614141281304,12.976120842938716,-0.06634790247447372,1.6432030979848524,-1.035257915564561
1.7426686108127938,12.601570388192773,-0.06489386548497543,1.6137573780668233,-1.000001535513195
1.7279079417167749,12.233708901695902,-0.06345977882823067,1.585038156688561,-0.9662134137529761
1.713474689200324,11.87237281054557,-0.062046764793080036,1.5570148098360501,-0.9338016191910802
1.6993639047967757,11.51740539260338,-0.06065570828125631,1.5296583896612528,-0.9026818969388731
1.6855704598806183,11.168656404109868,-0.059287290989677784,1.5029415102823367,-0.8727768934899245
1.672089089024765,10.825981732501813,-0.0579420208003481,1.476838242831193,-0.8440154722583153
1.6589365149172903,10.48924566886678,-0.056428188829866444,1.4513014409516924,-0.8107435477793875
1.646127468993098,10.158317816740507,-0.054954819206589955,1.426332055798508,-0.7791560204399713
1.6336527193462649,9.833070228968023,-0.0535212646789159,1.4019078378752605,-0.7491459878899832
1.6215031918814362,9.513379946102646,-0.052126800232635356,1.3780076653019306,-0.7206146204229228
1.6096699863174089,9.199128745280557,-0.050770639454560666,1.354611472281433,-0.6934704553977766
1.5981443887078044,8.89020290492671,-0.049451948455042236,1.3317001829694144,-0.6676287614919726
1.5869178810003286,8.586492984103781,-0.04816985769692134,1.3092556502734447,-0.6430109650853212
1.5759821480819494,8.287893615419506,-0.046923472028115636,1.2872605991550468,-0.6195441320089006
1.5653290826939061,7.994303310500925,-0.045711879172261174,1.2656985740499918,-0.5971604987034874
1.5549507885461198,7.705624277128319,-0.044534156895445966,1.24455389005964,-0.5757970475370121
1.5448395819139953,7.421762247197531,-0.04338937903606946,1.2238115875993913,-0.5553951216445228
1.5349879919606295,7.1426263147482985,-0.0422766205584163,1.2034573902200172,-0.5359000751899357
1.5253887599930982,6.8681287833584115,-0.0411949617679434,1.1834776653442092,-0.5172609554171907
1.5160348378319843,6.598185022260115,-0.040143491806959974,1.1638593876844563,-0.499430213268494
1.5069193854479075,6.33271333058649,-0.03912131153283843,1.1445901051296823,-0.48236343970695
1.498035767996959,6.071634809202244,-0.03812753586671388,1.125657906907227,-0.4660191251967707
1.4893775523681136,5.8148732396158564,-0.03716129568846166,1.1070513938439603,-0.45035844007214304
1.4809385033394624,5.562354969508732,-0.03622173934328932,1.0887596505658257,-0.4353450337706791
1.4727125794261107,5.314008804452417,-0.03530803381629123,1.070772219489077,-0.42094485112341606
1.4646939284905258,5.069765905417228,-0.03441936562357824,1.0530790764690892,-0.40712596408423224
1.4568768831756922,4.829559691705121,-0.033554941461931054,1.0356706079840226,-0.39385841745047373
1.4492559562124543,4.593325748966752,-0.03271398865318092,1.0185375897409354,-0.3811140872762655
1.4418258356446636,4.361001741987398,-0.031895755414564464,1.0016711666012836,-0.36886655081279496
1.4345813800090563,4.132527331949159,-0.03109951098201975,0.985062833731225,-0.3570909669278522
1.4275244489692835,3.9079527844007202,-0.030265106755136453,0.9677593188638909,-0.3648376164782251
1.420655087969735,3.687343391010483,-0.02946846715398089,0.9505832323555675,-0.37494793828282574
1.4139646246495645,3.4706702826997606,-0.028709474760544033,0.9335307529550637,-0.38729134035683727
1.4074444274521412,3.257905451043438,-0.027987892173573975,0.9165982179694881,-0.401741506194958
1.4010859319274225,3.049021712673458,-0.027303373258761532,0.8997821156825031,-0.4181760831149598
1.3948806645542309,2.8439926753602762,-0.026655473464643722,0.8830790783451694,-0.4364763836434459
1.3888202642890755,2.6427927056441973,-0.026043659275839532,0.8664858757076764,-0.4565270986306835
1.3828965020323896,2.445396897895481,-0.025467316869253184,0.8499994090637796,-0.4782160208425125
1.3771012981885904,2.2517810446880873,-0.02492576003334801,0.8336167057831192,-0.5014337778292582
1.3714267384831273,2.0619216083774,-0.0244182374054629,0.817334914309807,-0.5260735729146987
1.3658650881876016,1.8757956937767624,-0.023943939077370507,0.8011512996087721,-0.5520309331827309
1.3604088048929994,1.693381021831648,-0.023502002614822565,0.785063239044392,-0.5792034633656555
1.3550505499610395,1.514655904193468,-0.023091518532656116,0.7690682186789258,-0.6074906045560505
1.3497831987745263,1.3395992185975452,-0.022711535263110313,0.7531638299812579,-0.6367933966740452
1.3445998498993699,1.1681903849516608,-0.022361063651293932,0.7373477669394787,-0.6670142436233626
1.339493833263526,1.0004093420426194,-0.0220390810082171,0.7216178235739218,-0.6980566800625895
1.3344587174515121,0.8362365247688146,-0.021744534748426015,0.7059718918504735,-0.7298251387025051
1.3294883162073001,0.6756528418063183,-0.021476345636026625,0.69040795999733,-0.762224717015574
1.324576694233289,0.5186396536149545,-0.021233410659721674,0.6749241112319351,-0.7951609422094368
1.3197181723686668,0.36517875068878425,-0.021014605554385196,0.6595185229086526,-0.8285395332718236
1.3149073322267955,0.21525233195257698,-0.02081878698362779,0.6441894661018654,-0.8622661588391147
1.310139020368284,0.06884298320183291,-0.020644794394732876,0.628935305643725,-0.8962461895739702
1.3054083520841526,-0.07406634452088667,-0.020491451554234544,0.6137545006407764,-0.9303844436581589
1.3007107148619548,-0.21349235672698796,-0.020357567769225555,0.5986456054992425,-0.9645849239139241
1.296041771606932,-0.34945143758132247,-0.020241938796191263,0.5836072714949778,-0.9987505449598129
1.291397463690262,-0.481959672430321,-0.02014334743571954,0.5686382489311134,-1.0327828486836805
1.286774013897258,-0.611032870899848,-0.020060563807792857,0.5537373899343444,-1.0665817061753007
1.2821679293500372,-0.7366865907165305,-0.019992345298476242,0.5389036519498259,-1.1000450041023975
1.2775760044817814,-0.8589361624213296,-0.019937436164617926,0.5241361020049189,-1.1330683133357597
1.2729953241433094,-0.9777967151616309,-0.01989456677861624,0.5094339218237746,-1.1655445374303532
1.2684232669273834,-1.0932832037685074,-0.019862452490306545,0.4947964138882066,-1.1973635383492915
1.263857508802085,-1.2054104373495633,-0.019839792077506954,0.48022300855573596,-1.2284117365760043
1.2592960271518479,-1.314193109655264,-0.019825265750641464,0.46571327236341914,-1.258571682497707
1.2547371053334706,-1.4196458315086957,-0.019817532670031123,0.45126691766641136,-1.2877215956624852
1.2501793378648363,-1.5217831656254432,-0.01981522792678946,0.43688381378354246,-1.3157348682172945
1.245621636376347,-1.6206196641931712,-0.019816958929639156,0.4225639998488737,-1.3424795285324036
1.2410632364694634,-1.7161699096296346,-0.019821301130219373,0.4083076995986413,-1.367817660721553
1.2365037056435244,-1.8084485589945913,-0.01982679300838101,0.39411533835752227,-1.391604775495404
1.2319429524715326,-1.8974703925963183,-0.0198319302263297,0.37998756252703625,-1.4136891275679355
1.227381237228218,-1.983250367407983,-0.019835158845971507,0.36592526192219627,-1.43391097471501
1.22281918419992,-2.0658036759942817,-0.019834867487053386,0.3519295953499811,-1.4521017736263004
1.2182577959362317,-2.1451458117450386,-0.019829378284149147,0.338002019874008,-1.4680833079917692
1.2136984697386415,-2.2212926413207015,-0.01981693647750454,0.3241443242621928,-1.4816667449620713
1.20914301672253,-2.2942604853348243,-0.019795698445202303,0.3103586671649746,-1.492651617423556
1.2045936838370193,-2.3640662084295556,-0.019763717950543994,0.29664762061530076,-1.5008247317322048
1.200053179283984,-2.4307273200392245,-0.019718930336718878,0.283014219468781,-1.5059590040936857
1.1955247018453248,-2.4942620872789405,-0.019659134347274024,0.26946201739832354,-1.5078122342967268
1.1910119747096686,-2.554689661529572,-0.019581971180172072,0.25599514999844325,-1.5061258339368955
1.186519284490984,-2.6120302204007473,-0.019484900286649978,0.24261840540308313,-1.5006235389725116
1.1820515262597069,-2.666305126811828,-0.019365171289673362,0.22933730251933446,-1.491010155432728
1.1776142555736604,-2.717537106891996,-0.019219791197686766,0.21615817643864285,-1.4769704152773144
1.1732137487200707,-2.765750448194538,-0.019045485790050266,0.20308826967039584,-1.4581680610701038
1.1688570726914935,-2.8109712192361087,-0.018838653588881517,0.19013582634328519,-1.4342453395122943
1.164552166866747,-2.8532275104402913,-0.01859531010456775,0.17731018412789776,-1.4048231740095556
1.1603079390339548,-2.892549694927915,-0.0183110188762334,0.16462185489491993,-1.3695024181813409
1.1561343794106715,-2.928970704870572,-0.017980803934926258,0.15208257938903644,-1.3278667834446878
1.1520426979086555,-2.9625263147483096,-0.01759903521303915,0.13970533259127776,-1.279488308255309
1.1480454924291748,-2.993255416043006,-0.017159273304185173,0.12750424388433923,-1.2239366230115012
1.1441569600747974,-3.0212002576265817,-0.016654051516486967,0.1154943785815604,-1.1607937908569963
1.1403931698420218,-3.0464066111901644,-0.01607455920330073,0.10369130458004114,-1.0896771786804205
1.1367724262740504,-3.0689238005912998,-0.015410167474710638,0.09211034238636652,-1.0102735737331145
1.1333157713655253,-3.0888045084893747,-0.01464770129507281,0.08076537846645805,-0.9223883676446458
1.1300477009235537,-3.106104247840989,-0.013770302548159636,0.06966713763450666,-0.8260134302085806
1.1269972182842007,-3.120880374554609,-0.012755633446214224,0.058820920744802,-0.7214148450286586
1.1241994244278462,-3.1331905561909394,-0.011573008782955552,0.04822413696239741,-0.6092343299831682
1.1216979755908405,-3.143090770796867,-0.010178720234484517,0.037864685697850224,-0.49058241613252945
1.1195490121288612,-3.1506333131891466,-0.008507918565336737,0.027722639452430295,-0.36707612692709135
1.1178279225460561,-3.155866164289705,-0.006458077806880302,0.01778041359590768,-0.2407479000635421
1.1166433439875396,-3.158837323407816,-0.0038426053106540166,0.00805575264852563,-0.11375021020549281
