x,y,v_x,v_y,omega
2.375,32.48,0.0,3.5897435897435894,-2.7346938775510203
2.374241669130509,31.771524464014494,-0.007583308694912159,3.4950117701114323,-2.5334039035749756
2.3720955168585935,31.08155100115622,-0.013878214024240079,3.4047228584713087,-2.3544926244627304
2.3687981436310257,30.409223301101957,-0.019095518251439035,3.3185541420713327,-2.194766463147901
2.3645477129981214,29.753746469350098,-0.023408788077603045,3.236214175447234,-2.0515666311441016
2.3595106804248664,29.114381158058052,-0.026961537654945595,3.157438937473262,-1.9226680100348
2.353827236259921,28.490438407168927,-0.029872903994511667,3.081988571417973,-1.8061991733351828
2.347615730161288,27.881275089941653,-0.032242156991813646,3.0096446008547733,-1.700578726913365
2.3409762841888058,27.286289876091804,-0.03415230273301085,2.940207537643709,-1.604464334877135
2.3339937562120716,26.70491964075983,-0.035672977034329784,2.8734948156760205,-1.5167116719533975
2.3267401804877132,26.13663625945955,-0.03686278020925495,2.8093389973267917,-1.4363411918269966
2.3192767855102834,25.5809437387524,-0.037771169565045906,2.747586209744712,-1.3625110858523817
2.3116556685481693,25.037375640175256,-0.03844000005609449,2.688094776026741,-1.2944951719815811
2.3039211901745804,24.50549276131747,-0.03890478367979382,2.6307340125510827,-1.2316647310773872
2.2961111395059244,23.984881043193795,-0.03919572300676527,2.575383168685693,-1.1734735196489112
2.2882577109518345,23.475149677420045,-0.039338562534134806,2.5219304890518086,-1.1194453509272309
2.2803883254498247,22.975929390342436,-0.03935529248596383,2.470272381724276,-1.0691637621649932
2.2725263229385257,22.486870884334156,-0.03926473262702517,2.420312678358535,-1.0222633840128548
2.2646915478625123,22.007643419060983,-0.039083018133108556,2.3719619743731917,-0.9784227044303002
2.256900845527351,21.537933517715377,-0.0388240052185036,2.32513703908286,-0.9373579797952312
2.249168483926365,21.077443785092875,-0.0384996107913606,2.279760287142159,-0.8988180934279597
2.241506513078562,20.62589182599007,-0.03812009768666586,2.235759303885877,-0.8625801994775238
2.2339250718239945,20.183009253783737,-0.037694314859009904,2.193066418177461,-0.8284460201939401
2.226432650319725,19.748540780241605,-0.037229900183685105,2.151618317243874,-0.7962386886864604
2.2190363150890855,19.32224337864642,-0.03673345212270856,2.111355698707948,-0.7658000486219432
2.211741902337752,18.903885513210376,-0.036210675390625766,2.0722229556525122,-0.7369883379376236
2.204554184313917,18.4932464285369,-0.03566650484772704,2.0341678910822583,-0.7096761962978768
2.1974770127179393,18.090115493568213,-0.03510521111204707,1.99714145860457,-0.6837489463159261
2.1905134425285335,17.694291595053596,-0.034530490782013465,1.961097526541621,-0.6591031069605305
2.183665839083143,17.30558257609713,-0.03394554367189212,1.9259926630230542,-0.6356451044462152
2.176935970809864,16.92380471580484,-0.03335313906089807,1.8917859398998278,-0.6132901515578125
2.1703250896410697,16.548782246457634,-0.03275567262704227,1.858438753572241,-0.5919612710196821
2.163834000831871,16.180346904995957,-0.032155215464947116,1.825914661044504,-0.57158844237341
2.1574631236491593,15.818337515920575,-0.031553556362169916,1.7941792297093047,-0.5521078550242395
2.1512125441807077,15.462599602996377,-0.030952238322343142,1.7631998995326896,-0.5334612527758427
2.1450820613316055,15.112985027397546,-0.030352590168681148,1.7329458564556173,-0.5155953573918957
2.1390712269214904,14.76935165015632,-0.029755753932468727,1.7033879159566467,-0.4984613605794156
2.133179380665897,14.431563016977371,-0.029162708623461434,1.674498415832827,-0.48201447534633307
2.127405680714654,14.099488063658587,-0.028574290888973158,1.6462511173550258,-0.46621353899591605
2.1217491303264793,13.77300084051894,-0.02799121299277295,1.6186211140414608,-0.4510206611255345
2.1162086011790735,13.451980254377737,-0.027414078481284496,1.5915847473705753,-0.43640091093135147
2.1107828537458504,13.136309826758385,-0.02684339585094898,1.565119528822937,-0.4223220389121553
2.1054705551122246,12.825877467105826,-0.026279590485308632,1.5392040677026515,-0.4087542287380327
2.1002702945544915,12.52057525991128,-0.025723015092021267,1.513818004242831,-0.3956698756221594
2.0951805971615403,12.220299264732219,-0.02517395883749181,1.4889419475477657,-0.3830433880226061
2.090205445370827,11.924949747209887,-0.024577559069639383,1.4645532276755537,-0.36930753638097796
2.08534819846784,11.634430556368237,-0.02399490996023094,1.4406386807409453,-0.3561967935192146
2.0806061212143385,11.348648540981912,-0.023425862574784673,1.417181473122283,-0.34367534138906053
2.075976511012432,11.067513840232095,-0.022870239444276012,1.3941655343758752,-0.3317098029062499
2.0714567031183004,10.79093973541065,-0.022327839497042076,1.371575513838566,-0.32026904921335325
2.067044074934924,10.518842510011016,-0.021798442336720462,1.3493967401577618,-0.3093240241867122
2.0627360495062192,10.251141317643214,-0.021281811950329556,1.327615183520258,-0.2988475844672192
2.058530098319235,9.987758057254045,-0.020777699919512872,1.3062174203714427,-0.28881435348361345
2.054423743507443,9.728617255173432,-0.020285848198409062,1.2851906004346954,-0.27920058810327525
2.0504145595362666,9.473645953544239,-0.01980599151335256,1.2645224158572566,-0.269984056692128
2.0465001744416846,9.222773604726143,-0.019337859432470506,1.244201072323708,-0.2611439274947176
2.0426782706837314,8.975931971294607,-0.0188811781470615,1.2242152619916549,-0.25266066636000756
2.0389465856688966,8.733055031283804,-0.018435672001285614,1.2045541381163718,-0.24451594293977721
2.035302911988563,8.494078888347946,-0.01800106480204826,1.1852072912422214,-0.23669254457636954
2.031745097414666,8.258941686538858,-0.017577080936924627,1.1661647268486621,-0.22917429717631058
2.0282710446885273,8.027583529419214,-0.017163446324462605,1.1474168443477706,-0.22194599243723653
2.024878711134266,7.7999464032505905,-0.01675988921814857,1.1289544173384731,-0.2149933208586851
2.021566108124185,7.575974104013721,-0.016366140882660606,1.1107685750302227,-0.2083028100235565
2.018331300420048,7.355612168035126,-0.015981936158714682,1.0928507847557165,-0.20186176768724035
2.0151724054110973,7.1388078060097016,-0.015607013930785655,1.0751928354985152,-0.19565822925623994
2.0120875922669974,6.925509840223135,-0.01524111751021761,1.057786822367145,-0.18968090927822256
2.009075081021506,6.715668644791172,-0.014883994944693347,1.040625131952481,-0.18391915660133143
2.0061331416006687,6.509236088744924,-0.014535399263681524,1.0237004285100018,-0.17836291289277553
2.0032600928074706,6.306165481802637,-0.014195088668297199,1.0070056409128672,-0.1730026742355968
2.0004543012733436,6.106411522678769,-0.01386282667297546,0.9905339503257931,-0.16782945554845644
1.9977169403022974,5.910101973501071,-0.013510783037485931,0.9725615414511996,-0.1968601228800797
1.9950466538188956,5.717375991904074,-0.013192081796532322,0.9546982745187553,-0.22744918442937923
1.9924368331074316,5.528212040704027,-0.012906125318105815,0.9369412374817143,-0.2594931151179901
1.9898809952778524,5.34258915408747,-0.012652252977687307,0.9192876286838527,-0.2928906244089744
1.9873727952494153,5.160486915927638,-0.012429747306684032,0.9017347529144742,-0.3275424352945998
1.984906036557521,4.981885438853745,-0.012237839612256331,0.8842800178244783,-0.3633510675729527
1.9824746810858256,4.8067653440018745,-0.012075715104698827,0.8669209306942334,-0.4002206245312171
1.9800728578188402,4.635107741377816,-0.011942517565156354,0.8496550955463489,-0.43805658215394294
1.977694870704,4.4668942107632965,-0.011837353583243122,0.8324802105988326,-0.47676557996854113
1.9753352057065692,4.302106783097756,-0.011759296391067268,0.8153940660565828,-0.5162552126273354
1.9729885371357407,4.140727922267924,-0.01170738931721617,0.7983945422417307,-0.5564338213054489
1.9706497333158788,3.9827405072371462,-0.011680648881404748,0.7814796080660515,-0.5972102839661958
1.9683138616729678,3.828127814445388,-0.011678067547703442,0.7646473198515434,-0.6384938035099949
1.9659761933030457,3.676873500409396,-0.011698616151518302,0.7478958205083708,-0.6801936927785235
1.9636322070866175,3.528961584450286,-0.011741246012765091,0.7312233390827418,-0.7222191553321962
1.9612775934108475,3.384376431472912,-0.011804890744934213,0.7146281906909827,-0.7644790608552731
1.9589082575596586,3.243102734717798,-0.01188846776695322,0.6981087768601579,-0.8068817139680572
1.9565203228307748,3.105125498401769,-0.011990879521886617,0.6816635863001366,-0.8493346151386735
1.9541101334382327,2.9704300201580445,-0.012111014403533665,0.665291196137104,-0.8917442122866607
1.9516742572589938,2.8390018731799067,-0.012247747388856015,0.6489902736442671,-0.9340156415557291
1.9492094884830236,2.710826887964277,-0.012399940370846711,0.632759578512013,-0.9760524556021071
1.9467128502276494,2.585891133542358,-0.012566442182894022,0.6165979657071886,-1.0177563375963397
1.9441815971791754,2.464180898073675,-0.012746088301846639,0.6005043889796254,-1.0590267989685571
1.9416132183277113,2.34568266866734,-0.012937700212793328,0.5844779050837234,-1.0997608587383547
1.9390054398650354,2.230383110279565,-0.013140084413965704,0.5685176787940294,-1.1398527020588043
1.9363562283201303,2.1182690435195077,-0.013352031035084377,0.5526229888065468,-1.1791933153680993
1.9336637940129406,2.0093274211756267,-0.013572312036813682,0.5367932346322702,-1.2176700952805715
1.9309265949139918,1.9035453032517538,-0.013799678952674529,0.5210279446064576,-1.2551664280603891
1.9281433410059563,1.800909830275426,-0.014032860127681242,0.5053267851568108,-1.2915612362061353
1.9253129992531888,1.701408194610103,-0.014270557399993422,0.48968957149642095,-1.3267284883339279
1.9224347992969029,1.6050276094671112,-0.014511442162865871,0.47411627993350225,-1.3605366681841884
1.919508240007219,1.511755275271753,-0.014754150733973513,0.45860706202007445,-1.3928481981991379
1.9165330970390624,1.4215783429901094,-0.014997278947590549,0.4431622607963475,-1.4235188127359006
1.913509431557115,1.3344838739677627,-0.01523937587188447,0.42778242942712125,-1.4523968756121004
1.9104376003160797,1.250458795767905,-0.015478936538468865,0.41246835257144804,-1.47932263635574
1.9073182673068325,1.1694898534230198,-0.015714393554003423,0.39722107087739944,-1.5041274192929102
1.9041524172070718,1.0915635554302803,-0.015944107443604,0.38204190904999014,-1.5266327395216228
1.9009413709074545,1.0166661137251225,-0.016166355552568856,0.36693250800157856,-1.5466493399864598
1.8976868034216292,0.9447833767590765,-0.01637931930568296,0.3518948616588983,-1.5639761444329487
1.8943907645319533,0.8759007546865583,-0.016581069591075526,0.33693135906629934,-1.5783991221982678
1.8910557025731707,0.8100031355313888,-0.01676954999675249,0.32204483248539906,-1.5896900629036212
1.887684491815472,0.747074791059056,-0.016942557580233008,0.3072386122379284,-1.5976052626206543
1.8842804639782786,0.6870992709296786,-0.017097720791700913,0.29251658905584343,-1.6018841286771717
1.880847444489782,0.6300592835574896,-0.017232474093266628,0.27788328466603845,-1.6022477189588444
1.8773897942091993,0.5759365619701988,-0.017344028712561,0.26334393120685307,-1.5983972448466537
1.8739124574555721,0.5247117128707224,-0.017429338823709745,0.24890455978789958,-1.590012587008289
1.870421017349269,0.4763640470952808,-0.017485062239322575,0.2345720979665046,-1.5767509033899552
1.8669217596868868,0.43087138980133943,-0.017507514384497182,0.2203544749728785,-1.5582454537358092
1.8634217468641725,0.38820986910994293,-0.01749261384264731,0.20626073194107436,-1.5341048318647308
1.8599289037796092,0.34835368273149925,-0.017435817002986173,0.19230113184336275,-1.5039128961008352
1.856452118267924,0.3112748435712973,-0.01733203811386574,0.17848725975863713,-1.4672298346411463
1.8530013595528216,0.276942907818416,-0.017175549037157806,0.1648320977701439,-1.423595017421768
1.849587819682522,0.24532469312880778,-0.016959849665838894,0.15135004912594982,-1.372532598029461
1.8462240852767182,0.21638400102105493,-0.01667749439219891,0.1380568719515519,-1.3135612747448653
1.8429243507724975,0.1900813675923274,-0.016319850650008405,0.12496946233573818,-1.2462102374141373
1.8397046907252923,0.16637388143082887,-0.01587674982204434,0.11210539927923856,-1.1700441376282873
1.8365834192943367,0.14521512830619798,-0.015335964487510711,0.09948213196707653,-1.0847008733032502
1.8335815826116602,0.12655534875940333,-0.014682402339254101,0.08711566350084987,-0.9899468238105273
1.8307236588319302,0.11034192293548983,-0.013896835458043889,0.07501859473826465,-0.8857541806500998
1.8280385886822241,0.09652031260278449,-0.012953866039017218,0.06319750858880728,-0.7724024959452207
1.8255613393272783,0.08503555743660485,-0.011818627510442277,0.05165004307296556,-0.6505982627943344
1.8233353454827677,0.07583426674371907,-0.010441310934664069,0.0403628638558635,-0.521587658542268
1.8214164656714091,0.06886663444787189,-0.008747487178920467,0.029313459102602774,-0.38720631474125067
1.819879917573596,0.06408707699532101,-0.006617993799212523,0.01848211542292949,-0.2497763423076515
1.8188350424870579,0.06144963802042014,-0.003830757066167169,0.007892274326094448,-0.11175595559018778
