x,y,v_x,v_y,omega
2.375,32.48,0.0,3.230769230769231,-2.4897959183673475
2.3744474873388897,31.873335564333694,-0.005815922748531293,3.155172197297116,-2.3310227374737473
2.372872193869087,31.28074614443254,-0.01076611377570454,3.0826111700834513,-2.1873881966387736
2.3704268972416793,30.7016731165782,-0.0149738507233259,3.012894386278053,-2.057021715797331
2.36724275574724,30.13559275522082,-0.018543428165506585,2.945846259589069,-1.9383254008918778
2.363432610983429,29.58201332436165,-0.021563358821977227,2.88130564419168,-1.829928988913509
2.3590937382496384,29.040472476878584,-0.024108985744239156,2.8191243293142705,-1.730653051285863
2.3543101454156736,28.510534921506128,-0.026244623034341504,2.7591657272378796,-1.639478799046865
2.349154501079873,27.991790323580133,-0.028025317342505175,2.7013037246147107,-1.5555231935303286
2.343689757153789,27.48385141084659,-0.02949830293206257,2.6454216725804978,-1.4780183421380344
2.337970518610737,26.986352259878288,-0.030704208047432128,2.5914114955068537,-1.4062943714850824
2.3320442032786253,26.498946742143165,-0.031678058606375924,2.5391729017049793,-1.3397651351950264
2.325952026684321,26.02130711167557,-0.03245011607051147,2.4886126821644488,-1.2779162423624897
2.3197298406396394,25.553122718733402,-0.03304657913666502,2.4396440856478523,-1.2202949937091647
2.3134088491685127,25.094098835870103,-0.03349017319098472,2.3921862602816146,-1.1665018921218364
2.3070162212560343,24.6439555845823,-0.03380064694036479,2.346163753274203,-1.116183457399998
2.300575616554388,24.202426952167073,-0.03399519202433601,2.301506061622915,-1.0690261253186284
2.2941076374528886,23.769259889682196,-0.034088798517759554,2.2581472276916057,-1.0247510513280447
2.287630218687425,23.344213482984017,-0.034094556908173965,2.2160254743944807,-0.9831096715188563
2.2811589638320693,22.927058189750014,-0.03402391525346373,2.1750828754371354,-0.9438798995382914
2.274707436506139,22.51757513619981,-0.03388689870369938,2.13526505667026,-0.9068628592455649
2.268287412882596,22.11555546792938,-0.0336922973335921,2.096520925123753,-0.8718800700459973
2.261909101049772,21.720799749883724,-0.03344782722245439,2.0588024227252335,-0.8387710158361376
2.2555813319188776,21.333117411027235,-0.0331602688922243,2.022064302079928,-0.8073910399471562
2.2493117256532322,20.952326229738784,-0.03283558653562078,1.9862639220090337,-0.7776095178831237
2.243106836996115,20.578251856370088,-0.03247903090771262,1.951361060819347,-0.7493082674049817
2.236972282372082,20.210727369768307,-0.03209522829263836,1.9173177455151973,-0.722380161921347
2.230912851214665,19.849592864884187,-0.03168825757490844,1.8840980953702389,-0.6967279184628137
2.224932603617966,19.494695068870676,-0.031261717127183945,1.8516681784561888,-0.6722630359371263
2.2190349561094953,19.145886983328538,-0.03081878296198587,1.819995879882118,-0.6489048630496286
2.2132227570875767,18.803027550579444,-0.030362259374000874,1.7890507806347076,-0.6265797783570428
2.2074983532511356,18.46598134204632,-0.02989462311484936,1.7588040460297543,-0.605220467508583
2.2018636481664475,18.134618266998892,-0.02941806198712912,1.7292283228905005,-0.5847652849026446
2.1963201539593262,17.808813300081496,-0.028934508614149694,1.7002976446610358,-0.5651576888200289
2.1908690369879555,17.488446226182944,-0.02844567003185864,1.6719873437447823,-0.5463457406433189
2.185511158237551,17.173401401336307,-0.027953053656608315,1.6442739704303448,-0.5282816600837704
2.180247109080312,16.86356752845148,-0.027457990103803544,1.6171352178310159,-0.5109214294507856
2.175077242960201,16.558837446787038,-0.0269616532657823,1.590549852321026,-0.49422444094670465
2.1700017034898957,16.25910793416134,-0.026465078000590603,1.5644976490021214,-0.4781531817778701
2.1650204493850125,15.96427952098713,-0.02596917573502511,1.538959331779013,-0.4626729525636491
2.1601332766069947,15.6742563152902,-0.025474748244107816,1.513916517662343,-0.4477516151166979
2.155339838039582,15.38894583794168,-0.0249824998339227,1.4893516649536525,-0.43335936617546644
2.150643513914918,15.108259308980738,-0.02445249095201559,1.4652433767404798,-0.4182983813223174
2.146047063269031,14.832111033464667,-0.023931200057318407,1.441580576060268,-0.4038978755695409
2.141548812640663,14.560417823475902,-0.02341880655708318,1.4183479501372753,-0.39012129135266677
2.137147059273735,14.29309933701748,-0.022915439410576405,1.3955308546882101,-0.376934476654504
2.132840080093004,14.030077954486835,-0.022421183544487952,1.3731152772133333,-0.3643055015228377
2.1286261395320767,13.77127866189712,-0.021936085517904953,1.351087802678407,-0.3522044904492516
2.1245034963479172,13.516628940409007,-0.021460158525876977,1.329435581407005,-0.34060346907983136
2.120470409540099,13.266058661768618,-0.020993386819580108,1.3081462990181478,-0.32947622389086395
2.116525143479146,13.019499989277364,-0.02053572961150451,1.2872081482582005,-0.3187981736062224
2.1126659723361074,12.776887283946916,-0.02008712452574532,1.26660980258862,-0.30854625126025753
2.108891183894772,12.53815701551775,-0.019647490646201513,1.2463403914026105,-0.2986987959227483
2.105199082818515,12.303247678042858,-0.019216731209137233,1.2263894767541446,-0.28923545320255106
2.101587993435451,12.07209970975945,-0.018794735981011123,1.206747031492267,-0.2801370837355705
2.0980562620982806,11.844655416990975,-0.018381383357624865,1.1874034187021907,-0.2713856789418825
2.094602259168749,11.620858901839828,-0.01797654221639102,1.1683493723625182,-0.2629642834074323
2.0912243806709614,11.400655993447558,-0.017580073549793483,1.1495759791350562,-0.2548569233087261
2.087921049652771,11.18399418261476,-0.01719183190484335,1.1310746612101898,-0.24704854035521293
2.0846907172900173,10.970822559586804,-0.016811666650460202,1.1128371601367264,-0.23952493077438877
2.081531863764466,10.761091754824612,-0.01643942309218275,1.0948555215705384,-0.2322726889097344
2.0784429989428266,10.554753882591687,-0.016074943451389774,1.0771220808813058,-0.22527915504200233
2.0754226628811407,10.35176248719965,-0.015718067724253954,1.0596294495611953,-0.21853236708063423
2.0724694261761134,10.152072491764905,-0.015368634433924644,1.0423705023834842,-0.21202101580466962
2.069581890182539,9.955640149338493,-0.015026481287912194,1.0253383652629506,-0.20573440336180573
2.066758687113814,9.762422996280044,-0.014691445751300925,1.008526403773359,-0.199662404760649
2.0639984800406435,9.57237980775492,-0.014363365545228646,0.9919282122805906,-0.19379543211496755
2.061302607879872,9.38566957192132,-0.014014236147103181,0.973442691230997,-0.2295759649770255
2.0586695576221,9.202461570360786,-0.01370208235575824,0.9550625883535546,-0.26668127054379437
2.0560923962327133,9.022736031304195,-0.013425932269364031,0.9367851911895227,-0.3050104637191645
2.053564379079414,8.846473688572637,-0.013184774607473885,0.9186078901952842,-0.34446437690501797
2.0510789569917325,8.6736557623171,-0.012977563157596309,0.9005281756524861,-0.38494534276791015
2.0486297825157274,8.504263940312224,-0.01280322080035205,0.8825436349251673,-0.42635697913346715
2.046210715441413,8.338280359738576,-0.012660643139796826,0.8646519500605883,-0.46860397509214696
2.0438158276756893,8.175687589388183,-0.012548701762561267,0.8468508957330215,-0.5115918773834177
2.041439407529316,8.016468612227964,-0.012466247146629151,0.8291383375324299,-0.5552268761012676
2.0390759634827935,7.86060680825512,-0.012412111237817462,0.8115122306027851,-0.5994155887318309
2.0367202274928164,7.708085937577266,-0.012385109709311356,0.7939706186378029,-0.6440648414932234
2.0343671578983247,7.558890123648386,-0.012384043916917066,0.7765116332451476,-0.6890814468977853
2.0320119419830176,7.413003836589194,-0.012407702559998183,0.759133493693728,-0.7343719763970366
2.0296499982495617,7.27041187651734,-0.012454863055326417,0.7418345070626463,-0.7798425268988954
2.0272769784596196,7.131099356808988,-0.012524292628275471,0.7246130688147266,-0.8253984798640512
2.0248887694932596,6.995051687208459,-0.012614749122882433,0.7074676638224283,-0.8709442515926854
2.022481495081306,6.862254556696783,-0.012724981529258403,0.6903968678794374,-0.9163830332026915
2.020051517464784,6.73269391602318,-0.012853730223608717,0.6733993497374244,-0.9616165186747238
2.0175954390368367,6.606355959795248,-0.012999726912678802,0.6564738737144954,-1.0065446191962275
2.015110104024413,6.483227108014031,-0.013161694270724842,0.6396193029298849,-1.051065161874364
2.0125926002696533,6.363293986928973,-0.013338345253064139,0.622834603228613,-1.0950735707046193
2.0100402611743586,6.246543409074572,-0.013528382065826057,0.6061188478703532,-1.1384625274760212
2.007450667875275,6.132962352335348,-0.01373049476663112,0.5894712230688627,-1.1811216100634043
2.0048216517232236,6.022537937867991,-0.013943359465493896,0.5728910344822652,-1.2229369053003374
2.002151297145529,5.915257406688973,-0.014165636089185014,0.5563777147705696,-1.2637905933417193
1.9994379449788342,5.811108094712008,-0.01439596566549668,0.5399308323553845,-1.3035605001118198
1.9966801963683714,5.710077405992113,-0.01463296707621707,0.5235501015382564,-1.3421196140917762
1.993876917340326,5.612152783900886,-0.014875233218997714,0.5072353941588563,-1.3793355633319413
1.99102724416621,5.517321679920524,-0.015121326508538742,0.4909867530028522,-1.415070048183068
1.988130589652437,5.4255715197010375,-0.015369773636438776,0.4748044072022633,-1.4491782248338387
1.985186650504813,5.336889665975473,-0.015619059496446899,0.45868878990893225,-1.4815080343338969
1.9821954159367419,5.251263377870448,-0.015867620167460177,0.44264055856500306,-1.5118994713925897
1.9791571777119712,5.168679766083152,-0.01611383483012553,0.426660618143388,-1.5401837869073192
1.976072541838084,5.089125743319823,-0.016356016473950026,0.4107501477864055,-1.566182617942422
1.9729424421562167,5.012587969303578,-0.016592401229917248,0.394910631331954,-1.589707038826231
1.9697681561062534,4.939052789560154,-0.016821136138117407,0.379143892283012,-1.6105565272742275
1.9665513229857852,4.868506167077889,-0.01704026512996798,0.363452133846087,-1.628517840148751
1.963293965066381,4.800933605812791,-0.017247712969024342,0.34783798473388666,-1.6433637948797708
1.9599985119834407,4.736320064871471,-0.01744126685140069,0.33230455149051763,-1.6548519550640999
1.9566678288777462,4.674649862056288,-0.017618555313804088,0.31685547814297776,-1.66272322287332
1.9533052488400793,4.6159065653034155,-0.017777024030057362,0.3014950139925357,-1.6667003474311408
1.9499146102982385,4.560072870395189,-0.017913907989318703,0.28622809030460444,-1.6664863684453572
1.9465003000933416,4.507130463199754,-0.01802619943064813,0.2710604064894255,-1.661763029835327
1.9430673031269194,4.457059864611832,-0.018110610742218296,0.2559985260150175,-1.6521892214510572
1.9396212596337281,4.4098402563842285,-0.01816353129137321,0.24104998164394906,-1.6373995420321685
1.9361685313662584,4.365449286224429,-0.01818097678725675,0.22622338845922188,-1.6170031289144338
1.9327162782962914,4.323862851000175,-0.018158529212394973,0.211528561269755,-1.5905829779198446
1.9292725478973551,4.285054857834282,-0.01809126446061675,0.196976629950176,-1.557696092443839
1.925846379754372,4.248996964550393,-0.017973663360259805,0.18258014145916598,-1.5178749714107442
1.9224479292960492,4.215658303779939,-0.01779949935892749,0.16835312980878758,-1.470631196047067
1.919088616103345,4.1850051996770254,-0.017561692143222066,0.1543111239061102,-1.4154622383456463
1.9157813049235386,4.157000893494114,-0.01725210974947654,0.14047104644032343,-1.3518631302543314
1.912540531908311,4.131605305414052,-0.01686129041081389,0.12685093334981432,-1.2793453420170304
1.9093827958653011,4.108774876357366,-0.01637803635771221,0.11346937251002885,-1.1974661327966842
1.9063269464158612,4.088462556010992,-0.015788799952181902,0.10034452587284415,-1.1058726680520106
1.9033947210916964,4.0706180313114615,-0.015076729775866854,0.08749257622748176,-1.0043659863070051
1.9006115167818147,4.055188317035835,-0.014220157696573255,0.07492546877909663,-0.892989461226862
1.8980075361374165,4.0421188382774,-0.013190164876039091,0.06264799183601745,-0.7721425505155933
1.8956195423746947,4.031355078706252,-0.011946611573664974,0.050654740491866725,-0.64270937543742
1.8934936249369396,4.022844659195492,-0.010431466718493354,0.03892862277928179,-0.5061681127724298
1.8916897558313883,4.016539190260236,-0.008556629129415006,0.027444734433927767,-0.364611094328965
1.8902900853971358,4.012394068135304,-0.006176743862715591,0.016188130039030385,-0.22057350666866588
1.8894183666526798,4.0103607831134696,-0.0029992429210326014,0.005214870190788649,-0.07658052221855743
