x,y,v_x,v_y,omega
2.375,32.48,0.0,3.230769230769231,-7.510204081632653
2.3731966818762493,31.841805294594668,-0.01803318123750791,3.1511778232840446,-7.007077834817811
2.3680632506699077,31.21917612217207,-0.03330113082590511,3.0751139009419632,-6.554640618918829
2.3601118388943583,30.611433101584577,-0.046212986929593365,3.0023163049329606,-6.146257412028488
2.349779382422737,30.01794624572402,-0.05711157778661956,2.932552253672598,-5.776327394207814
2.3374396808351676,29.438129713370145,-0.06628543808907203,2.865613069866147,-5.440098376857392
2.3234132992147547,28.87143733296597,-0.07397837811505527,2.801310734175593,-5.133518949428672
2.30797574477141,28.3173587520807,-0.0803971663183923,2.739475074677132,-4.853119745691275
2.2913642539389296,27.775416099501726,-0.08571774200641068,2.6799514511125984,-4.595917411605456
2.273783452554146,27.245161071538778,-0.09009027184142523,2.6225988285169017,-4.359336427432215
2.255410096444511,26.726172372635332,-0.09364328925492596,2.567288160517555,-4.141145083911665
2.2363970574257785,26.21805345444394,-0.09648710093240062,2.5139010213963826,-3.9394027607684663
2.216876686974711,25.72043050831561,-0.09871660357827478,2.4623284398869103,-3.752416290412051
2.196963664288242,25.232950674522755,-0.10041362328641489,2.4124698980416484,-3.578703669298124
2.176757415329517,24.75528043808747,-0.10164886630083791,2.364232466311182,-3.4169637453016906
2.1563441735158944,24.28710418626473,-0.10248355183538342,2.3175300519162048,-3.266050791002497
2.135798739976473,23.82812290685785,-0.10297078355883536,2.272282742152608,-3.1249530911627734
2.115185991085558,23.378053009862597,-0.10315670535031168,2.228416227799938,-2.9927748432985934
2.0945621727244332,22.93662525762658,-0.1030814782609335,2.1858612945602354,-2.868720804455349
2.0739760140240806,22.5035837909081,-0.10278010874259665,2.144553372624574,-2.752083223526453
2.0534696878778766,22.078685240026967,-0.10228315271943962,2.1044321361867455,-2.6422306830252333
2.0330796410381993,21.661697911798253,-0.10161731567733434,2.0654411461003943,-2.5385985419138484
2.012837312930569,21.25240104418973,-0.10080596539897417,2.0275275299848152,-2.4406807255528573
1.9927697592808367,20.850584121692854,-0.09986957109834399,1.9906416949839696,-2.3480226528566943
1.9729001941339654,20.456046245282696,-0.09882608037036895,1.9547370691175923,-2.260215126483842
1.9532484617507555,20.068595551594267,-0.09769124346173087,1.9197698677667003,-2.1768890410354462
1.9338314481242964,19.688048676584124,-0.09647889280286032,1.8856988823347431,-2.0977107880957715
1.914663440398764,19.31423025949659,-0.09520118445246346,1.8524852885405998,-2.0223782565550237
1.8957564412493246,18.946972483427864,-0.09386880704192885,1.8200924721466674,-1.9506173428258324
1.8771204442525704,18.586114649191487,-0.09249116292561341,1.788485870217078,-1.8821788989474098
1.8587636754089338,18.231502779545014,-0.09107652551075246,1.7576328262476526,-1.8168360576832594
1.840692805244799,17.882989251148395,-0.08963217613059468,1.7275024577185503,-1.7543818829738056
1.8229131353002832,17.540432451896628,-0.08816452331456374,1.6980655347991402,-1.6946273018379052
1.8054287622806102,17.203696461507953,-0.08667920688216568,1.669294369087569,-1.6373992802963129
1.788242722699527,16.872650753459293,-0.08518118892866755,1.641162711399044,-1.5825392113341978
1.7713571204598018,16.547169916546345,-0.08367483346858474,1.6136456577304215,-1.5299014875064896
1.7547732394881261,16.227133394510595,-0.08216397624817129,1.586719562627091,-1.479352234664252
1.7384916432610527,15.912425242321515,-0.08065198602256458,1.5603619592637004,-1.430768186561337
1.7225122628177427,15.602933897832656,-0.07914181841053526,1.534551485624896,-1.384035682885871
1.7068344746482287,15.29855196764641,-0.07763606328460443,1.509267816237542,-1.3390497756312159
1.6914571696675478,14.999176026126339,-0.07613698652220309,1.4844915989631708,-1.295713430742407
1.676395180048144,14.704710713130652,-0.0744829096718353,1.4601615309937062,-1.2492636503265149
1.6616611534944736,14.415064002990988,-0.0728573558648672,1.436305570402932,-1.204929423647177
1.6472493300896094,14.130142769900583,-0.07126087818377606,1.4129067605011048,-1.1625893477115326
1.6331538559723422,13.84985720147776,-0.06969386298889547,1.389948923727107,-1.1221303101564966
1.6193688145027323,13.57412064746212,-0.06815655170720321,1.3674166164292894,-1.0834468328955047
1.6058882533303653,13.302849477140462,-0.06664906001646785,1.3452950867872795,-1.0464404746796776
1.5927062078547507,13.03596294489979,-0.06517139473967737,1.32357023561944,-1.0110192866726035
1.5798167215082812,12.7733830633534,-0.06372346872501747,1.3022285798444762,-0.977097315789217
1.567213863240553,12.515034483530254,-0.06230511395226383,1.281257218386994,-0.9445941511221027
1.55489174253767,12.260844381657964,-0.06091609307656582,1.2606438003358929,-0.9134345092831943
1.5428445222705531,12.010742352106217,-0.05955610959460558,1.2403764951816008,-0.8835478549340604
1.5310664296315444,11.7646603060907,-0.05822481679548061,1.2204439649735455,-0.8548680531713453
1.5195517653881039,11.522532375768034,-0.0569218256389238,1.2008353382531094,-0.8273330507820043
1.5082949116555864,11.284294823379742,-0.05564671168625096,1.1815401856297987,-0.8008845836913807
1.4972903383675238,11.0498859551288,-0.05439902119437627,1.162548496879625,-0.7754679082008102
1.4865326086010788,10.81924603949535,-0.05317827647007233,1.1438506594548845,-0.7510315538545536
1.476016382897059,10.592317229719487,-0.051983980570125814,1.1254374383037393,-0.7275270959921334
1.4657364226977527,10.369043490198479,-0.050815621422937565,1.1072999569063542,-0.7049089462347937
1.4556875930116338,10.14937052656365,-0.04967267543825356,1.0894296794419265,-0.6831341593266063
1.4458648644014152,9.933245719218675,-0.0485546106639305,1.0718183940078303,-0.6621622549041586
1.436263314380842,9.720618060136058,-0.04746088954179976,1.0544581968183557,-0.6419550529059032
1.4268781282957947,9.5114380927226,-0.04639097130867569,1.0373414773162268,-0.6224765214549961
1.4177045997566013,9.305657854577447,-0.045344314083256426,1.0204609041352795,-0.6036926361594417
1.408738130680776,9.103230822978176,-0.04432037667499648,1.0038094118574186,-0.5855712498720209
1.399974230998585,8.904111862941303,-0.04331862014691344,0.987380188511308,-0.5680819720410858
1.3914174723131865,8.708441325581674,-0.042248966707074426,0.9693251850849885,-0.5881124801346772
1.3830695944252533,8.516370410253451,-0.041229812172255416,0.9513839681972571,-0.6099382747817537
1.3749206253405875,8.3278766696581,-0.04025987867440419,0.933553437756247,-0.6334428382427433
1.3669608526747048,8.142938263986991,-0.039337847984423246,0.9158306189548373,-0.6585124554752699
1.3591808312032119,7.96153393633497,-0.03846236673050663,0.8982126575653663,-0.685035952883013
1.3515713894176553,7.783642989011437,-0.037632051125060004,0.880696815669972,-0.712904443878955
1.3441236351816093,7.6092452606631475,-0.03684549123540041,0.8632804678129025,-0.742011080179372
1.336828960575055,7.438321104125457,-0.03610125483014336,0.8459610975640145,-0.7722508077634598
1.3296790460090333,7.2708513649204995,-0.03539789083007381,0.8287362944855617,-0.8035201264441633
1.322665863687092,7.106817360322214,-0.03473393238933962,0.8116037514972876,-0.8357168519985658
1.3157816804851603,6.946200858908703,-0.0341078996299774,0.7945612626378333,-0.8687398798009839
1.309019060317157,6.788984060522562,-0.03351830205005641,0.7776067212235737,-0.9024889488884978
1.302370866049843,6.635149576559279,-0.032963640623083865,0.7607381184092472,-0.9368644053667695
1.2958302610271615,6.484680410502534,-0.03244240960373012,0.7439535421582071,-0.9717669640332708
1.2893907102615505,6.337559938623333,-0.03195309805238075,0.727251176633818,-1.0070974670550465
1.2830459813474644,6.193771890757198,-0.031494191088479485,0.7106293020275385,-1.0427566384883176
1.2767901451506098,6.0533003310700835,-0.031064170880065602,0.6940862948436033,-1.0786448333669874
1.2706175763251728,5.9161296387192195,-0.030661517374304195,0.6776206286650406,-1.114661780015772
1.2645229537106295,5.782244488309605,-0.030284708771128644,0.6612308754310998,-1.150706314160445
1.2585012606595836,5.651629830040282,-0.029932221739330748,0.6449157072621203,-1.1866761033117883
1.2525477853484994,5.524270869426616,-0.029602531371511236,0.6286738988745448,-1.2224673597904252
1.2466581211242278,5.4001530464755305,-0.029294110871205273,0.6125043306362963,-1.257974540635917
1.240828166940889,5.279262014179778,-0.0290054309621833,0.5964059923212264,-1.2930900325045949
1.2350541279440352,5.161583616184558,-0.028734959006352565,0.5803779876309642,-1.3277038195059108
1.22933251626212,5.047103863465118,-0.028481157812798884,0.5644195395634211,-1.3617031317562602
1.2236601520692145,4.935808909836812,-0.028242484116255597,0.5485299967196368,-1.3949720722423051
1.2180341649877287,4.827685026099367,-0.028017386698604197,0.5327088406548027,-1.427391219383539
1.2124519959056856,4.722718572594346,-0.02780430412182656,0.5169556943954121,-1.4588372024679217
1.206911399289997,4.620895969928522,-0.027601662035059843,0.5012703322628167,-1.4891822469081293
1.2014104460852952,4.52220366758581,-0.027407870011955895,0.48565269116429155,-1.5182936860347622
1.1959475272973692,4.426628110115754,-0.02722131786730519,0.47010288353628665,-1.546033435915405
1.190521358371267,4.3341557005470115,-0.02704037139371617,0.4546212121511231,-1.5722574294779457
1.1851309844869073,4.244772760629083,-0.02686336744988129,0.43920818702816106,-1.5968150060428736
1.1797757869097785,4.158465487453917,-0.026688608321407094,0.4238645447234954,-1.6195482522615545
1.17445549055133,4.075219905950728,-0.026514355263077258,0.4085912703083957,-1.640291290458255
1.169170172913281,3.995021816681337,-0.02633882111741256,0.3933896223855309,-1.658869510544555
1.163920274612737,3.9178567382895366,-0.02616016188802766,0.37826116153248907,-1.6750987421044052
1.1587066117112426,3.843709843876052,-0.025976467126916404,0.3632077826023496,-1.6887843640638907
1.1535303901014005,3.7725658904810295,-0.025785748971503524,0.34823175134786966,-1.6997203507444427
1.1483932222403772,3.7044091407598465,-0.025585929638728452,0.3333357458639518,-1.7076882553137063
1.143297146561749,3.639223275838045,-0.025374827147553715,0.3185229033540564,-1.7124561350699414
1.1382446499474903,3.576991298231942,-0.025150138995031886,0.30379687270696826,-1.7137774281623137
1.1332386937030217,3.5176954236311957,-0.024909423449654033,0.28916187330050275,-1.7113897990339497
1.1282827435538887,3.461316960271418,-0.02465007804167674,0.27462276029727006,-1.705013981188284
1.123380804278552,3.4078361745999572,-0.024369314711688995,0.260185096417349,-1.6943526624191492
1.1185374597166797,3.357232141988959,-0.02406413090703445,0.2458552296926254,-1.6790894817060569
1.1137579190599078,3.3094825814275524,-0.023731275660683535,0.2316403759214344,-1.6588882418491162
1.109048070563831,3.264563673506135,-0.02336720930008408,0.21754870329273135,-1.6333924923023162
1.1044145441502669,3.222449861706238,-0.02296805483555878,0.2035894147062379,-1.6022257092157666
1.0998647848526242,3.183113638200769,-0.022529538140867927,0.18977282034843687,-1.5649924037115752
1.0954071397831049,3.1465253173026504,-0.022046912554324262,0.17611038863276343,-1.5212806375551706
1.091050962411761,3.112652802733127,-0.02151486115911448,0.1626147570624862,-1.4706666341450472
1.0868067396758911,3.0814613595088076,-0.020927366199585285,0.14929967518070922,-1.412722461881713
1.0826862501578796,3.0529134081112375,-0.020277528980529546,0.13617983879497694,-1.3470281558985333
1.0787027658801325,3.0269683684507633,-0.01955731379694092,0.12327055780976512,-1.27319014095203
1.0748713171186006,3.003582594617221,-0.018757173818376674,0.11058718052565143,-1.1908683923991648
1.0712090505167082,2.9827094585174088,-0.017865492200547166,0.09814418047247608,-1.0998152932381675
1.0677357279657864,2.964299659252724,-0.01686773330867161,0.08595381217437789,-0.9999292599928578
1.0644744406689752,2.9483018487900843,-0.015745139659440705,0.0740242924520331,-0.8913251288510708
1.0614526550317471,2.934663656690226,-0.014472716712839529,0.06235762854655808,-0.7744195123388193
1.0587037749982817,2.9233331335787263,-0.013016083621814166,0.050947602568434065,-0.6500205734057535
1.0562695265383297,2.9142604546560023,-0.01132640097770586,0.039779186658820354,-0.519395887676775
1.054203738549916,2.9073993332955084,-0.009331478906433325,0.028832026946109972,-0.3842711048022506
1.0525788984395363,2.9027067829623867,-0.006916922197363009,0.0180934763850921,-0.2466972139400511
1.0515002268464062,2.900137609491086,-0.0038697937339385365,0.007598258327916817,-0.10873554542842623
