x,y,v_x,v_y,omega
2.375,32.48,0.0,2.4615384615384617,-3.591836734693878
2.374357659255078,31.992683462898842,-0.006423407449220868,2.4116269094730876,-3.40281403085898
2.3725106920063843,31.515185864738793,-0.012046265037713989,2.363349072127398,-3.228328331057693
2.3696098214612626,31.04718931733699,-0.016962440413504008,2.316616401890622,-3.066905168840491
2.3657881918880936,30.588392977322233,-0.021253855318187503,2.2713469982569543,-2.917248624552763
2.3611635897593293,30.138511783530348,-0.02499216596945581,2.227464939661905,-2.7782165595722925
2.355840354945684,29.697275319343905,-0.028240182166994657,2.1848997022025145,-2.648799707366268
2.3499110297342973,29.264426783999493,-0.03105306994687463,2.14358565124162,-2.5281039548713227
2.3434577853260232,28.83972205941947,-0.033479374135863965,2.1034615945586093,-2.41533527454608
2.3365536588678384,28.42292886118375,-0.03556189044598579,2.064470387798605,-2.309786867854352
2.329263628683365,28.013825963941485,-0.03733841139874746,2.0265585846240146,-2.2108281609119245
2.3216455509359153,27.61220249295031,-0.03884236607575106,1.9896761252877198,-2.1178953570969514
2.3137509773054394,27.217857274581373,-0.0401033702290071,1.9537760584016715,-2.030483303023685
2.305625870235006,26.83059823958864,-0.041147700475328355,1.9188142915256445,-1.9481384660467702
2.2973112297864784,26.45024187374687,-0.041998704009945056,1.8847493668920812,-1.8704528554314406
2.288843644045446,26.07661271114288,-0.0426771534003826,1.8515422591478117,-1.7970587470724109
2.2802557732573123,25.709542865982314,-0.04320155448095159,1.8191561924578432,-1.727624094404756
2.271576776399554,25.348871599266488,-0.04358841409662982,1.78755647470042,-1.661848526893444
2.2628326876507114,24.994444917116258,-0.043852473391797264,1.7567103468018617,-1.5994598529809434
2.2540467491651577,24.64611519788341,-0.044006911463739515,1.726586845526614,-1.540210997223527
2.2452397056717155,24.303740845504528,-0.044063523470685255,1.6971566782622167,-1.483877312042738
2.23643006565731,23.96718596682548,-0.04403287667336599,1.6683921085282682,-1.4302542134490346
2.2276343332523063,23.63632007086274,-0.043924447376670894,1.640266851099109,-1.3791550975740041
2.2188672143839514,23.311017788176144,-0.04374674130687982,1.6127559757668444,-1.3304095011299275
2.210141800293631,22.991158608710613,-0.04350739959632456,1.585835818888476,-1.2838614742072187
2.2014697311100164,22.67662663662561,-0.043213292239820476,1.5594839019615796,-1.2393681382895954
2.192861341823381,22.367310360773473,-0.042870600626533535,1.5336788565598043,-1.1967984061513424
2.184325792707782,22.063102439614028,-0.0424848905294569,1.5084003550346565,-1.156031843513639
2.175871185980231,21.763899499465026,-0.04206117674605414,1.4836290464553574,-1.1169576550706162
2.16751305716019,21.469603992615674,-0.04152011145435373,1.459326022038138,-1.0768864183867082
2.159264883837961,21.18012185937121,-0.04096162176793841,1.4354953104065162,-1.0386450219945336
2.1511298563255137,20.895360319837458,-0.04038865335653348,1.4121200849309974,-1.0021282574309573
2.143110607259459,20.61522988257764,-0.03980383730401704,1.389184287667168,-0.9672381097987968
2.1352092712796824,20.33964419530612,-0.03920952249374403,1.3666725850480081,-0.9338831878194225
2.127427538577608,20.068519904138206,-0.03860780452700473,1.344570326631174,-0.9019782050710875
2.1197667029680867,19.801776520809625,-0.038000551568207364,1.3228635066546461,-0.8714435072833231
2.112227705064992,19.539336297326457,-0.03738942746273641,1.30153872817701,-0.8422046411244207
2.1048111710755237,19.281124107548848,-0.03677591243194919,1.280583169599106,-0.8141919604173475
2.09751744767097,19.02706733525072,-0.036161321613587594,1.25998455338213,-0.7873402661583578
2.0903466333411833,18.777095768233135,-0.03554682168427779,1.2397311167937348,-0.7615884770997317
2.08329860659544,18.531141498100915,-0.034933445773151696,1.219811584528486,-0.7368793280001128
2.0763730513329834,18.28913882534183,-0.03432210685141998,1.2002151430623633,-0.7131590929485181
2.069569479671691,18.051024169374287,-0.033713609761504525,1.180931416613022,-0.6903773314361863
2.0628872524924695,17.816735983254148,-0.03310866203070695,1.16195044458839,-0.6684866550882792
2.0563255979295976,17.58621467275371,-0.03250788359801424,1.1432626604159921,-0.6474425131787435
2.049883628012973,17.35940251954668,-0.03191181556823145,1.1248588716542947,-0.6272029952395944
2.0435603536466562,17.13624360825171,-0.031320928094935814,1.106730241295418,-0.6077286492432907
2.0373546980889077,16.91668375710458,-0.030735627482548527,1.0888682701758916,-0.5889823139861543
2.0312655090818597,16.70067045204511,-0.030156262587933694,1.071264780418775,-0.5709289644340916
2.0252915697637466,16.488152784019583,-0.029583130593194566,1.0539118998365267,-0.5535355689110275
2.0194316084830666,16.279081389312978,-0.029016482213604686,1.0368020472295145,-0.5367709571171126
2.01368430762193,16.073408392738017,-0.028456526397762825,1.0199279185200938,-0.5206056980593182
2.008048311525055,15.871087353519329,-0.02790343457098835,1.0032824736667714,-0.5050119870627503
2.0025222336211974,15.672073213721934,-0.027357344467585063,0.9868589243071699,-0.48996354110798235
1.9971087636322231,15.47650483365728,-0.02677735542215985,0.9688248763393784,-0.5117083911418568
1.9918078584981704,15.284531983187453,-0.02623169591836612,0.9509036283589066,-0.5351805014141746
1.98661270833628,15.096132407673501,-0.025719805700539774,0.9330921267806136,-0.5602679504096809
1.9815166225022696,14.911284451128623,-0.025241052639563267,0.9153874386681594,-0.5868613628027234
1.976513043288271,14.729967032528677,-0.02479473950042194,0.8977867473312849,-0.6148536672381786
1.97159555832453,14.552159622962769,-0.024380110136990416,0.8802873483277992,-0.6441398595363859
1.966757911795495,14.377842223544093,-0.0239963551533583,0.8628866458589682,-0.6746167703497994
1.9619940145734165,14.206995344003232,-0.02364261706742781,0.8455821495496276,-0.7061828363069377
1.9572979533657604,14.03959998188757,-0.023317995009131825,0.828371471606996,-0.7387378736800453
1.952663998966607,13.87563760229138,-0.023021548982401517,0.8112523243548798,-0.7721828536065444
1.9480866136966737,13.715090118041616,-0.02275230371693218,0.7942225181427665,-0.8064196778806109
1.9435604581116976,13.557939870264114,-0.022509252132827687,0.7772799596322386,-0.8413509543097611
1.9390803970545827,13.404169609254264,-0.022291358438322716,0.7604226504662477,-0.8768797706017898
1.9346415051229544,13.253762475574629,-0.02209756087796131,0.7436486863301052,-0.9129094657092937
1.9302390716205757,13.106701981299956,-0.021926774145824085,0.7269562564166329,-0.94934339751179
1.9258686050584317,12.962971991327109,-0.021777891475617234,0.7103436433118224,-0.9860847056584444
1.9215258372692063,12.822556704663764,-0.02164978641663592,0.69380922332164,-1.0230360683269304
1.9172067271973665,12.685440635605065,-0.02154131430176263,0.6773514672653653,-1.0600994515751165
1.9129074644261177,12.551608594701914,-0.021451313410725703,0.6609689417661405,-1.0971758498712199
1.9086244725021662,12.421045669417769,-0.021378605828789966,0.6446603110753302,-1.1341650162837755
1.9043544121195028,12.293737204362838,-0.021321997997842766,0.6284243394739677,-1.1709651806942156
1.9000941842243753,12.16966878098523,-0.021280280953433765,0.6122598943021033,-1.207472754260961
1.895840933105264,12.048826196587477,-0.021252230237680483,0.5961659496754252,-1.2435820182136312
1.8915920495340943,11.931195442524107,-0.021236605474013414,0.580141590958264,-1.27918479488834
1.8873451740281482,11.816762681420961,-0.021232149585448952,0.564186020073188,-1.3141700987292473
1.883098200306265,11.705514223239636,-0.021237587633382234,0.5482985617400801,-1.3484237647772137
1.8788492790180555,11.597436499990419,-0.021251625248714597,0.532478670752081,-1.3818280519436343
1.874596821831045,11.492516038873973,-0.021272946621391176,0.5167259404123655,-1.4142612181274146
1.8703395059681025,11.390739433605269,-0.02130021200803104,0.501040112274671,-1.4455970639779343
1.8660762792962817,11.292093313642589,-0.02133205471017918,0.48542108735214123,-1.4757044418411822
1.8618063660784965,11.196564311009006,-0.021367077467672763,0.4698689389836992,-1.5044467261573795
1.8575292735114743,11.10413902435312,-0.02140384820254777,0.4543839275751445,-1.5316812413180552
1.8532447991873555,11.01480397984923,-0.021440895038641074,0.43896651746375415,-1.557258642756591
1.8489530396324558,10.9285455884838,-0.021476700510353563,0.42361739619054745,-1.5810222468656179
1.8446544000953542,10.84535009921439,-0.02150969486066369,0.4083374965035705,-1.6028073052470888
1.8403496057779805,10.765203547418203,-0.02153824831307307,0.39312802145828835,-1.6224402188646545
1.8360397147282463,10.688091697969707,-0.02156066218426868,0.37799047302667066,-1.6397376879679393
1.8317261326414922,10.613999982199715,-0.021575158683274073,0.362926684673251,-1.654505794317414
1.8274106298513795,10.542913427892241,-0.02157986921785222,0.3479388584014994,-1.6665390134345535
1.823095360829731,10.474816581370845,-0.021572820998634633,0.3330296068124717,-1.6756191565916299
1.8187828865604692,10.409693420615394,-0.021551921693980094,0.31820200074204996,-1.6815142454096084
1.8144762002069696,10.347527258237122,-0.021514941841014504,0.3034596230406581,-1.6839773267868574
1.8101787565572498,10.288300633032005,-0.021459494656184838,0.28880662901050475,-1.6827452432102965
1.8058945058111389,10.23199518874198,-0.021383012804924252,0.27424781388975045,-1.6775373844251633
1.801627932373301,10.178591538600628,-0.021282721573454007,0.25978868752376566,-1.668054462583288
1.7973840994441241,10.128069114256295,-0.021155607718315296,0.2454355559195788,-1.653977376704083
1.7931687003701198,10.080405997801048,-0.0209983830217269,0.2311956086328864,-1.6349662669692306
1.7889881179473794,10.035578735965167,-0.020807441205676746,0.21707700972590335,-1.610659909936949
1.7848494931991419,9.993562136180667,-0.020578806276697455,0.2030889881190963,-1.580675679232888
1.7807608056256667,9.954329045349688,-0.020308069458054665,0.18924192019069158,-1.5446104026016076
1.7767309676393928,9.917850114034891,-0.01999031040468569,0.17554739295728566,-1.5020425991767006
1.7727699369950038,9.884093551797339,-0.019619996039202947,0.16201822941825192,-1.4525367988626763
1.7688888527390856,9.853024884074742,-0.019190846519980424,0.14866844780771443,-1.3956509517228202
1.7651002029254614,9.824606728029117,-0.018695651616260283,0.13551311264852378,-1.3309483536382318
1.7614180367032515,9.798798615057073,-0.018126010605840067,0.12256801707190218,-1.258016060758607
1.7578582404098086,9.77555690197465,-0.017471952328586532,0.10984911375233013,-1.1764924184255807
1.7544389086258274,9.754834831498545,-0.016721365511226077,0.09737159100871173,-1.0861069684828284
1.751180859345264,9.736582823815382,-0.015859127294408165,0.08514848582292979,-0.9867362647162083
1.7481083714861188,9.720749098072115,-0.014865751297046068,0.07318877160974384,-0.878478180334763
1.7452502694041585,9.70728071820368,-0.013715269522555801,0.06149502707461471,-0.7617434671347711
1.742641555138407,9.696125094584819,-0.012371873134961827,0.050061209114018776,-0.6373539631984375
1.740325926217888,9.687231783488926,-0.010784416070226163,0.03887190184490008,-0.5066193155881307
1.7383598228953194,9.680553996323244,-0.008876617155461486,0.027905969811924555,-0.37133988274624563
1.7368195763901941,9.676048313065596,-0.006525847895790032,0.017150862764536177,-0.23366511572471085
1.7358172495967654,9.673668436478309,-0.0034974200384979403,0.006647903108340682,-0.09574868836976205
