x,y,v_x,v_y,omega
2.375,32.48,0.0,2.2564102564102564,-3.959183673469388
2.374497979224668,32.07753535640518,-0.005578008614800477,2.2154191168655357,-3.7816287971189877
2.3730465251694284,31.682348652327843,-0.010549258665638089,2.175544261771486,-3.6154091575680276
2.3707493895035023,31.294243683957504,-0.014974470955764995,2.1367331645656384,-3.4595546476251435
2.3676999880706506,30.913033391025543,-0.018907767187029897,2.098936756900556,-3.313195342684223
2.363982516937852,30.53853926221024,-0.02239746762184514,2.0621091188250604,-3.1755495635172757
2.3596729345348266,30.17059079305552,-0.025486781300657322,2.0262072051162736,-3.04591354785062
2.354839827773105,29.809024990365838,-0.02821440494069792,1.9911906025468444,-2.92365248827438
2.349545177373242,29.45368591789876,-0.030615043946665227,1.957021313754033,-2.8081927345914446
2.3438450354087905,29.10442427889264,-0.032719866769461085,1.92366356409174,-2.6990149917833968
2.3377901262148293,28.76109703156586,-0.03455690205233399,1.89108362842803,-2.59564837187212
2.3314263802428594,28.423567034227965,-0.03615138652510485,1.85924967532636,-2.4976651802678163
2.3247954091210024,28.091702717069015,-0.037526070384421004,1.8281316264397454,-2.4046763356435785
2.317934929056991,27.765377778055132,-0.03870148588236981,1.7977010292700646,-2.3163273376949274
2.3108791387676972,27.44447090066668,-0.039696183998672786,1.767930941712736,-2.2322947099106516
2.303659057305205,27.1288654914798,-0.04052694336235302,1.7387958270304136,-2.1522828551625106
2.2963028264532563,26.818449435819282,-0.041208954992633606,1.7102714580864213,-2.0760212708879426
2.2888359817705703,26.51311486990717,-0.041755985926096355,1.682334829825947,-2.0032620781918826
2.28128169584376,26.21275796810151,-0.042180524371800414,1.6549640791258429,-1.9337778255741884
2.273660996869537,25.917278743967998,-0.04249390867511748,1.6281384112464954,-1.8673595333957698
2.2659929653030297,25.626580864056457,-0.042706442063855765,1.6018380322150807,-1.8038149497909008
2.2582949109773534,25.340571473367472,-0.04282749488810207,1.5760440865514214,-1.7429669926479385
2.2505825328117406,25.059161031594233,-0.04286559584092887,1.550738599817906,-1.6846523556249025
2.242870062975129,24.782263159312436,-0.04282851345475486,1.525904425535385,-1.6287202590303074
2.2351703971539503,24.509794493368926,-0.04272332900278462,1.5015251960591747,-1.5750313288580535
2.2274952123823764,24.24167455078869,-0.04255650179248292,1.4775852770545512,-1.523456589380291
2.219854896064999,23.97782808305035,-0.04233590173393237,1.4540421422603362,-1.4724730082366726
2.2122579444208017,23.718182366476704,-0.04207467209048123,1.4309102641135396,-1.4236347901153856
2.204711290096545,23.462664609718,-0.041777042623480906,1.408175922094255,-1.3768275985231546
2.1972211383893083,23.211204438701863,-0.0414468652347053,1.385825978085027,-1.331944340017377
2.189793032173374,22.963733794640987,-0.041087648275676396,1.3638478448136102,-1.2888846314932694
2.1824319109487895,22.720186837535735,-0.040702587553039626,1.342229456355853,-1.247554311956187
2.1751421645756217,22.480499854815157,-0.040294594371049,1.320959240539455,-1.2078649946237485
2.1679276821999323,22.244611174787277,-0.03986632091438883,1.300026093103654,-1.1697336556315676
2.160791896825926,22.012461084594502,-0.03942018324123485,1.2794193534827318,-1.1330822559969682
2.153737825942779,21.78399175239271,-0.038958382127064865,1.2591287820927635,-1.097837393833066
2.146768108573704,21.55914715349333,-0.03848292197377118,1.2391445390114098,-1.0639299841061889
2.139885039078254,21.337873000226814,-0.03799562797567276,1.219457163949909,-1.0312949634972965
2.13309059800621,21.12011667530308,-0.037498161713703286,1.200057557424873,-0.9998710181667758
2.1263864802721835,20.90582716846078,-0.03699203533103731,1.180936963045129,-0.9696003324351112
2.119774120893921,20.6949550162115,-0.036478624427431695,1.1620869508357607,-0.9404283565824751
2.11325471851387,20.487452244498783,-0.03595917979535783,1.1434994015277868,-0.9123035921408237
2.1068292569025346,20.283272314104,-0.03543483810836978,1.125166491747593,-0.8851773932049195
2.1004985246232994,20.08237006864263,-0.034906631660908856,1.107080680045428,-0.8590037824258189
2.0942631330214327,19.884701685004913,-0.03437549724872316,1.089234693706978,-0.8337392804735214
2.088123532684735,19.690224626104612,-0.033842284270140445,1.0716215162963343,-0.8093427478662224
2.0820800285095817,19.498897595808508,-0.03330776212044883,1.0542343758825958,-0.7857752381632946
2.0761327934937364,19.310680495927542,-0.03277262694450367,1.0370667339059203,-0.7629998616089553
2.0702818813661645,19.12553438515822,-0.0322375078062947,1.0201122746421276,-0.740981658394601
2.064527238154034,18.943421439869912,-0.031702972328490196,1.0033648952279501,-0.7196874807809611
2.0588687127779832,18.764304916640334,-0.031169531849850853,0.9868186962117824,-0.6990858833873475
2.0533089739951746,18.588380795392574,-0.030605343514684483,0.9678937620966642,-0.7298178660774153
2.047847536539249,18.415853628843852,-0.03007729488449129,0.9490747551113746,-0.761855038709627
2.0424779875824597,18.246704588206235,-0.02958436019094488,0.9303590297510352,-0.795089368124413
2.0371941025692784,18.080915311175318,-0.02912547328884697,0.9117440483702441,-0.8294143444249381
2.0319898521079653,17.918467882753415,-0.02869953183685669,0.8932273785398102,-0.8647247478307287
2.0268594081459947,17.75934481651404,-0.028305401073924638,0.8748066907865627,-0.9009164165570116
2.0217971495000473,17.603529036238662,-0.027941917214382054,0.8564797567176695,-0.9378860147127311
2.0167976668073857,17.451003857856016,-0.027607890481855257,0.8382444475339303,-0.9755307991851239
2.0118557669620674,17.301752971613386,-0.027302107799459786,0.8200987329397379,-1.0137483844454598
2.0069664770965217,17.155760424407333,-0.027023335151052413,0.8020406804608636,-1.0524365041686412
2.0021250481666177,17.013010602199206,-0.026770319625657603,0.7840684551849793,-1.0914927685082074
1.9973269581964024,16.873488212437604,-0.026541791154511957,0.7661803199439287,-1.1308144158073055
1.9925679152372249,16.737178266406133,-0.026336463947458342,0.7483746359612844,-1.1702980574546158
1.987843860095016,16.604066061410183,-0.026153037632641755,0.7306498639937316,-1.2098394145112863
1.9831509688790259,16.47413716271071,-0.02599019810058042,0.7130045660004082,-1.2493330446397581
1.978485655425413,16.347377385106423,-0.025846618050674557,0.6954374073805906,-1.2886720577570492
1.973844573649699,16.223772774057725,-0.02572095723503505,0.6779471598271594,-1.3277478187126666
1.9692246198833447,16.10330958623667,-0.025611862391124816,0.6605327048512422,-1.3664496351539106
1.9646229352515479,15.985974269376236,-0.025517966851062487,0.6431930380424493,-1.404664428588068
1.960036908151918,15.871753441279871,-0.025437889811491914,0.6259272741393651,-1.4422763864811807
1.9554641768969583,15.760633867837633,-0.02537023524361689,0.608734652996615,-1.4791665930463138
1.950902632587388,15.652602439878606,-0.025313590418276265,0.5916145465481115,-1.515212636170621
1.946350422288328,15.547646148669966,-0.025266524015720545,0.574566466881218,-1.5502881877108106
1.9418059525863562,15.445752059850811,-0.025227583783967077,0.5575900755538212,-1.5842625541528086
1.9372678936125143,15.346907285563432,-0.02519529370316585,0.540685194305943,-1.6170001943870616
1.9327351836246718,15.251098954515314,-0.025168150606195375,0.5238518173398341,-1.6483602011020166
1.9282070342523299,15.158314179671628,-0.02514462019760398,0.5070901253677704,-1.6781957420543403
1.9236829365181976,15.068540023239557,-0.025123132403867588,0.4904005016552607,-1.7063534572498495
1.919162667763868,14.981763458561847,-0.025102075977571334,0.4737835503192839,-1.7326728078855598
1.9146462996219182,14.897971328487223,-0.02507979226631582,0.45724011717655605,-1.7569853727924885
1.9101342071940244,14.817150299728535,-0.025054568043616148,0.4407713134755431,-1.7791140881272272
1.90562707961459,14.739286812655866,-0.02502462728343208,0.424378542887448,-1.798872426254772
1.9011259322023244,14.66436702590028,-0.024988121741740827,0.4080635321746075,-1.8160635102420908
1.8966321204287335,14.592376755064784,-0.024943120187047075,0.39182836599756937,-1.8304791612797997
1.8921473559632656,14.523301404752505,-0.024887596095928926,0.37567552636108537,-1.8418988778664327
1.8876737250907942,14.457125893029431,-0.024819413598197636,0.3596079372286127,-1.8500887480102262
1.8832137098394406,14.393834567342758,-0.02473631141684163,0.34362901484553016,-1.854800299434149
1.8787702122071643,14.333411110820663,-0.024635884497340135,0.3277427242888665,-1.8557692983946394
1.8743465819365366,14.275838437793116,-0.024515562954079428,0.3119536426838638,-1.8527145160805791
1.869946648362323,14.221098577309036,-0.024372587870516133,0.29626702936148036,-1.8453364938489507
1.8655747569514145,14.16917254340326,-0.024203983361798426,0.28068890292490456,-1.8333163565049881
1.8612358112777234,14.120040190919678,-0.02400652412365762,0.26522612467044315,-1.816314748928085
1.8569353213390474,14.073680055873481,-0.02377669741718813,0.24988648695397436,-1.7939710091352288
1.8526794593493947,14.030069179711145,-0.02351065802339565,0.23467880373864036,-1.7659027454335692
1.8484751244619515,13.989182917513773,-0.02320417405930881,0.21961299845439797,-1.7317060638206967
1.8443300183479256,13.950994731354825,-0.022852560540976345,0.2047001810894534,-1.6909568042562342
1.8402527342607828,13.915475971910837,-0.0224505959828339,0.18995270162154468,-1.6432133044661326
1.8362528632928958,13.88259565438059,-0.021992414771465407,0.1753841598256497,-1.588021435253749
1.832341123207883,13.85232023927318,-0.02147136395090002,0.16100934136779818,-1.524922962982695
1.82852951787167,13.82461343529813,-0.020879806451466275,0.14684403613274788,-1.453468713498634
1.824831539495706,13.799436051147428,-0.020208842170355276,0.13290467665281253,-1.3732385452633387
1.821262432582075,13.776745936013356,-0.019447901314433233,0.11920771372577638,-1.2838707535625817
1.8178395490914048,13.756498065198123,-0.01858413747079252,0.10576862866569049,-1.1851040794813623
1.814582841211282,13.738644845158639,-0.017601505641682825,0.09260048288413189,-1.0768356029428205
1.8115155646824777,13.723136725185554,-0.01647934467836529,0.07971196126125914,-0.9591966037722559
1.8086653075968768,13.709923194525366,-0.015190178494978644,0.06710504607415657,-0.8326443591933852
1.8060655278035984,13.6989541810634,-0.013696263652557302,0.05477288128102413,-0.6980583682082315
1.803757904957195,13.690181691964387,-0.011943990196368869,0.042699219819133175,-0.5568125174021368
1.8017960880174693,13.683561151504584,-0.009853975800585679,0.03086234084536224,-0.41077228215145684
1.8002522445680968,13.67905108550342,-0.007299840303550777,0.019249503612000826,-0.2621503171467022
1.799231298849386,13.67660751132614,-0.004044001015460022,0.007901320580024624,-0.11316674728072082
