x,y,v_x,v_y,omega
2.375,32.48,0.0,2.1538461538461537,-7.142857142857143
2.3740624596425794,32.07458100547783,-0.009868845867583671,2.113722209545052,-6.818540145181354
2.371352342331645,31.676673807220208,-0.01865870477382965,2.0747746142194203,-6.515311933771493
2.3670642165559745,31.28606098000565,-0.026479461285864238,2.0369393564601057,-6.231314047560741
2.361372955900878,30.902536761622635,-0.03342854560988805,2.0001576791505937,-5.964889056356361
2.3544359509652404,30.525906111816784,-0.03959255897576819,1.9643754767004742,-5.71455488597236
2.34639503583284,30.155983877442964,-0.04504865294423839,1.9295427798660834,-5.478982950590317
2.3373781717609745,29.79259404860327,-0.049865705706976994,1.8956133131832988,-5.25697944507738
2.3275009233832344,29.435569093123622,-0.05410532984817954,1.8625441129182656,-5.047469274513611
2.316867756808642,29.084749358803553,-0.057822739358054744,1.8302951957140476,-4.849482195983692
2.305573184215775,28.739982534568874,-0.06106749846160179,1.798829269914162,-4.662140825073723
2.2937027756451336,28.40112316304367,-0.06388417070304377,1.7681114829826743,-4.484650221172374
2.281334055500575,28.068032198198814,-0.0663128834502037,1.7381091995947995,-4.316288815126668
2.268537298638444,27.740576602676548,-0.06838982036170466,1.7087918059027372,-4.156400482709692
2.2553762387404883,27.41862898017339,-0.07014765224835155,1.6801305362357442,-4.004387599751246
2.2419086998472895,27.10206723891578,-0.07161591504848033,1.6520983191075291,-3.8597049412230775
2.228187160404754,26.79077428280947,-0.07282134224136554,1.6246696399062777,-3.7218543082648727
2.2142592578933953,26.484637727303138,-0.0737881578781997,1.5978204180551232,-3.590379785025493
2.2001682410256516,26.18354963739464,-0.07453833546647042,1.5715278967711346,-3.4648635420128526
2.18595337557599,25.88740628553728,-0.07509182716154945,1.5457705438326739,-3.344922114976343
2.1716503091241672,25.596107927483246,-0.07546676706816223,1.5205279619992607,-3.230203098648618
2.157291399321264,25.309558594340572,-0.07567965190976664,1.4957808079236172,-3.1203822033164665
2.1429142743276466,25.027675462720236,-0.07565850591778552,1.4714100512378312,-3.0111379471857376
2.1285514261495635,24.750378715336193,-0.07552936964098565,1.4475030791204977,-2.906753431635661
2.1142223643983966,24.47758182237394,-0.07530285931866418,1.4240431625874514,-2.8069552296341933
2.099944671898003,24.209201357067045,-0.07498864068548247,1.4010143669587853,-2.7114882723128377
2.085734176904563,23.945156849469,-0.07459551714019802,1.3784015024943468,-2.620114411950302
2.0716051094098056,23.68537064924182,-0.07413150912040907,1.3561900788444052,-2.532611113534087
2.05757024310765,23.429767796770573,-0.07360392563911868,1.3343662629581845,-2.448770261915198
2.04364102443357,23.178275901976974,-0.07301942882488732,1.31291684013231,-2.3683970730373143
2.029827689935416,22.930825030262422,-0.07238409220830921,1.2918291779156137,-2.291309099004182
2.0161393731015496,22.687347595061837,-0.07170345341133512,1.2710911926168782,-2.217335317873037
2.002584201654502,22.44777825653532,-0.07098256182074533,1.250691318188555,-2.146315300049144
1.9891693862142072,22.21205382596554,-0.07022602176130548,1.2306184772827924,-2.0780984440253127
1.9759013011423645,21.980113175465494,-0.06943803162651199,1.2108620542966462,-2.0125432749762333
1.9627855582972926,21.75189715263437,-0.06862241937424507,1.1914118702415184,-1.949516800394005
1.9498270743554746,21.527348499829067,-0.06778267475015404,1.172258159287953,-1.8888939175498085
1.9370301322907821,21.306411777745847,-0.06692197856239974,1.1533915468512133,-1.830556868097171
1.9243984375441598,21.089033293030884,-0.06604322929678218,1.1348030290957654,-1.7743947356031806
1.9119351693645488,20.875161029660713,-0.0651490673307009,1.116483953748127,-1.7203029822126779
1.8996430277552867,20.664744583853462,-0.06424189697732208,1.0984260021176464,-1.6681830210232484
1.8875242764185454,20.457735102290073,-0.06332390656732237,1.0806211722338321,-1.617941821081254
1.8755807820529942,20.254085223441248,-0.062397086754269,1.0630617630169592,-1.569491542205983
1.8638140503263176,20.053749021811072,-0.06146324721074836,1.045740359405958,-1.522749197114435
1.8522252588140748,19.85668195492196,-0.06052403186548996,1.0286498183741397,-1.4776363385569082
1.840815287169267,19.662840812878343,-0.05958093281670005,1.0117832557692077,-1.4340787693866346
1.8295847447625568,19.47218367035793,-0.05863530304340547,0.9951340339193252,-1.3920062736779566
1.8185413564991577,19.284894713179547,-0.05761088920290125,0.9763286732215352,-1.3973546128818963
1.807689545267169,19.101167112407925,-0.05661870271276829,0.9576460717429208,-1.4047782854229747
1.7970232236325792,18.92097786213184,-0.05565836712501992,0.9390828785316728,-1.4141424975038903
1.78653638477485,18.744304579239895,-0.05472941032476068,0.9206358887519647,-1.425315546743044
1.7762231198930325,18.571125476144307,-0.05383127264173879,0.9023020385700062,-1.4381685250701557
1.7660776341328779,18.401419334427317,-0.05296331430725625,0.8840784005561876,-1.452575028818123
1.7560942611551762,18.235165479313412,-0.05212482230013242,0.8659621795902019,-1.4684108747992963
1.7462674764576143,18.07234375487269,-0.05131501662157184,0.8479507092594746,-1.4855538211737715
1.7365919095552251,17.912934499862295,-0.05053305603515597,0.8300414487446867,-1.5038832919284475
1.7270623551179358,17.75691852411353,-0.0497780433047307,0.8122319801897203,-1.5232801037885004
1.7176737831578177,17.60427708537259,-0.0490490299596712,0.794520006556991,-1.5436261943775955
1.7084213483533337,17.454991866502247,-0.04834502061384521,0.7769033499729315,-1.5648043504295248
1.6993003985931718,17.309044952950444,-0.04766497686154044,0.7593799505723912,-1.5866979348319268
1.6903064828181145,17.166418810389843,-0.04700782077064449,0.7419478658549632,-1.609190611252158
1.681435358235811,17.027096262429396,-0.046372437990442585,0.7246052705708175,-1.6321660650560927
1.6726829969803112,16.891060468295105,-0.04575768048850172,0.7073504571585472,-1.655507719182452
1.6640455922857234,16.75829490037257,-0.04516236892821458,0.6901818367629109,-1.6790984435780734
1.6555195642414557,16.6287833214978,-0.04458529469565366,0.6730979408662404,-1.7028202567332413
1.6471015651951348,16.502509761876,-0.044025221581407224,0.6560974235737687,-1.7265540177808605
1.638788484868501,16.37945849549946,-0.04348088712000261,0.6391790646003054,-1.75017910753906
1.630577455251399,16.259614015926136,-0.04295100358633486,0.622341773013646,-1.7735730967843033
1.6224658553394056,16.14296101126894,-0.04243425864517437,0.6055845917989504,-1.7966113999421374
1.614451315781717,16.029484338232812,-0.04192931564628391,0.5889067033181818,-1.8191669122768575
1.6065317235077008,15.919168995021366,-0.04143481355388875,0.5723074357496707,-1.8411096285519575
1.598705226403041,15.812000092917664,-0.04094936649516071,0.5557862706050767,-1.8623062410237838
1.5909702381097466,15.707962826323897,-0.040471562907938005,0.5393428514345768,-1.8826197145265198
1.5833254430285042,15.607042441022234,-0.039999964263035766,0.5229769938460915,-1.9019088363149201
1.5757698016070592,15.509224200393675,-0.03953310333112185,0.5066886969808351,-1.9200277382627189
1.5683025560045802,15.41449334930298,-0.03906948195813191,0.4904781566054325,-1.9368253889842644
1.5609232362294454,15.322835075325447,-0.03860756830644385,0.47434578000017547,-1.9521450534756462
1.553631666856755,15.234234466955304,-0.038145793511351056,0.4582922028434412,-1.9658237179885
1.5464279744422904,15.148676468395408,-0.03768254769353782,0.4423183083133738,-1.977691478095356
1.5393125957618983,15.066145830484004,-0.03721617525795992,0.42642524864878345,-1.987570888335991
1.5322862870196448,14.986627057266475,-0.03674496939734071,0.4106144694304808,-1.9952762725275897
1.5253501341850355,14.910104347668899,-0.036267165703807676,0.3948877368597915,-2.000612994885291
1.518505564639629,14.836561531676864,-0.035780934774155435,0.3792471683195061,-2.0033766936830424
1.5117543603372843,14.765982000369096,-0.035284373671580764,0.3636952664990916,-2.003352481494091
1.5050986727111062,14.698348629104068,-0.03477549607765957,0.34823495734329835,-2.0003141193720793
1.4985410395953687,14.633643693113552,-0.034252220930103654,0.33286963203056064,-1.9940231770643893
1.4920844044744235,14.57184877472719,-0.03371235929037239,0.3176031930890522,-1.9842281980394145
1.4857321384259725,14.512944661447584,-0.0331535991143764,0.3024401045910192,-1.9706638975222035
1.4794880651976092,14.456911234132221,-0.03257348749997227,0.2873854460970166,-1.9530504349260653
1.473356489950076,14.403727344640672,-0.03196940984248283,0.2724449696034865,-1.9310928205037172
1.4673422323284222,14.353370682507677,-0.031338565122293244,0.25762515811225556,-1.9044805417338753
1.4614506646987029,14.305817630555087,-0.030677936243172912,0.2429332834939714,-1.872887530660325
1.4556877566365483,14.26104310993005,-0.029984253884770697,0.22837745992747105,-1.8359726428283965
1.450060127110914,14.219020415954379,-0.029253951648223645,0.2139666871848562,-1.7933808865437955
1.4445751063267585,14.179721047531267,-0.028483109237623445,0.19971087516367897,-1.744745734227316
1.4392408099589602,14.14311453487053,-0.02766737884446163,0.18562083705460372,-1.689692973307169
1.4340662296561373,14.109168273209807,-0.02680188750104313,0.17170823305827745,-1.6278467206594538
1.4290613454149947,14.077847374329131,-0.025881104510983084,0.15798543936989615,-1.558838438775982
1.4242372680229343,14.049114553305298,-0.024898657510708026,0.14446530824939055,-1.4823200532957843
1.4196064236873172,14.022930075381648,-0.023847072337891025,0.13116077515746719,-1.3979825611020118
1.4151827988748555,13.999251796979394,-0.022717399372232185,0.11808426065572199,-1.3055817739899567
1.4109822722309313,13.978035344879626,-0.02149867056381242,0.10524681407868572,-1.2049729165053569
1.4070230736075309,13.95923448581604,-0.020177104419349702,0.09265696553798602,-1.0961553812237548
1.4033264297169246,13.942801739042686,-0.01873493653439928,0.08031931628678732,-0.9793274829191132
1.3999174850990899,13.928689264809577,-0.017148691021756163,0.0682330440617232,-0.8549476852121944
1.3968266331147592,13.916850001004065,-0.015386593023830235,0.05639078546998474,-0.7237925290712313
1.3940914746103323,13.907238885552523,-0.01340454912803004,0.044778850862027486,-0.5869921261304383
1.391759807898474,13.89981374248265,-0.01113931099679466,0.03338054987348453,-0.44601385382699194
1.3898945876887345,13.89453490634467,-0.008494585947832848,0.02218614631576718,-0.3025601965362942
1.3885837837480552,13.891361349155186,-0.005303350269843503,0.011219718836708595,-0.15835613837239618
1.3879697144413516,13.890234147451494,-0.0011605371691418434,0.0006455622547744087,-0.014871981098256382
