x,y,v_x,v_y,omega
2.375,32.48,0.0,2.41025641025641,-3.1020408163265305
2.3743957015899944,31.979052837638548,-0.005755222952432841,2.3606689455669274,-2.9350234868199103
2.3726597116957158,31.488344617125065,-0.010778014135936207,2.3127426783709963,-2.781197282705681
2.369936607346752,31.007536056284565,-0.015156312997049979,2.2663864724908955,-2.639192174241879
2.3663537003236423,30.536306291433345,-0.018966611032566326,2.221516049901689,-2.5078076152728572
2.362023268685169,30.074351508897,-0.022275595048135696,2.1780533075873025,-2.385988583013986
2.3570444704920788,29.621383710808704,-0.025141530600339555,2.1359257218250316,-2.272805410085782
2.351504989551265,29.17712959828492,-0.027615430740741957,2.095065826020532,-2.1674367449950918
2.345482454431103,28.741329557715446,-0.02974204659413668,2.0554107508316153,-2.069155104752893
2.339045665040718,28.31373673805392,-0.031560709504768705,2.016901817373386,-1.9773145840944697
2.3322556553906653,27.89411620875783,-0.033106049067161296,1.979484175922719,-1.8913403659073464
2.3251666165018903,27.48224418948318,-0.03440860701641059,1.9431064838358543,-1.8107197415593732
2.3178266996024797,27.077907343849912,-0.035495363454169246,1.9077206174333696,-1.7349944013379581
2.310278716589202,26.68090213060736,-0.036390189053235884,1.8732814134480595,-1.6637537968298564
2.3025607521078646,26.291034206382133,-0.03711423457854662,1.8397464363160356,-1.5966294108466093
2.2947066994233354,25.908117874912946,-0.03768626717887573,1.807075768152375,-1.5332897980305558
2.2867467304269247,25.531975578291867,-0.03812296135836816,1.7752318187150713,-1.4734362818072728
2.278707708601514,25.16243742625711,-0.03843915126458837,1.7441791530445052,-1.4167992118615491
2.2706135524815214,24.79934076003497,-0.0386480498782036,1.7138843347854091,-1.363134701578699
2.262485556063476,24.44252974761853,-0.038761439817465736,1.684315783466395,-1.3122217775246219
2.2543426717093817,24.09185500770956,-0.03878983974533407,1.6554436442380498,-1.2638598835256125
2.2462017603111213,23.747173259844566,-0.03874264976190871,1.627239668761935,-1.2178666906441813
2.2380778128269823,23.40834699848347,-0.03862827865846568,1.599677106105633,-1.174076171645075
2.22998414674197,23.07524418906538,-0.038454255484506816,1.5727306026380994,-1.1323369046606142
2.2219325805263073,22.747737984234284,-0.03822732752180601,1.546376110038985,-1.0925105759025826
2.2139335887584295,22.425706458613153,-0.0379535464579836,1.5205908006384643,-1.0544706555969035
2.2059964402291254,22.10903236065984,-0.037638344297289336,1.4953529893930784,-1.018101224974153
2.1981409647489065,21.797604637555008,-0.03717570789527516,1.4706253258910384,-0.9802892885677668
2.190384691896161,21.491316358177652,-0.03669355736896586,1.446405906274244,-0.9442776090583948
2.1827313862626245,21.19006275789784,-0.03619506771233412,1.4226760011525355,-0.9099585775471707
2.175184182134288,20.89374291183204,-0.03568306684325514,1.3994177709027042,-0.8772322357761371
2.167745652500496,20.602259553571002,-0.03516007252619005,1.3766142125357217,-0.8460056462945843
2.1604178707393253,20.31551890466737,-0.03462832519924284,1.3542491103560237,-0.8161923213694104
2.153202465788675,20.033430514119836,-0.034089817187903035,1.3323069900966902,-0.7877117045291261
2.146100671517588,19.755907107154002,-0.03354631872721501,1.3107730762445882,-0.7604886993312954
2.1391133709292567,19.48286444265719,-0.03299940116165391,1.2896332522965026,-0.7344532405558394
2.132241135754402,19.21422117867636,-0.032450457646482196,1.2688740237113585,-0.7095399035635785
2.1254842619298646,18.949898745435423,-0.03190072163482872,1.2484824833451884,-0.6856875480307737
2.118842801401172,18.68982122537082,-0.031351283400339734,1.2284462791748119,-0.6628389926849165
2.112316590638531,18.433915239723447,-0.030803104815288057,1.2087535841335328,-0.640940718032044
2.1059052762122477,18.182109841260164,-0.030257032577886235,1.1893930678977547,-0.6199425943877998
2.0996083377352996,17.934336412730765,-0.029713810059714144,1.170353870477445,-0.5997976328088457
2.093425108446989,17.690528570695648,-0.02917408792419663,1.151625577476049,-0.5804617567727759
2.0873547936817434,17.450622074386494,-0.02863843364957262,1.133198196896874,-0.5618935926775098
2.08139648744072,17.214554739287074,-0.028107340074456116,1.1150621373833074,-0.5440542774287944
2.075549187260487,16.98226635514392,-0.02758123307062084,1.0972081877895858,-0.5269072815599943
2.0698118075523126,16.753698608137345,-0.0270604784358011,1.0796274979873173,-0.5104182464844845
2.064183191567221,16.528795006962508,-0.026545388088883175,1.0623115608206524,-0.49455483461999045
2.0586621221256163,16.30750081258769,-0.026036225640682975,1.0452521951300011,-0.47928659124818573
2.053247331235777,16.08976297147313,-0.02553321140541063,1.0284415297705498,-0.4645848170835181
2.047937508712577,15.875530052048674,-0.02503652691077578,1.0118719885576297,-0.4504224506241391
2.042731309896317,15.664752184262113,-0.02454631895837062,0.9955362760762743,-0.4367739594463113
2.0376310581793065,15.457520629229592,-0.024027506917919134,0.9780975813763226,-0.4501404829057722
2.0326368802138988,15.253938873864747,-0.023536092752629998,0.9607762792412388,-0.4655257098182868
2.0277430167300086,15.053982612418938,-0.02307213090346455,0.9435690678616937,-0.48281476104063553
2.022943708363367,14.857628218850614,-0.02263556782645975,0.9264727756461629,-0.5018959343468424
2.0182332173637483,14.664852720056029,-0.022226251217526048,0.9094843557308425,-0.5226604576814691
2.013605847442412,14.475633770208084,-0.021843938509486127,0.8926008809162547,-0.5450022504028066
2.0090559619061183,14.289949626115618,-0.021488304693308827,0.8758195390119893,-0.5688176915700451
2.0045780002146443,14.10777912351914,-0.021158949511205477,0.8591376285735172,-0.5940053943554316
2.000166493089116,13.92910165424209,-0.020855404065255805,0.842552555017439,-0.6204659856831237
1.9958160762897081,13.753897144119346,-0.020577136881485672,0.8260618271039243,-0.6481018902109859
1.9915215031732432,13.582146031626799,-0.020323559465799945,0.8096630537774803,-0.6768171177799502
1.9872776561339247,13.413829247137407,-0.02009403138485295,0.7933539413595845,-0.7065170534577245
1.983079557023827,13.24892819273029,-0.019887864901789835,0.7771322910891582,-0.737108249299447
1.9789223766437913,13.087424722479945,-0.019704329193789307,0.7609959970093715,-0.7684982169371769
1.9748014433900205,12.929301123152761,-0.019542654175456833,0.7449430442018883,-0.8005952200926063
1.9707122511369175,12.774540095237459,-0.019402033949333142,0.7289715073724193,-0.8333080660827625
1.96665046643252,12.623124734234946,-0.01928162990207147,0.7130795497943863,-0.8665458953563372
1.9626119350792743,12.475038512131366,-0.01918057346217377,0.697265422620659,-0.9002179680581449
1.9585926881698297,12.330265258975636,-0.019097968532536175,0.681527464576755,-0.9342334465705376
1.9545889476450302,12.18878914447955,-0.01903289360841121,0.6658641020526402,-0.9685011729227287
1.9505971314393313,12.050594659554509,-0.01898440358872158,0.6502738496144124,-1.0029294398912096
1.946613858277493,11.915666597694013,-0.018951531285928837,0.6347553109617365,-1.0374257545359702
1.9426359521856025,11.783990036105017,-0.01893328863683933,0.6193071803620444,-1.0718965928271955
1.9386604467792867,11.655550316484184,-0.01892866761378605,0.6039282445982657,-1.1062471439145893
1.9346845893924243,11.530333025326662,-0.018936640832522326,0.5886173854733671,-1.140381042475491
1.930705845110774,11.408323973645114,-0.018956161849861913,0.5733735829223314,-1.174200087447558
1.92672190077678,11.28950917596526,-0.018986165140556073,0.5581959187905734,-1.2076039453060523
1.9227306690344201,11.173874828450785,-0.019025565739063038,0.5430835813473014,-1.2404898358839036
1.9187302924864116,11.061407285994932,-0.01907325852768397,0.5280358706131936,-1.272752198554183
1.91471914804047,10.952093038098159,-0.01912811714795135,0.5130522045941543,-1.304282336399272
1.9106958515266905,10.845918683330428,-0.019188992507090715,0.4981321265270862,-1.334968035779362
1.9066592626746415,10.742870902152806,-0.019254710845756348,0.4832753132598053,-1.3646931584865067
1.9026084905465048,10.642936427845427,-0.01932407132697511,0.4684815849057177,-1.3933372034322866
1.8985428995317548,10.546102015257159,-0.019395843099215396,0.4537509159349484,-1.4207748345724986
1.8944621160195834,10.452354407055793,-0.01946876177860758,0.4390834478875638,-1.4468753715295992
1.890366035877754,10.361680297115829,-0.019541525286432635,0.4244795039216278,-1.4715022391460935
1.88625483288105,10.27406629063293,-0.019612788967891256,0.4099396054392919,-1.494512372009517
1.8821289682492233,10.189498860499658,-0.01968115990664932,0.3954644910680572,-1.515755569861664
1.8779892014736976,10.107964299414789,-0.0197451903364527,0.3810551383116498,-1.5350737997846216
1.8738366026346052,10.02944866712842,-0.019803370035857172,0.366712788225195,-1.5523004412071797
1.8696725664355336,9.953937732146063,-0.019854117574348004,0.35243897351154524,-1.5672594701888645
1.8654988282132248,9.881416907127178,-0.019895770257164408,0.33823555047782505,-1.5797645802474998
1.8613174822141623,9.811871177117336,-0.01992657259105032,0.32410473533020434,-1.5896182383906432
1.8571310024705354,9.745285019649575,-0.01994466306253917,0.31004914531513783,-1.5966106772664443
1.852942266655841,9.681642315642545,-0.019948058982169125,0.29607184522802016,-1.6005188278618232
1.8487545833573142,9.620926249915492,-0.019934639099038986,0.28217639979152964,-1.601105202517052
1.844571723271247,9.563119200042284,-0.01990212362541056,0.2683669323342759,-1.5981167460212136
1.84039795491218,9.508202612192726,-0.019848051222847014,0.2546481900424693,-1.591283684395178
1.836238085534173,9.456156862583214,-0.019769752377220284,0.24102561576239093,-1.5803184183816226
1.8320975081015334,9.406961103216808,-0.019664318409824542,0.22750542582243377,-1.5649145341363584
1.8279822553326477,9.360593090792474,-0.019528565103370987,0.21409469250455856,-1.5447460407444975
1.8238990620980422,9.317028998091875,-0.019358989511920277,0.20080142845354423,-1.5194669981273425
1.8198554378212444,9.276243207941722,-0.01915171788615329,0.18763466821458327,-1.488711777005823
1.815859751071283,9.238208091197901,-0.01890244163728647,0.17460453886943425,-1.4520963051442357
1.8119213293511383,9.202893772393551,-0.018606336649806925,0.16172230688628883,-1.4092208151829952
1.808050578344743,9.170267890151987,-0.01825795864919862,0.14900038112860006,-1.35967483730166
1.8042591268606563,9.140295364758565,-0.017851103104006245,0.13645224166589465,-1.303045496451234
1.8005600068518532,9.112938193152257,-0.017378611265546927,0.12409224982274676,-1.238930599437212
1.7969678829271434,9.08815530287546,-0.01683209277930812,0.11193527662293963,-1.166958537056648
1.793499353873182,9.065902511870444,-0.016201517258417987,0.09999606628198558,-1.0868176363112965
1.790173361736204,9.046132660161444,-0.015474598331849764,0.08828823570850278,-0.9982981059264111
1.7870117648765786,9.028795999443027,-0.014635847950296868,0.07682281875262428,-0.9013496725845563
1.784040164667959,9.013840938101769,-0.013665106417509856,0.06560633687839035,-0.7961564120705626
1.7812891288435844,9.001215220064722,-0.012535234767009447,0.05463859680777226,-0.6832253031484274
1.7787960438530144,8.990867521489761,-0.011208431809846792,0.04391091342993538,-0.5634740783236674
1.7766079994810626,8.982749201610066,-0.009630086018266752,0.03340641875764416,-0.4382853517766777
1.7747865285650573,8.97681540932755,-0.007717256038926951,0.023105888694878913,-0.309471899951352
1.773416438582028,8.97302355428479,-0.005331219989922411,0.013007016474256347,-0.179087769546034
1.7726280789985882,8.971322795174043,-0.0021769665190264883,0.0031906893423727777,-0.049050601266487304
