x,y,v_x,v_y,omega
2.375,32.48,0.0,3.8974358974358974,-4.081632653061225
2.3738943225781357,31.749509766703433,-0.011638709703835532,3.7919349793700547,-3.7724416717892484
2.3707694916596878,31.038577392765216,-0.02125424733245744,3.691563693663788,-3.4986883784362433
2.365977693748234,30.34626514845326,-0.029185730682848215,3.5959336148831422,-3.255167683633955
2.3598125151794087,29.671705320668785,-0.03571088583110117,3.5046961512692087,-3.037571534097652
2.3525194522053883,29.014093147444374,-0.04105819810595592,3.4175372510929947,-2.842314189008234
2.344304361530724,28.372680673919405,-0.04541644057471839,3.3341729965382676,-2.666395196678107
2.3353402912064265,27.746771378511,-0.04894219441788895,3.2543459024976076,-2.507291171919274
2.3257730298418506,27.13571544846562,-0.05176581994606394,3.177821782190561,-2.3628697536021406
2.3157256356776523,26.53890560716144,-0.053996223887603556,3.104387073642936,-2.2313207716685732
2.3053021492891737,25.955773413426694,-0.05572468546480491,3.0338465446175236,-2.111100859802657
2.294590649667463,25.38578596713299,-0.057027942132150906,2.966021311105696,-2.000888641485221
2.283665779640323,24.82844296639615,-0.05797068973247857,2.9007471177031388,-1.8995482815399114
2.2725908404957127,24.28327407057686,-0.05860761705289273,2.8378728382894103,-1.8060996944443433
2.2614195353822653,23.74983653043163,-0.05898506835181878,2.7772591632393056,-1.7196940785632677
2.250197425201434,23.227713052601324,-0.059142407235876354,2.7187774455007334,-1.6395937335552513
2.2389631482396517,22.716509870422293,-0.059113139730255795,2.6623086826996216,-1.5651553393012305
2.2277494449406054,22.21585499701898,-0.05892584236496691,2.6077426162826,-1.495816045441176
2.216584021400062,21.72539663995044,-0.05860493174601874,2.5549769318073072,-1.4310818532301703
2.2054902789314665,21.24480175946327,-0.05817130476551018,2.5039165470049953,-1.3705178750193199
2.1944879320574633,20.773754754749667,-0.05764287285557647,2.4544729762960897,-1.3137401380130347
2.183593533266758,20.31195626459902,-0.057035009151846366,2.4065637621318023,-1.2604086631522249
2.172820919633287,19.859122070527494,-0.05636092383206122,2.3601119649368925,-1.210221600881373
2.162181593766549,19.414982091921786,-0.05563198002833336,2.315045704596854,-1.1629102461129688
2.151685049424077,18.979279463981,-0.05485796041874342,2.2712977474114004,-1.1182347871531404
2.1413390503717737,18.551769690317222,-0.05404729276339544,2.228805133259979,-1.0759806694270957
2.1311498696483895,18.13221986300745,-0.05320724116696611,2.187508838421837,-1.0359554758799214
2.1211224952157326,17.7204079436993,-0.05234406865047453,2.147353470084996,-0.997986242967078
2.111260807007965,17.316122100078324,-0.0514631756418151,2.1082869890831946,-0.9619171450014121
2.1015677295927766,16.919160092621393,-0.05056921820227431,2.0702604578318566,-0.92760749092644
2.0920453639934453,16.529328707100873,-0.04966620915910911,2.0332278108052,-0.8949299868406431
2.082695101668844,16.14644322877883,-0.048757604784061104,1.9971456452163359,-0.8637692252012935
2.07351772318827,15.77032695464861,-0.04784637922198427,1.961973029838616,-0.8340203679039894
2.0645134837532853,15.400810740450066,-0.04693508851469393,1.9276713301460675,-0.8055879956167971
2.0556821873963917,15.03773257951108,-0.04602592576839488,1.894204048159046,-0.7783851000466582
2.047023251415516,14.68093721075751,-0.045120768767137276,1.8615366755627565,-0.7523321993919163
2.038535762375247,14.330275753490682,-0.04422122113043455,1.8296365588248908,-0.7273565602185181
2.0302185248132716,13.985605366760453,-0.04332864794299113,1.7984727751775236,-0.7033915114937878
2.0220701036276614,13.646788931365808,-0.04244420664237964,1.7680160184503189,-0.6803758386059732
2.014088860982637,13.31369475269734,-0.041568873831561035,1.7382384938493318,-0.6582532469594174
2.00627298845322,12.986196282798986,-0.04070346858335152,1.7091138208702126,-0.6369718862208732
1.9986205350293988,12.664171860172598,-0.039848672720033396,1.6806169436180878,-0.6164839275485368
1.9911294315153385,12.347504465980254,-0.0390050484806014,1.6527240478802632,-0.5967451871999022
1.9837975117864806,12.036081495417111,-0.038173053928428624,1.6254124843633635,-0.5777147908188736
1.9766225313051269,11.729794543133949,-0.037353056401612066,1.5986606975646669,-0.5593548734726166
1.9696021832417587,11.42853920168439,-0.03654534426541975,1.572448159799112,-0.5416303111657902
1.9627341125035063,11.13221487205827,-0.035750137189869115,1.5467553099495364,-0.5245084801218642
1.956015927931742,10.840724585440928,-0.03496759514449225,1.5215634965488227,-0.5079590406029871
1.9494452128968016,10.553974835409047,-0.03419782627593198,1.4968549248393852,-0.4919537424536617
1.9430253377183357,10.271876102818258,-0.03337980718160362,1.4726054182215484,-0.47481807696494854
1.936758989506775,9.994341981764617,-0.032581752940089734,1.448806382343095,-0.45843504255079826
1.9306424103406918,9.72128835890657,-0.03180329091341741,1.4254422793205384,-0.442762918358254
1.924671914866603,9.452634008374545,-0.031044029866465293,1.4024982525954948,-0.42776273380604035
1.9188438934230319,9.188300465889121,-0.03030356427638921,1.3799600893563264,-0.41339805839529997
1.9131548144023152,8.928211909785475,-0.029581478046943156,1.3578141854188814,-0.39963480972938087
1.9076012259559567,8.6722950484946,-0.028877347704198326,1.3360475123797828,-0.3864410779830426
1.9021797571357364,8.420479014065705,-0.02819074514022625,1.3146475868717638,-0.3737869652487152
1.896887118550957,8.172695261345208,-0.027521239962712843,1.2936024417650582,-0.3616444383529906
1.8917201026119024,7.92887747245619,-0.026868401501020378,1.2729005991719822,-0.34998719388306726
1.886675583420594,7.688961466248095,-0.026231800512753384,1.2525310451237366,-0.33879053429276984
1.8817505163621013,7.45288511241041,-0.025611010629275222,1.2324832057992487,-0.32803125407306544
1.876941937442814,7.220588249965893,-0.025005609573747596,1.2127469251956635,-0.31768753507447584
1.8722469624161107,6.992012609879101,-0.024415180181025252,1.1933124441389997,-0.307738850159976
1.8676627857306338,6.7671017415344465,-0.023839311245046454,1.1741703805415846,-0.29816587444822557
1.8631866793318208,6.54580094285507,-0.023277598216143107,1.1553117108202595,-0.2889504034794656
1.8588159913433377,6.328057193849517,-0.02272964376788881,1.1367277523960753,-0.28007527770115653
1.8545481446515761,6.113819093387669,-0.022195058250654435,1.1184101472023336,-0.27152431272832617
1.8503806354133083,5.9030367990207715,-0.021673460046901977,1.1003508461334381,-0.26328223488542635
1.8463110315039217,5.6956619696727415,-0.021164475841377556,1.0825420943721475,-0.2553346215829469
1.8423369709213064,5.491647711041324,-0.020667740817729145,1.0649764175375112,-0.2476678461237129
1.8384561601584162,5.290948523558253,-0.020182898791643006,1.0476466086000686,-0.24026902657122567
1.8346663725557228,5.0935202527673376,-0.01970960228933911,1.0305457155148339,-0.23312597834606724
1.8309654466432148,4.899320041988439,-0.019247512579167094,1.0136670295261954,-0.22622717024668285
1.8273512844802013,4.708306287143742,-0.01879629966308105,0.9970040741021908,-0.21956168361815354
1.8238257207282285,4.520635241597926,-0.0183148977261053,0.97848061585375,-0.2542244948198669
1.8203877432827953,4.33647352967256,-0.017874338541613025,0.9600637202027484,-0.2902608946962918
1.8170296982500374,4.15580116622634,-0.017473503908470443,0.9417506318627205,-0.32756818556095585
1.8137441474382792,3.9785986796332615,-0.017111241478458494,0.923538700695986,-0.36604550694117644
1.8105238744421515,3.804847092113228,-0.016786369007094685,0.9054253784622653,-0.40559361317180265
1.8073618899582966,3.6345279006466207,-0.016497678191377912,0.887408215923085,-0.4461146536524824
1.8042514364086113,3.467623058405657,-0.0162439381211005,0.8694848602975852,-0.48751195483318993
1.8011859919421973,3.304114956635935,-0.016023898367467017,0.851653053067913,-0.5296898029802781
1.7981592738829417,3.143986406921652,-0.01583629172995903,0.8339106281350674,-0.5725532267552985
1.7951652416859276,2.987220623767577,-0.015679836659663923,0.8162555103288881,-0.6160077786108586
1.7921980994626707,2.8338012074298398,-0.015553239374618673,0.7986857142788862,-0.6599593139713503
1.7892522981324743,2.6837121269260393,-0.015455195680080368,0.7811993436558652,-0.704313767120888
1.786322537254987,2.5369377031529403,-0.015384392503997316,0.763794590797795,-0.7489769226655354
1.7834037665973548,2.393462592037107,-0.015339509155289546,0.7464697367372755,-0.7938541813710412
1.7804911874881686,2.2532717676401077,-0.015319218309825454,0.7292231516521944,-0.8388503190999147
1.7775802540097492,2.116350505135383,-0.015322186726170079,0.7120532957659491,-0.8838692374816715
1.7746666740801897,1.9826843635683709,-0.015347075690245219,0.6949587207289329,-0.9288137048462668
1.7717464104770468,1.8522591683048155,-0.015392541184944191,0.6779380715190023,-0.9735850858317614
1.76881568185562,1.725060993064492,-0.015457233777442637,0.6609900889054501,-1.0180830579416729
1.7658709638164904,1.6010761414282442,-0.015539798213394858,0.6441136125287543,-1.0622053131736535
1.7629089900793997,1.4802911276955761,-0.015638872703350994,0.6273075846572155,-1.1058472426674237
1.7599267538237422,1.362692656957428,-0.01575308788251591,0.6105710546917132,-1.1489016021245322
1.7569215092599717,1.24826760423408,-0.0158810654203306,0.5939031845014362,-1.1912581555337947
1.7538907735011748,1.1370029925111957,-0.016021416251217564,0.5773032546868001,-1.2328032944925766
1.7508323288100587,1.0288859694872379,-0.016172738392109406,0.5607706718811636,-1.2734196301441296
1.74774422530374,0.9239037828225598,-0.01633361430597956,0.5443049772207029,-1.3129855544542046
1.7446247842071485,0.8220437536540253,-0.016502607763407236,0.5279058561322859,-1.3513747672262921
1.7414726017557443,0.7232932481082415,-0.016678260146110267,0.5115731496128041,-1.388455764905696
1.7382865538597772,0.6276396465109642,-0.01685908612722612,0.4953068672006444,-1.4240912868520872
1.7350658016556801,0.5350703099491305,-0.017043568652745048,0.47910720187128863,-1.458137714375472
1.7318097980856824,0.4455725437944906,-0.01723015313670403,0.46297454712493463,-1.4904444174439946
1.7285182956646117,0.35913355774299305,-0.017417240769301727,0.4469095165750198,-1.5208530436035057
1.7251913556134657,0.2757404218610304,-0.017603180821709787,0.4309129663930129,-1.5491967433292493
1.7218293585631033,0.1953800180570724,-0.017786261813684687,0.4149860210170547,-1.5752993258063195
1.7184330170587834,0.11803898631441001,-0.017964701389681186,0.39913010258988785,-1.5989743390782254
1.7150033901278459,0.04370366492620548,-0.01813663472545076,0.3833469646543387,-1.6200240687168312
1.711541900209296,-0.027639976132526556,-0.01830010125928566,0.3676387307007459,-1.6382384498070666
1.7080503527863058,-0.09600640968065477,-0.01845302950903242,0.3520079382269196,-1.6533938883342982
1.7045309591118145,-0.16141063477022044,-0.0185932196961383,0.33645758903162964,-1.6652519903465026
1.7009863624750359,-0.2238682703464292,-0.018718323848901316,0.3209912065073729,-1.6735582010299412
1.697419668524859,-0.2833956605321717,-0.018825822995065265,0.30561290071098274,-1.678040361809644
1.693834480247882,-0.3400099930845144,-0.018913000973114276,0.2903274419452727,-1.6784072028288126
1.6902349382985742,-0.39372943269608385,-0.018976914282755768,0.27514034343968125,-1.6743468022408616
1.686625767503628,-0.44457327089654797,-0.01901435724299482,0.2600579534072833,-1.6655250649726363
1.6830123305224731,-0.49256209430710385,-0.019021821506004514,0.24508755617749522,-1.6515843053903547
1.6794006898580922,-0.5377179728485189,-0.018995448645372722,0.2302374811005842,-1.6321420656335355
1.6757976797040117,-0.5800646690968421,-0.018930974029160115,0.21551721625019754,-1.606790371638552
1.672210989529641,-0.6196278691591814,-0.01882365938526612,0.20093752124809652,-1.575095732796132
1.6686492619216686,-0.6564354339572205,-0.018668210172339134,0.18651052925759679,-1.5366003442638825
1.6651222081389696,-0.6905176672841407,-0.01845867175080935,0.1722498215520761,-1.4908251750203736
1.6616407463127565,-0.7219075928891598,-0.018188294840908222,0.15817044797441276,-1.437275949351303
1.6582171695870622,-0.7506412263565352,-0.0178493549032406,0.14428885168219457,-1.3754534915212635
1.6548653553445982,-0.7767578176278249,-0.01743290028059061,0.13062263538403746,-1.3048705412330275
1.6516010330013495,-0.8003000254149271,-0.016928387543081503,0.11719007816443557,-1.2250779798445262
1.6484421383435148,-0.8213139643861282,-0.016323135170968256,0.10400927942714036,-1.1357043763508394
1.645409299745484,-0.8398490400870742,-0.015601481650407804,0.09109678058279595,-1.0365135982128377
1.6425265302401084,-0.8559574593557429,-0.014743460511441061,0.07846552750844177,-0.9274851698534047
1.6398222464345857,-0.869693289817576,-0.01372268480985081,0.06612216156351748,-0.8089193402396715
1.6373308132157027,-0.8811109762987286,-0.012502928020496842,0.05406401192227874,-0.6815601028602878
1.6350949502104388,-0.8902633775287896,-0.011032472034910968,0.042277053657298634,-0.5467100778090903
1.6331696212330113,-0.8971997933784124,-0.009234148780116684,0.030737850022926796,-0.4062792122199433
1.6316288302847881,-0.9019653588510863,-0.006984703306442813,0.019425997057887875,-0.2626754961450075
1.6305800288259096,-0.9046055640278041,-0.0040553120501749165,0.008365636381230574,-0.1184420033891121
