x,y,v_x,v_y,omega
2.375,32.48,0.0,2.358974358974359,-6.163265306122449
2.374083413991709,32.03613628523255,-0.009648273771482783,2.313275270156623,-5.8628086790543446
2.371439875797384,31.600820470434957,-0.01817844406352037,2.2689964645549088,-5.583564491810261
2.367270286069336,31.17379011976287,-0.0257119741264547,2.2260598583091618,-5.323530461994536
2.3617538466837638,30.754797031633615,-0.03235580887957316,2.18439370094618,-5.080933297331182
2.35505063275595,30.343606103565058,-0.03820433772898738,2.143931857670201,-4.854198169439498
2.3473038204294223,29.939994323422173,-0.043341055181831435,2.1046131964654204,-4.641922852057539
2.338641622818354,29.543749868896874,-0.0478399723030971,2.0663810616956226,-4.442855715286452
2.3291789774071994,29.154671300181345,-0.05176682149853203,2.029182819520482,-4.255876924881914
2.3190190209190082,28.772566833314492,-0.055180088903482694,1.9929694632884953,-4.079982318964233
2.308254381761213,28.39725368371853,-0.05813190223120031,1.9576952693005711,-3.9142695318801892
2.296968315347647,28.028557471099887,-0.06066879685897278,1.9233174951062166,-3.757926012348502
2.2852357036513253,27.66631167824416,-0.06283237889177982,1.8897961139014343,-3.610218644960259
2.2731239370895073,27.310357157349763,-0.0646599007063063,1.8570935797237882,-3.4704847339831035
2.260693694145089,26.960541678466583,-0.06618476186651916,1.8251746190465237,-3.3381241488175246
2.2479996318805138,26.61671951537201,-0.06743694618163876,1.7940060451068722,-3.2125924633559597
2.235090998618414,26.278751064856372,-0.06844340394572256,1.7635565918998235,-3.093394948430053
2.222012178480831,25.946502495926598,-0.06922838697620985,1.7337967652557167,-2.9800812986875607
2.20880317614304,25.619845425889423,-0.06981374289527574,1.704698708819822,-2.8722409935488784
2.1955000490261423,25.298656620658768,-0.07021917412469941,1.6762360830818193,-2.7694992070871183
2.182135293190132,24.982817716957754,-0.07046246625435618,1.648383955876224,-2.6715131943359487
2.168738188368158,24.672214964364315,-0.07055968976642445,1.6211187030020762,-2.5779690921188467
2.1553351068801816,24.366738985388107,-0.07052537852805868,1.5944179178001012,-2.48857908138275
2.141949790561399,24.066284551972032,-0.07037268798544628,1.5682603286848835,-2.403078865506773
2.128603599322075,23.770750376989408,-0.07011353558638049,1.5426257237638155,-2.3212254253841906
2.1153157345080196,23.480038919461975,-0.06975872561420778,1.5174948817881146,-2.2427950174394713
2.1021034398439813,23.194056202358233,-0.06931806032303496,1.4928495087775802,-2.167581385301977
2.0889905281703016,22.912717744839227,-0.06871258887359404,1.4686079387909368,-2.091912303079277
2.0759973756231234,22.63594200103158,-0.06805743793880958,1.4448209433947867,-2.0195919822017268
2.0631328446425474,22.363644121740197,-0.06735867764620042,1.4214725228303131,-1.9504332343113804
2.0504046997212284,22.09574222856284,-0.06662179520978678,1.3985474053523723,-1.8842613267958863
2.0378197128498763,21.832157279609348,-0.06585175080444788,1.3760310046844255,-1.8209130200781056
2.025383758882954,21.57281294301627,-0.06505302779473184,1.3539093805058617,-1.7602356895050038
2.013101901839224,21.317635477705462,-0.0642296779287413,1.3321692017131688,-1.7020865235044083
2.0009784730425144,21.0665536208816,-0.06338536203662538,1.3107977122222367,-1.646331790587758
1.9890171419114853,20.8194984818058,-0.06252338671104729,1.2897826991019428,-1.5928461685773239
1.9772209801216432,20.576403441420418,-0.06164673739255484,1.2691124628494452,-1.5415121301418835
1.9655925197870232,20.337204057434334,-0.060758108235022194,1.2487757896356366,-1.492219379347752
1.9541338062416806,20.10183797450925,-0.059859929084372786,1.2287619253652575,-1.4448643344829657
1.9428464459413122,19.870244839215555,-0.05895438986687542,1.2090605514105013,-1.3993496529003644
1.931731649952135,19.642366219452033,-0.058043462650777686,1.1896617618897438,-1.3555837940581723
1.9207902734467588,19.418145528046928,-0.05712892161634161,1.1705560423745076,-1.3134806173212088
1.910022851584527,19.197527950279135,-0.05621236114399268,1.1517342499180638,-1.2729590114279592
1.8994296321161004,18.980460375077627,-0.05529521220786645,1.1331875943083314,-1.2339425528334953
1.8890106050183464,18.766891329675012,-0.05437875724217488,1.1149076204560604,-1.1963591904100954
1.8787655294354706,18.556770917507187,-0.05346414363020387,1.0968861918368062,-1.1601409542302412
1.8686939581753397,18.350050759166052,-0.05255239595012057,1.0791154749119842,-1.1252236863738423
1.8587952599857798,18.146683936225674,-0.051644427097876866,1.0615879244604354,-1.0915467918959985
1.8490686398139435,17.94662493777497,-0.05074104839513721,1.0442962697574953,-1.059053008265951
1.839513157232386,17.74982960950137,-0.04984297877915333,1.0272335015436038,-1.0276881917443499
1.830127743198005,17.556255105180462,-0.04895085316169814,1.0103928597290737,-0.9974011193065735
1.820911215294279,17.36585984043655,-0.04806523003541745,0.9937678217858117,-0.968143304846328
1.8118691555679622,17.178819581041072,-0.04711434603107631,0.9750770139560312,-0.9847452853064302
1.8030039782765281,16.99531953740889,-0.04620330966822847,0.9565023926985339,-1.0031436736518262
1.7943081944898855,16.81533792907216,-0.04533125650695621,0.93804085295121,-1.023215676078151
1.7857744855442301,16.638853553157475,-0.04449725871046869,0.9196894198349621,-1.044841097742263
1.7773957144998032,16.46584576006387,-0.04370033123086895,0.9014452443082487,-1.0679020724883748
1.7691649364746507,16.296294429923122,-0.042939437454945086,0.883305599278583,-1.0922827980060386
1.7610754079535749,16.1301799497563,-0.04221349434585359,0.8652678761616327,-1.1178692753026456
1.7531205951649675,15.96748319124218,-0.041521377113169965,0.8473295818817117,-1.1445490513800802
1.7452941816123642,15.808185489013905,-0.04086192344055168,0.8294883363106677,-1.172210964004084
1.7375900748422808,15.65226861940057,-0.04023393729716666,0.8117418701454869,-1.200744887445615
1.7300024125252242,15.499714779530049,-0.03963619235606024,0.7940880232284014,-1.2300414780558402
1.7225255679226232,15.35050656670824,-0.039067435039741166,0.7765247433169389,-1.259991918510126
1.7151541548088562,15.204626957988182,-0.03852638721043646,0.7590500853152565,-1.2904876595211392
1.707883031914496,15.062059289839915,-0.03801174851967126,0.7416622109822957,-1.3214201577765874
1.7007073069543677,14.922787237828597,-0.037522198429046576,0.7243593891368534,-1.3526806088027388
1.6936223403020358,14.786794796204056,-0.037056397911288515,0.7071399963846521,-1.3841596733901957
1.6866237483708728,14.654066257299707,-0.03661299083779842,0.6900025183979858,-1.4157471961429484
1.6797074067609605,14.524586190632363,-0.03619060505601447,0.6729455517846071,-1.4473319146249801
1.6728694532307364,14.39833942158684,-0.03578785315686991,0.655967806589304,-1.4788011574801854
1.6661062905525346,14.275311009560333,-0.03540333292946571,0.6390681094791972,-1.5100405297906956
1.6594145893120462,14.155486225430941,-0.03503562749672918,0.6222454076723046,-1.540933583815689
1.652791290713242,14.038850528202616,-0.03468330512226226,0.6054987736784899,-1.5713614731174583
1.6462336094525258,13.92538954066455,-0.0343449186747486,0.5888274109327093,-1.6012025879344103
1.639739036728872,13.815089023886742,-0.03401900473213444,0.5722306604126414,-1.630332169502933
1.633305343460509,13.707934850354622,-0.033704082303267054,0.5557080083465206,-1.6586219008637533
1.6269305837834271,13.603912975524118,-0.033398651139698074,0.539259095132477,-1.6859394715169858
1.6206130989126941,13.503009407553762,-0.03310118960486072,0.5228837256081015,-1.712148113118908
1.614351521454369,13.405210174942287,-0.03281015206171751,0.5065818808284841,-1.7371061032507469
1.6081447802638578,13.310501291767967,-0.032523965733139294,0.49035373153276524,-1.7606662341474137
1.6019921059559592,13.218868720189533,-0.03224102698158362,0.47419965350337145,-1.7826752431696895
1.5958930371828461,13.130298329827099,-0.03195969694592228,0.4581202450485736,-1.8029732017619378
1.589847427808969,13.044775853595063,-0.03167829646331043,0.4421163468675929,-1.8213928596949138
1.5838554551266664,12.96228683950681,-0.03139510019250839,0.4261890645877106,-1.8377589416005673
1.5779176292734183,12.882816597913067,-0.031108329841680965,0.4103397942937825,-1.851887393235019
1.5720348040316106,12.8063501435721,-0.030816146387875654,0.39457025140059143,-1.8635845756589242
1.5662081892149073,12.732872131880775,-0.03051664115636883,0.37888250324495243,-1.872646406744858
1.5604393648725985,12.662366788522153,-0.030207825604776386,0.36327900579318506,-1.8788574513117358
1.5547302975755186,12.594817831709726,-0.02988761962764486,0.34776264486395436,-1.8819899640323576
1.5490833590857147,12.53020838613423,-0.02955383815976297,0.33233678224654123,-1.8818028934653286
1.543501347758871,12.468520887652463,-0.02920417580701095,0.3170053070352133,-1.8780408616966124
1.537987513086378,12.409736977708128,-0.028836189166602202,0.3017726923788558,-1.8704331429442587
1.5325455838570359,12.35383738645751,-0.028447276405418616,0.2866440576276607,-1.858692677221016
1.5271798005129502,12.3008018036108,-0.028034653532326197,0.27162523549561374,-1.8425151733725151
1.521894952399736,12.250608736127532,-0.02759532660676964,0.25672284327561357,-1.8215783817824005
1.5166964207824511,12.203235352173845,-0.02712605883833406,0.24194435623686833,-1.795541653947184
1.511590228738522,12.158657311236226,-0.026623331097763138,0.22729817994861207,-1.7640459584165396
1.506583099383132,12.116848581102737,-0.02608329369581701,0.21279371619338944,-1.7267145963882509
1.5016825243873153,12.077781243728875,-0.025501706260146167,0.19844141405776702,-1.6831549637900947
1.4968968455030616,12.041425294027896,-0.024873860942524507,0.18425279332095681,-1.6329618506956487
1.492235352953118,12.007748438675875,-0.02419448168846032,0.17024042091084265,-1.5757229664451358
1.4877084062966384,11.976715906507927,-0.023457588379747377,0.15641781243596925,-1.5110276436586765
1.4833275860916553,11.948290288496167,-0.02265630851481039,0.14279921926677988,-1.4384800159867184
1.479105888880179,11.922431434141082,-0.0217826095007309,0.12939924762885752,-1.3577183757657065
1.4750579845481457,11.89909644264737,-0.020826909783827972,0.11623224177864894,-1.268442846978651
1.4712005652074898,11.878239800975013,-0.01977750432834237,0.10331135477245697,-1.1704538030563065
1.4675528302629428,11.859813734254047,-0.018619705614254505,0.09064724229034861,-1.0637032602993772
1.4641371760270656,11.843768840360454,-0.017334549500243542,0.07824637764219632,-0.9483600647395345
1.460980194606531,11.830055064842966,-0.01589683387380345,0.06610915412082362,-0.82488582213448
1.4581141448300683,11.8186230067931,-0.014272111141594955,0.054228299035677024,-0.6941105510728975
1.4555791624253396,11.809425383980152,-0.012411914171338296,0.042588783205874094,-0.5572839749806038
1.4534267117269324,11.802418152668505,-0.010245461601369528,0.031171546390413835,-0.4160626901182194
1.4517254788827596,11.797560106958457,-0.007662252547818174,0.019965776873261093,-0.2723844632696842
1.450573710173914,11.794807939853015,-0.00446162859792526,0.0090044031840304,-0.12819298256790526
1.4501414319078312,11.794092158433784,-8.866893978736953e-05,-0.0014698619289514065,0.014875006665441726
