x,y,v_x,v_y,omega
2.375,32.48,0.0,2.1538461538461537,-2.7346938775510203
2.3744342790012336,31.989707535752515,-0.0049193130327509355,2.1095665787406364,-2.5894266418125436
2.372808585867955,31.50943252524265,-0.009217148995759594,2.0667378604755906,-2.455396319463692
2.3702573927749477,31.038850287927595,-0.012967138769522064,2.0252815944379465,-2.3314556488442477
2.3668993236420226,30.577653510031386,-0.016233462386346282,1.9851251698768886,-2.216597121566526
2.362839174014578,30.125550976992375,-0.019072186547956275,1.9462012043753925,-2.1099335174829057
2.358169647288546,29.682266427841196,-0.021532393678406293,1.908447049113118,-2.010681475340432
2.3529728511243793,29.247537516491203,-0.02365713818391566,1.8718043539303078,-1.9181475755850044
2.3473215904590377,28.821114867217574,-0.02548425890600867,1.8362186832316845,-1.8317165108200917
2.3412804874693656,28.402761213478286,-0.027047071438967927,1.8016391753708323,-1.7508409980321133
2.3349069538848486,27.992250610776313,-0.028374959730743384,1.7680182394289217,-1.6750331494435768
2.3282520369746877,27.589367715545016,-0.02949388296630957,1.735311284321479,-1.6038570692149305
2.3213611571723414,27.193907123109263,-0.030426810967137646,1.7034764759894343,-1.5369224838366282
2.3142747525153244,26.80567275867414,-0.031194099093877884,1.6724745190985584,-1.4738792469725082
2.3070288427618273,26.424477316052823,-0.0318138118060969,1.6422684602172475,-1.414412586312758
2.2996555241130925,26.050141739490318,-0.03230200253072825,1.6128235098914956,-1.358238981899583
2.292183403852711,25.68249474449096,-0.03267295625519992,1.5841068814072754,-1.3051025833653354
2.284637982855647,25.321372374030073,-0.03293940024100701,1.5560876443395621,-1.2547720883311713
2.277041992775975,24.966617586937762,-0.03311268740831722,1.5287365912457573,-1.207038016456224
2.2694156937564496,24.61807987559545,-0.03320295623972566,1.502026116078711,-1.1617103237819857
2.261777137685336,24.27561491039239,-0.03321927046561226,1.47593010307831,-1.1186163104672653
2.2541580231445497,23.93908618716759,-0.033033899454268864,1.450406620615606,-1.0743466715336405
2.24658650641829,23.60836262807525,-0.0328053764262468,1.4254504149699694,-1.0323338998349778
2.239071885074647,23.283316321343314,-0.03253915699673644,1.4010392087859782,-0.9924338722041066
2.231622269279965,22.963824348666883,-0.03224011078310675,1.3771518579655748,-0.9545134093609672
2.22424470922563,22.64976853289095,-0.03191258534154699,1.3537682792164738,-0.918449314324337
2.2169453086984197,22.34103520171861,-0.031560462721153336,1.3308693831516616,-0.884127506511891
2.2097293263875937,22.037514966225388,-0.031187209546897483,1.3084370124416256,-0.8514422409111257
2.202601266326123,21.739102513068765,-0.030795921422411224,1.286453884572465,-0.8202954030016096
2.1955649586934394,21.445696409379956,-0.03038936234005688,1.2649035388084826,-0.7905958712337845
2.1886236320592056,21.157198919412203,-0.029969999696757833,1.2437702869980714,-0.7622589398461629
2.18177997801878,20.87351583209923,-0.029540035437377113,1.223039167897333,-0.7352057956523744
2.175036209058639,20.594556298748522,-0.029101433781240325,1.2026959047175199,-0.7093630431700098
2.1683941103918265,20.320232680158497,-0.02865594593017081,1.1827268656305516,-0.6846622731097551
2.1618550864175696,20.050460402506907,-0.028205132106847317,1.163119026991957,-0.6610396698088234
2.1554202023839113,19.785157821410586,-0.02775038122931221,1.1438599390630209,-0.6384356536881535
2.1490902217661763,19.52424609360443,-0.027292928490122784,1.1249376940339715,-0.61679455524767
2.142865639816054,19.267649055731198,-0.026833871076160143,1.1063408961680148,-0.5960643174961002
2.1367467136850613,19.01529310977313,-0.026374182236816937,1.0880586339021634,-0.576196224048328
2.130733489481213,18.76710711469252,-0.02591472388360372,1.0700804537553035,-0.5571446504199489
2.1248258265780935,18.523022283881353,-0.025456257882653488,1.0523963359070023,-0.5388668363106648
2.1190234194605724,18.28297208804998,-0.024999456182745704,1.0349966713223302,-0.5213226768998257
2.113325817360487,18.046892163212426,-0.024544909904954886,1.0178722403085938,-0.5044745313825727
2.1077324419082792,17.814720223450998,-0.02409313750554595,1.001014192399489,-0.48828704715695953
2.1022426030023738,17.586395978165903,-0.02364459211102274,0.9844140274708729,-0.4727269982339651
2.096859045854717,17.361974398374763,-0.02316894830338474,0.9670779707129532,-0.47754489909368575
2.0915825233139236,17.141525251443234,-0.022713856399169056,0.9498711330394912,-0.4847808344901566
2.0864082217183935,16.92501926410897,-0.022280070518480754,0.9327896263889038,-0.4943031586441828
2.0813311730742075,16.712428038811844,-0.0218681785613998,0.915829724020868,-0.5059844662017943
2.0763462916939988,16.503724017467793,-0.021478616049111443,0.8989878528839413,-0.5197012868607261
2.071448407777641,16.298880446932582,-0.021111678875736232,0.8822605865526728,-0.5353337923161903
2.0666322981758976,16.097871346028132,-0.020767535052469314,0.8656446387034192,-0.5527655142863455
2.0618927145601904,15.900671474010565,-0.02044623551889637,0.8491368571014991,-0.571883072431421
2.0572244092051526,15.707256300365202,-0.02014772409013015,0.8327342180755699,-0.5925759110256261
2.0526221585754825,15.517601975818813,-0.01987184660265172,0.8164338214582441,-0.6147360432780814
2.0480807848947924,15.331685304463992,-0.019618359316394374,0.8002328859749908,-0.6382578022282538
2.0435951758614594,15.149483716894238,-0.019386936625629687,0.7841287450663397,-0.6630375971628902
2.0391603026649574,14.970975244251505,-0.01917717812656222,0.7681188431313429,-0.688973674515271
2.034771236445608,14.796138493090332,-0.018988615085172283,0.752200732183192,-0.7159658822137082
2.0304231633311693,14.624952620964514,-0.018820716344727966,0.7363720689108696,-0.7439154364444726
2.02611139817505,14.45739731264323,-0.01867289370848287,0.7206306121437719,-0.7727246897845462
2.0218313971131994,14.293452756863964,-0.01854450682935087,0.7049742207194077,-0.8022968996414576
2.0175787690498255,14.133099623529105,-0.018434867634770525,0.6894008517576173,-0.8325359959105995
2.0133492861760036,13.976319041251926,-0.01834324431150671,0.6739085593482913,-0.8633463467243597
2.0091388936199284,13.823092575155584,-0.018268864871753568,0.6584954936633766,-0.8946325211215415
2.004943718323042,13.673402204825866,-0.018210920318566845,0.6431599005080824,-0.9262990474092421
2.0007600772324934,13.527230302314404,-0.01816856742533233,0.6279001213307195,-0.9582501659218112
1.996584484897407,13.384559610084079,-0.018140931140633896,0.6127145937155973,-0.9903895748018481
1.9924136605541887,13.245373218782056,-0.018127106626483175,0.5976018523889534,-1.0226201673354405
1.9882445347846902,13.109654544718303,-0.018126160934372734,0.5825605307741052,-1.0548437592669457
1.9840742558304405,12.977387306918295,-0.018137134319973474,0.5675893631390109,-1.0869608043964165
1.9799001956463946,12.848555503607766,-0.018159041193467774,0.5526871873873354,-1.1188700966241323
1.975719955778825,12.723143387974616,-0.01819087069844204,0.537852948553105,-1.1504684564504446
1.9715313731540958,12.601135443038043,-0.0182315869078988,0.5230857030692696,-1.181650399764231
1.9673325258682464,12.482516355437475,-0.018280128621226813,0.508384623892182,-1.212307786558804
1.9631217390716114,12.367270987933477,-0.018335408740817193,0.4937490065773785,-1.242329446999694
1.9588975910482616,12.255384350389079,-0.018396313201354483,0.4791782764173764,-1.2716007820344422
1.9546589195969721,12.146841568972558,-0.018461699418554214,0.46467199676976056,-1.300003335481598
1.9504048288288651,12.04162785329078,-0.018530394217158536,0.4502298787239625,-1.3274143342671816
1.9461346965070165,11.939728461125537,-0.018601191190220103,0.43585179227815635,-1.3537061931969403
1.9418481820653506,11.841128660402791,-0.018672847432961725,0.42153777922398117,-1.3787459803701998
1.9375452354583276,11.745813687975865,-0.018744079584629928,0.4072880679666768,-1.4023948390693028
1.9332261070095302,11.653768704747367,-0.01881355910056575,0.3931030905419987,-1.4245073617181732
1.9288913584466107,11.564978746590189,-0.018879906663950338,0.3789835021291302,-1.444930911325495
1.9245418753325723,11.479428670454254,-0.018941685632037544,0.3649302034007301,-1.4635048857586246
1.9201788811294906,11.397103094962034,-0.01899739439475894,0.3509443660968459,-1.4800599203018696
1.9158039531611517,11.31798633470126,-0.019045457503841113,0.3370274622577037,-1.4944170243370838
1.9114190407763743,11.242062327317694,-0.019084215407266535,0.3231812975993907,-1.506386648791482
1.9070264860560013,11.169314552394063,-0.01911191259597622,0.30940804956262924,-1.5157676824395032
1.9026290474548708,11.099725940975102,-0.019126683935593938,0.29571031060224134,-1.5223463775313688
1.8982299268272484,11.033278774465916,-0.019126538913296402,0.28209113730371455,-1.5258952090001363
1.8938328003525784,10.969954571497738,-0.019109343475137954,0.26855410589784057,-1.5261716773257592
1.8894418539614426,10.909733961232437,-0.01907279905647852,0.2551033746699973,-1.5229170739622964
1.885061823964457,10.85259654148268,-0.019014418308613647,0.241743753588761,-1.515855241453443
1.880698043717342,10.798520719987764,-0.018931496883689874,0.22848078114965206,-1.504691380001297
1.876356497325831,10.747483537252496,-0.01882108043379495,0.2153208078526753,-1.489110981274558
1.8720438816239122,10.6994604696011,-0.018679925669849797,0.20227108476816516,-1.468779012957166
1.867767677979428,10.654425211632944,-0.01850445384740249,0.18933985408536086,-1.4433395401986384
1.863536235943266,10.612349438264868,-0.018290694293138655,0.17653643607181171,-1.4124160617190602
1.859358871445784,10.573202548266146,-0.018034214380616972,0.16387130304751338,-1.3756129715582586
1.8552459832947545,10.53695139402235,-0.017730030410945227,0.15135612515941999,-1.332518749827388
1.851209193371376,10.503560006759475,-0.017372490661911363,0.13900376408295997,-1.282711760161253
1.8472615185336911,10.472989333388927,-0.016955116622302646,0.12682817826961795,-1.2257699147405674
1.8434175864464355,10.445197011485917,-0.016470379788616655,0.11484418610438897,-1.1612859838380793
1.8396939143920268,10.420137223776795,-0.015909377206241453,0.10306701136623028,-1.0888909767735635
1.8361092812501103,10.397760693618988,-0.015261345766946698,0.09151151174511911,-1.008288731640544
1.8326852409341825,10.378014907456908,-0.014512917849816622,0.08019097662079323,-0.9193053605776467
1.8294468548587195,10.360844673823433,-0.013646961067252468,0.06911540280074577,-0.8219568304405622
1.826423768231567,10.346193135538016,-0.012640748734075523,0.05828927794200656,-0.7165352623644883
1.8236518321897166,10.334003306305476,-0.011463042934188282,0.04770923712354824,-0.6037069363760867
1.8211756092806506,10.324220034444693,-0.010069330188123787,0.037362692100655986,-0.48459929322156003
1.8190523854590528,10.316791883293604,-0.008393485651856391,0.027229926604450075,-0.3608299061688054
1.817359124947168,10.3116715237481,-0.006330518799318802,0.01729493900862205,-0.23440693363521892
1.8162071122046346,10.308810877911082,-0.0036869833096657115,0.00758024218285051,-0.10743157741340545
