x,y,v_x,v_y,omega
2.375,32.48,0.0,2.4615384615384617,-4.938775510204081
2.3742183678355526,32.0169200813506,-0.008227706994182848,2.412986997928875,-4.689745232705151
2.371966944570198,31.562918971322336,-0.015471485272705117,2.3659720550002086,-4.458971923104705
2.3684221896862137,31.117712618551717,-0.021841724032397716,2.320410605743138,-4.24467925211878
2.363740872419355,30.681032137161665,-0.027435299829269268,2.276226040467937,-4.045298566796793
2.3580624638151306,30.252622652377113,-0.032337422320464236,2.2333474835799856,-3.8594408634728867
2.3515112049195017,29.832242266955987,-0.03662319763352098,2.1917092050634346,-3.685873047968255
2.3441979001536675,29.419661131964297,-0.040358957796312676,2.1512501106385997,-3.5234977474246745
2.336221476604296,29.014660608172644,-0.04360339535496847,2.1119132976945827,-3.371336078682549
2.327670343220981,28.617032506569146,-0.04640853499571447,2.073645666552764,-3.2285128889657835
2.318623578417685,28.226578398284367,-0.04882056819687818,2.0363975785501527,-3.0942440726796003
2.309151970068683,27.843108985695494,-0.05088057231892752,2.000122553964329,-2.9678256385112207
2.299318928174406,27.466443527686565,-0.05262513183135838,1.96477700402439,-2.8486242576294893
2.2891812873945434,27.09640931304207,-0.05408687637772221,1.9303199922334369,-2.736069069561809
2.2787900140840294,26.73284117678299,-0.05529494794347862,1.8967130210200274,-2.6296445595501154
2.2681908303263985,26.375581054950107,-0.056275407400002905,1.8639198403787387,-2.528884351601576
2.2574247656624653,26.024477573924102,-0.05705158906245275,1.8319062756844913,-2.433365786414963
2.24652864569933,25.679385670865994,-0.057644410549496504,1.800640072295597,-2.342705173945571
2.235535525506268,25.34016624228095,-0.05807264411431543,1.7700907549153504,-2.2565536274092044
2.2244750746202864,25.006685818066266,-0.05835315468549252,1.7402294999760664,-2.174593399684
2.2133739195626654,24.678816258710874,-0.058501109078937616,1.7110290195544005,-2.0965346548772126
2.2022559489820863,24.356434473577693,-0.058530160190315664,1.6824634555317206,-2.022112617706686
2.1911425858682154,24.03942215842805,-0.05845260942937897,1.6545082828855706,-1.951085051644669
2.1800530307038763,23.727665550545268,-0.058279550195240636,1.6271402211437154,-1.8832300237607822
2.1690044789292893,23.42105519998683,-0.05802099480041485,1.600337153155589,-1.81834392010516
2.1580123156658955,23.119485755645158,-0.05768598691951949,1.5740780504409841,-1.7562396804746074
2.1470902902797055,22.82285576492903,-0.05728270135616155,1.5483429044655963,-1.6967452256534294
2.136250673046203,22.531067485994143,-0.05681853268070705,1.5231126632700824,-1.6397020538390892
2.125504395903388,22.244026711553644,-0.05630017408576864,1.4983691729456645,-1.5849639860521954
2.1148685222166526,21.961646220898647,-0.05565639103776131,1.4740570444753793,-1.529561683497789
2.10435761482112,21.683841820761906,-0.05498473944153031,1.4501997990692657,-1.4766133807993336
2.0939765849739698,21.410528591522848,-0.054289258949522454,1.426781561341885,-1.4259818910140665
2.083729615065461,21.141624562370303,-0.053573582192676904,1.4037871665796258,-1.3775391491973168
2.0736202321482557,20.87705058011835,-0.052840974830535764,1.381202120283003,-1.3311655087914205
2.0636513742484004,20.616730185445434,-0.05209437148373182,1.35901256048454,-1.2867490996027406
2.0538254501975266,20.360589496050775,-0.05133640799914959,1.337205222617158,-1.2441852413414762
2.0441443936452943,20.10855709626287,-0.050569450445402765,1.3157674067291836,-1.2033759073500818
2.034609711839911,19.86056393267181,-0.04979562119020739,1.2946869468609823,-1.164229233720226
2.0252225297016087,19.61654321539058,-0.0490168223708733,1.2739521824151194,-1.1266590695052048
2.0159836296581712,19.37643032458127,-0.04823475703373035,1.2535519313670787,-1.0905845641831096
2.0068934876621825,19.14016272190957,-0.047450948187202226,1.2334754651771445,-1.055929788923205
1.9979523057657398,18.907679866616498,-0.04666675598588074,1.2137124852762502,-1.0226233885602416
1.9891600415893897,18.67892313591934,-0.04588339323885667,1.1942531010095765,-0.9905982614943303
1.9805164349873383,18.453835749474933,-0.04510193941431449,1.1750878089315813,-0.9597912650123178
1.9720210321800828,18.2323626976577,-0.04432335329363899,1.156207473355081,-0.9301429437744639
1.9636732075980756,18.014450673422786,-0.04354848441170096,1.1376033080650876,-0.9015972794312661
1.9554721836554587,17.800048007540635,-0.04277808340531769,1.1192668591154213,-0.8741014595326383
1.9474170486509592,17.589104607004558,-0.04201281137888787,1.1011899886327559,-0.8476056640680918
1.9395067729734206,17.38157189642636,-0.04125324838467628,1.0833648595587821,-0.8220628681344867
1.931740223771902,17.177402762247944,-0.04049990110499395,1.0657839212666498,-0.7974286593694376
1.9241161782345568,16.976551499608295,-0.03975320981442991,1.0484398959928334,-0.7736610689154109
1.9166333356064262,16.778973761716117,-0.039013554692206416,1.0313257660301185,-0.7507204147935693
1.9092903280636513,16.584626511588255,-0.03828126154753193,1.0144347616315426,-0.7285691566689372
1.9020857305502665,16.393467976023263,-0.03755660701441299,0.997760349578917,-0.7071717610807248
1.8950234877041505,16.205665429849454,-0.03678279136575348,0.9791085575138048,-0.7298494431361534
1.8881045091924493,16.02139596771439,-0.03604856138899597,0.9605699912763354,-0.7541891615063264
1.8813213602476626,15.84063836148571,-0.03535300645086362,0.9421416532360953,-0.7800750610930415
1.874666784427276,15.663371941021143,-0.034695160079524355,0.9238206674435482,-0.8073936347515813
1.8681337136838359,15.489576571428607,-0.034074005640897895,0.9056042756357637,-0.8360334704335585
1.861715277404675,15.31923263104525,-0.03348848150816378,0.8874898336627339,-0.8658850028117187
1.855404810514397,15.152320990056271,-0.032937485757918,0.8694748083265201,-0.896840268341451
1.8491958607271952,14.988822989675555,-0.03241988042315486,0.851556774628398,-0.9287926627139385
1.8430821950306333,14.82872042181075,-0.03193449533012742,0.8337334134221681,-0.9616366996482844
1.8370578054776732,14.671995509135527,-0.03148013154313857,0.8160025094749148,-0.9952677699543522
1.8311169143594261,14.518630885491131,-0.03105556443841066,0.7983619499397705,-1.0295818997741546
1.825253978827369,14.368609576538223,-0.030659546425348336,0.7808097232487201,-1.0644755068770495
1.8194636950305423,14.22191498057806,-0.03029080933072239,0.7633439184372102,-1.0998451538422822
1.8137410018305629,14.078530849459469,-0.029948066458534706,0.7459627249163642,-1.1355872969110252
1.808081084155125,13.938441269484677,-0.02963001433554937,0.7286644327130184,-1.1715980292283752
1.8024793760490296,13.80163064222269,-0.029335334149663772,0.7114474332026441,-1.2077728171231157
1.796931563480697,13.668083665133707,-0.029062692885416182,0.694310220365601,-1.244006227988652
1.7914335869615772,13.537785311901676,-0.028810744157950575,0.6772513926031584,-1.2801916482316076
1.785981644035925,13.410720812364513,-0.028578128743650504,0.6602696551564347,-1.3162209896442916
1.780572191699053,13.286875631922651,-0.028363474802373986,0.6433638231789558,-1.3519843824328002
1.775201948803468,13.166235450296053,-0.028165397782729067,0.6265328255220599,-1.3873698529931673
1.7698678985142913,13.048786139487763,-0.027982499998079086,0.609775709302027,-1.4222629843731212
1.7645672908780676,12.93451374079784,-0.027813369856907105,0.5930916453287631,-1.4565465571863256
1.7592976455726208,12.823404440715219,-0.02765658072674312,0.5764799344883145,-1.4901001685595938
1.75405675491001,12.715444545496194,-0.027510689406001636,0.5599400151856362,-1.5227998264922569
1.7488426871700318,12.610620454216395,-0.027374234172717855,0.5434714719701371,-1.5545175167924699
1.743653790348167,12.508918630058176,-0.027245732373224658,0.5270740454848085,-1.5851207395310851
1.7384886964095285,12.410325569566574,-0.027123677507182958,0.5107476439004894,-1.6144720117253426
1.7333463261493407,12.314827769574102,-0.02700653575795125,0.49449235602028263,-1.6424283327407496
1.7282258947709876,12.222411691456948,-0.02689274190892136,0.47830846626554463,-1.668840608693401
1.7231269183048261,12.133063722342204,-0.026780694576992066,0.4621964717844112,-1.6935530319663814
1.71804922100507,12.046770132836812,-0.026668750683596726,0.4461571019565452,-1.7164024118517855
1.7129929438783469,11.9635170307936,-0.02655521907138585,0.43019134060356784,-1.737217452336384
1.7079585545163223,11.883290310567226,-0.026438353160450883,0.4143004512529866,-1.7558179732248294
1.7029468584265461,11.806075597143074,-0.026316342521403756,0.3984860058433522,-1.7720140712267458
1.6979590120808217,11.731858184444643,-0.026187303223063563,0.3827499172980247,-1.7856052184480296
1.6929965379296716,11.660622967040371,-0.026049266789043672,0.36709447643114956,-1.7963792971008465
1.6880613416656707,11.592354364380085,-0.025900167568862056,0.3515223936771129,-1.8041115714364302
1.6831557320587605,11.527036236596917,-0.025737828293351063,0.33603684614569806,-1.808563601274754
1.6782824437347685,11.464651790816841,-0.02555994353814211,0.32064153048667854,-1.8094821065773747
1.6734446633266102,11.405183476832502,-0.025364060758260826,0.30534072198006873,-1.8065978000312415
1.6686460594995225,11.348612870932822,-0.025147558474242538,0.2901393401218373,-1.7996242156521973
1.6638908174423999,11.294920546654328,-0.024907621074414774,0.27504302070439696,-1.7882565775109258
1.659183678534864,11.244085931264177,-0.024641209531228767,0.26005819392877244,-1.772170776028131
1.6545299860564935,11.196087146944603,-0.024345027083196406,0.24519216732990026,-1.751022553021181
1.6499357380201816,11.150900835993887,-0.02401547856219232,0.2304532110986778,-1.7244470452847118
1.6454076485166969,11.108501969994524,-0.023648621474486962,0.21585064152619313,-1.692058906274022
1.6409532194015992,11.068863643980407,-0.023240106052858762,0.20139489546451295,-1.6534533252441368
1.636580824817847,11.031956858387726,-0.022785100091900167,0.18709758445845281,-1.6082084049768908
1.6322998120554346,10.99775029432178,-0.02227819214402162,0.17297151097257155,-1.5558895586746029
1.6281206238090336,10.966210091859995,-0.02171326308125106,0.15903062020411815,-1.4960568626307515
1.6240549493374266,10.9372996473228,-0.021083310304085452,0.14528984860847882,-1.4282766730358207
1.6201159158852765,10.910979454365165,-0.020380199718546377,0.13176481410346685,-1.3521392926482685
1.6163183378403847,10.887207026003022,-0.019594306017156168,0.11847127391907655,-1.267285032996801
1.6126790507840112,10.86593695040684,-0.01871397878677674,0.10542425867231538,-1.1734415510100695
1.6092173728706336,10.84712115098381,-0.017724736090882705,0.09263678788589325,-1.0704755420923715
1.605955759927355,10.830709435553093,-0.01660803173310118,0.08011811138482562,-0.9584610557089082
1.60292075814507,10.816650416774841,-0.015339355448845684,0.06787155996518537,-0.8377635271532787
1.6001444181141393,10.804892838084452,-0.013885276455688583,0.055892426249453314,-0.7091309756550832
1.5976664379628858,10.795387194893706,-0.012198725136455653,0.044166975758393096,-0.5737695369185014
1.5955375224917996,10.788087216095867,-0.010210911401292551,0.03267490632413317,-0.4333603058878233
1.5938250586142757,10.78295010453692,-0.007815024151589894,0.021399952191113434,-0.28995730704908523
1.5926245665489542,10.77993276221186,-0.004821734430739815,0.01036154596738551,-0.14571071536048666
1.5920952590558366,10.77897238530754,-0.0007499233915522268,-0.0002523153955914584,-0.002456239863472265
