x,y,v_x,v_y,omega
2.375,32.48,0.0,2.0,-5.673469387755102
2.3743983773048627,32.12313032878201,-0.006684696612635055,1.9652185690887647,-5.440891496107395
2.3726544628451642,31.772442697052277,-0.01269213071734986,1.931310672352678,-5.22162354023039
2.369884574983437,31.42778353533017,-0.01808440107961641,1.898235569004048,-5.014626808580568
2.3661944169458136,31.089006356575315,-0.022917354893979197,1.8659553060499214,-4.818962095930751
2.3616801376867222,30.75597127844212,-0.02724130354036708,1.8344344509855726,-4.63377851595969
2.3564292723664577,30.428544590675735,-0.031101644462575566,1.8036398575298367,-4.458303764150226
2.3505215780693,30.1065983621425,-0.0345394032836207,1.773540459506108,-4.291835616640938
2.3440297780668184,29.79001008279503,-0.03759170785506244,1.7441070887991184,-4.13373448643569
2.3370202260011586,29.47866233654402,-0.040292203985602064,1.7153123139898554,-3.9834168874755247
2.32955349975165,29.172442501571105,-0.042671421008939205,1.6871302968203323,-3.8403496808856636
2.3216849333958267,28.8712424750891,-0.04475709405576552,1.6595366640908267,-3.7040449972888827
2.3134650945360247,28.574958419954182,-0.04657444883092313,1.6325083929638289,-3.574055745254465
2.3049402132975945,28.283490530871354,-0.048146453818302466,1.6060237079564632,-3.4499716293813467
2.2961525684843096,27.996742818220998,-0.049494044107085036,1.5800619881586144,-3.3314156127102916
2.2871408356764067,27.714622907778292,-0.05063632042516567,1.554603683427008,-3.218040767532833
2.2779404014570477,27.43704185480632,-0.05159072645660168,1.5296302384837746,-3.1095274665419703
2.268583647437685,27.163913971182986,-0.052373207091873875,1.5051240239977486,-3.005580872914402
2.2591002073085695,26.895156664376422,-0.05299834989829672,1.4810682738529373,-2.905928693539104
2.2495130674301267,26.630696165243315,-0.053525426528845094,1.4573817165149416,-2.8083639570607835
2.2398414688512034,26.370461335890575,-0.05393677990363961,1.4341163874044045,-2.7149308223280992
2.230105350367352,26.114377658587237,-0.0542423143613752,1.4112578048548843,-2.625407312761957
2.2203229418538433,25.862373163893523,-0.05445111356649885,1.3887921361863733,-2.5395856733192823
2.210510905533393,25.614378317275406,-0.05457151221628265,1.3667061595704932,-2.457271307472975
2.200684464947716,25.370325912332866,-0.05461116095790277,1.3449872286799514,-2.3782818050522776
2.190857522791782,25.13015097016288,-0.0545770852191401,1.323623239875447,-2.3024460521731154
2.181042768650211,24.893790644420278,-0.054475738576095896,1.3026026017090109,-2.2296034154350526
2.1712517775693554,24.661184131677377,-0.05431305121118886,1.2819142065454632,-2.1596029933950094
2.1614951003045544,24.432272586717154,-0.05409447395326507,1.2615474041236967,-2.092302929062852
2.151782345998366,24.206999042425274,-0.0538250183377214,1.241491976897191,-2.0275697778132193
2.1421222579710313,23.985308333973727,-0.05350929307710688,1.2217381170088413,-1.9652779256825261
2.132522783237914,23.767147027013714,-0.05315153729086452,1.2022764047691004,-1.9053090535294226
2.1229911363091984,23.552463349617803,-0.052755650805973664,1.18309778851881,-1.8475516429892562
2.113533857773975,23.341207127731884,-0.05232522180762012,1.164193565769127,-1.7919005205553138
2.104156868123179,23.133329723915793,-0.05186355209011662,1.14555536552079,-1.7382564364778927
2.094865517223129,22.92878397916828,-0.051373680132654795,1.1271751316737924,-1.6865256754918518
2.0856646298130386,22.727524157647462,-0.05085840220168808,1.109045107446404,-1.6366196966688018
2.076558547365354,22.529505894111622,-0.05032029166147625,1.0911578207295782,-1.5884547999455048
2.067551166616757,22.33468614391814,-0.04976171665626355,1.0735060703091452,-1.5419518171088515
2.0586459750496626,22.143023135429864,-0.04918485631145227,1.0560829128939297,-1.4970358252229956
2.0498460835788253,21.95447632468903,-0.04859171558674341,1.0388816508931051,-1.453635880668537
2.041154256674897,21.76900635222848,-0.04798413890134614,1.0218958208907691,-1.4116847721293702
2.0325729401361907,21.586575001899014,-0.04736382263983486,1.0051191827699582,-1.3711187910120164
2.0241042867012844,21.407145161599924,-0.04673232663690322,0.9885457094421484,-1.331877517916733
2.0157527526222148,21.230924357062325,-0.04606249646387012,0.9694632298645084,-1.3462131414194198
2.0075195630473335,21.05812805250892,-0.045417387701478705,0.9504957096177605,-1.3622251396416198
1.9994002986999295,20.88873582051267,-0.04479666060300859,0.9316402014516727,-1.3797897223580902
1.9913906091359888,20.72272775261868,-0.04419989010744279,0.9128938862593172,-1.398785206872382
1.9834862274892517,20.560084436591637,-0.04362657263408006,0.8942540695967549,-1.419091754628913
1.9756829840433094,20.400786934249005,-0.04307613232083606,0.875718178654679,-1.4405911107997291
1.9679768187278648,20.24481675979891,-0.04254792673965881,0.8572837596797582,-1.4631663457679698
1.960363792630569,20.09215585860153,-0.04204125211918305,0.8389484758467035,-1.4867015974201765
1.9528400986107006,19.942786586272625,-0.04155534810157783,0.8207101055855248,-1.5110818131421164
1.9454020710963857,19.796691688046444,-0.04108940205747661,0.802566541372068,-1.5361924903875037
1.9380461951430223,19.653854278313517,-0.04064255297989309,0.7845157889937902,-1.5619194146556725
1.9307691148270736,19.514257820246456,-0.04021389497509439,0.766555967306891,-1.588148393672595
1.9235676410464202,19.37788610542335,-0.03980248036549971,0.748685308505418,-1.6147649865193645
1.9164387587960157,19.24472323335435,-0.039407322416770744,0.7309021589278836,-1.6416542263930523
1.9093796339856564,19.114753590811933,-0.03902739769833283,0.7132049804323299,-1.6687003356164463
1.9023876198652838,18.987961830859117,-0.03866164808358424,0.6955923523767369,-1.6957864314353237
1.8954602631223927,18.864332851462866,-0.03830898239298432,0.678062974248276,-1.7227942210545097
1.8885953097158217,18.743851773571215,-0.03796827768002694,0.6606156689922695,-1.7496036842670555
1.88179071051051,18.62650391852292,-0.037638380156768084,0.6432493870999156,-1.77609274192475
1.8750446267787169,18.512274784646856,-0.03731810575204653,0.625963211523012,-1.8021369083835785
1.8683554356347734,18.401150022895308,-0.03700624029177102,0.6087563634941744,-1.8276089259359203
1.8617217354727202,18.293115411340008,-0.03670153928659731,0.591628209342526,-1.8523783791143638
1.8551423514792127,18.18815682834249,-0.03640272730792923,0.574578268407676,-1.876311286623249
1.8486163412979444,18.086260224190575,-0.0361084969283846,0.5576062221691218,-1.899269668528323
1.8421430009266064,17.987411590970183,-0.03581750719759551,0.5407119247241358,-1.9211110862193408
1.835721870933169,17.891596930416178,-0.035528381618372844,0.523895414764801,-1.9416881525653584
1.8293527430851584,17.79880221945717,-0.035239705581748215,0.5071569292241832,-1.9608480096224543
1.823035667493714,17.709013373136557,-0.03495002321207564,0.4904969187826039,-1.9784317712493242
1.816770960383772,17.62221620455586,-0.03465783356505698,0.4739160654474023,-1.994273928066578
1.8105592126128351,17.53839638144572,-0.034361586112020635,0.45741530244301554,-2.0082017124010485
1.8044012990738079,17.457539378925382,-0.03405967543272665,0.4409958366718744,-2.0200344212433867
1.7982983891325248,17.379630427962283,-0.03375043502597391,0.42465917402922093,-2.0295826958940464
1.792251958268329,17.304654458990953,-0.033432130131758934,0.408407147874425,-2.0366477579884563
1.7862638011068848,17.23259604009455,-0.03310294943984242,0.39224195097450804,-2.0410206031282416
1.7803360460590496,17.163439309095466,-0.03276099553610379,0.3761661712374972,-2.0424811556123785
1.7744711718090607,17.097167898845797,-0.03240427390821735,0.3601828315366254,-2.0407973910531783
1.7686720259309237,17.033764854958264,-0.032030680293306496,0.3442954338804108,-2.035724438384807
1.7629418459556765,16.97321254518072,-0.03163798609832747,0.32850800809231867,-2.0270036794946362
1.757284283267062,16.91549255960208,-0.031223821552945286,0.3128251650036549,-2.0143618742212146
1.7517034302733154,16.8605856009007,-0.030785656155349155,0.2972521539005842,-1.9975103518683086
1.7462038513946672,16.80847136393,-0.03032077582963012,0.28179492355162866,-1.9761443292125924
1.7407906185293587,16.759128404114875,-0.02982625600713225,0.26646018550533435,-1.9499424413523498
1.7354693518301416,16.71253399445437,-0.029298929539725647,0.25125547738915616,-1.9185666085719695
1.7302462668607763,16.66866397146252,-0.028735347897664926,0.2361892225202787,-1.881662413652612
1.725128229542467,16.627492571229805,-0.028131733416881587,0.2212707800654657,-1.8388602350562997
1.7201228207967554,16.588992258093405,-0.02748391931324919,0.20651047700566544,-1.7897774790555263
1.715238413526564,16.553133550357245,-0.02678727257776611,0.19191960895165455,-1.734022386710444
1.7104842656782648,16.519884850356682,-0.02603659240333631,0.1775103910545806,-1.6712000691906093
1.7058706347912946,16.48921229023389,-0.025225973007442767,0.16329583253202018,-1.6009216558250512
1.7014089219689588,16.461079610431046,-0.024348613907402332,0.14928949861067936,-1.5228177255131985
1.6971118570512411,16.435448095418515,-0.023396551845013453,0.13550511263966647,-1.4365575171847222
1.6929937426208963,16.41227660057393,-0.022360275158820875,0.12195594118908125,-1.3418757186214392
1.6890707833338126,16.391521714661522,-0.02122816136432918,0.10865390228211058,-1.2386087638732681
1.6853615404004225,16.37313811152274,-0.019985649006671564,0.09560835481547042,-1.1267422056439047
1.6818875710408114,16.357079146379505,-0.018614010544563568,0.08282459122045772,-1.0064692688007928
1.6786743430089373,16.343297734372044,-0.017088523142927633,0.07030220886243926,-0.8782571773731241
1.6757525623904252,16.331747489791915,-0.015375705951650335,0.058033842027890206,-0.7429111394170889
1.6731601395433087,16.322383969140173,-0.013428992349646578,0.04600527632479647,-0.6016155303372888
1.6709452114006689,16.31516559517439,-0.011181320346349333,0.0341988788505779,-0.4559201075058271
1.6691711928965578,16.310053317773505,-0.008529996365995787,0.022604203381458937,-0.307633052509766
1.6679269181787622,16.307006699449666,-0.005295278276178176,0.011247111327888328,-0.15859238529668618
1.6673574364394383,16.305966719090158,-0.001032296605198743,0.0003082259999654634,-0.01037086670253809
