x,y,v_x,v_y,omega
2.375,32.48,0.0,2.923076923076923,-2.1224489795918373
2.3744789266912587,31.873333834026113,-0.004962602940391504,2.854696086198148,-1.9871095055697106
2.3729933110782993,31.28073948983261,-0.009186117183032888,2.7890595727876075,-1.864674297971005
2.3706873050373214,30.701658827517463,-0.012775845111993393,2.725994354023339,-1.7535489121986778
2.367684650357875,30.13556851654502,-0.015820866120832777,2.6653419409522656,-1.6523713013611743
2.3640917982287144,29.581977145062975,-0.01839677320450625,2.6069568350672383,-1.559973432208095
2.3600005069087686,29.0404226332177,-0.020567906033071952,2.5507051825068103,-1.475349931664212
2.3554900127762437,28.510469911111908,-0.022389180943353314,2.4964635994531195,-1.397632355363324
2.350628851125013,27.991708828212694,-0.02390759668741472,2.444118142444134,-1.3260679753575229
2.3454763882656517,27.483752266034866,-0.025163478163648396,2.393563402106619,-1.2600022185321236
2.3400841147712743,26.98623443004157,-0.02619150749708819,2.344701702591458,-1.1988640680464533
2.334496740392564,26.498809300109748,-0.02702158182396474,2.2974423919973215,-1.142153880442682
2.328753123724719,26.02114922174452,-0.027679529298364907,2.2517012114810426,-1.0894331806046722
2.3228870637377894,25.55294362260485,-0.028187708672394576,2.2073997327062984,-1.040316082724177
2.3169279754699774,25.093897840908717,-0.02856551292581433,2.1644648548759124,-0.9944620532595606
2.3109014682901496,24.64373205398695,-0.02882979354873587,2.1228283539027877,-0.9515697856449459
2.3048298419733872,24.202180296704583,-0.028995218991856777,2.082426477357859,-0.9113719993365034
2.2987325132552017,23.76898956070982,-0.02907457832419662,2.0431995797351474,-0.873631010046512
2.292626383420597,23.34391896653812,-0.029079039148230523,2.005091793328684,-0.8381349455443202
2.286526155752377,22.926739001520247,-0.02901836721577046,1.9680507306510517,-0.8046945036105707
2.280444610236662,22.51723081724157,-0.028901113886279334,1.9320272148601414,-0.773140166715736
2.274392841744951,22.11518558099401,-0.028734776510965353,1.8969750351166368,-0.7433198026138151
2.2683804669352257,21.720403876267486,-0.028525935962607163,1.8628507241835832,-0.7150965919695471
2.2624158043025893,21.33269514785742,-0.028280374824409114,1.8296133559122878,-0.6883472339024643
2.25650603113307,20.95187718762942,-0.028003179171012884,1.7972243605448674,-0.6629603883525249
2.2506573205484264,20.577775657391115,-0.027698826397018306,1.7656473560104093,-0.6388353207826779
2.2448749613555936,20.210223645681488,-0.027371261153769588,1.734847993605069,-0.6158807201987752
2.2391634630159722,19.849061255606646,-0.027023961128340993,1.7047938166315346,-0.5940136659990166
2.2335266477141373,19.494135221133227,-0.0266599941272273,1.6754541307343567,-0.5731587229340407
2.2279677312221504,19.145298549501263,-0.02628206770122261,1.6467998848081475,-0.5532471466022182
2.2224893940157977,18.802410187641158,-0.025892572359276732,1.618803561478566,-0.5342161845337347
2.2170938438956482,18.465334710678217,-0.025493619261194388,1.591439076263749,-0.516008460121745
2.211782871192835,18.133942030785576,-0.025087073146551418,1.5646816846185518,-0.4985714285125688
2.2065578974921394,17.808107124805154,-0.024674581145787616,1.5385078961473566,-0.4818568951294
2.201420018679151,17.48770977919848,-0.024257598025530968,1.5128953953448028,-0.4658205888243174
2.196370043010677,17.17263435101694,-0.02383740834088629,1.4878229682888935,-0.45042178277172223
2.1914153973495467,16.862770037906188,-0.023349693193689406,1.4632657280039802,-0.43377940497478934
2.1865625932902994,16.558010141515176,-0.02286748832295267,1.4392094757199205,-0.4179234941326912
2.181810417369378,16.258251377896677,-0.02239132997153331,1.415635892075312,-0.40280737652998994
2.177157553094167,15.963394219849189,-0.02192166312571442,1.3925275179007552,-0.3883876729727766
2.172602598925742,15.67334272158444,-0.0214588527640535,1.3698677036682738,-0.37462402954259366
2.168144084040997,15.388004353640156,-0.02100319375732409,1.3476405624677803,-0.3614788732716805
2.1637804821398867,15.107289847327351,-0.020554919586581892,1.3258309262256043,-0.34891719016874406
2.1595102235307087,14.831113048058512,-0.02011421002464156,1.3044243049062079,-0.3369063233162814
2.155331705697834,14.559390776954885,-0.01968119790749634,1.283406848461655,-0.32541578901621926
2.151243302531415,14.292042700178392,-0.019255975106015753,1.2627653113144668,-0.31441710918511284
2.1472433723768876,14.028991205476636,-0.01883859779424748,1.2424870191784574,-0.30388365839748727
2.143330265043147,13.770161285468777,-0.018429091098516516,1.2225598380392313,-0.29379052414965595
2.139502327891699,13.515480427235858,-0.018027453200992388,1.2029721451314461,-0.284114379069557
2.1357579111145575,13.26487850781185,-0.017633658962257614,1.1837128017638676,-0.27483336393343855
2.132095372295977,13.018287695201781,-0.01724766311946583,1.1647711278558497,-0.2659269804698588
2.1285130803419077,12.775642354580587,-0.016869403109761455,1.1461368780602768,-0.25737599303740544
2.1250094188513096,12.536878959351633,-0.01649880156260443,1.1278002193583503,-0.24916233835647916
2.1215827889948007,12.301936006766802,-0.01613576849938301,1.1097517100209875,-0.24126904255889225
2.118231611958585,12.070753937831384,-0.015780203274102015,1.091982279840128,-0.2336801448931863
2.114954331004888,11.843275061236366,-0.015431996284914717,1.0744832115410012,-0.22638062748958193
2.1117494131942833,11.619443481078747,-0.015091030482747616,1.0572461232934665,-0.21935635064730427
2.1086153508100756,11.399205028147001,-0.01475718270018339,1.0402629522469746,-0.21259399315952704
2.105550662520345,11.182507194564014,-0.014430324821061517,1.0235259390195692,-0.20608099723808052
2.1025538943092013,10.969299071593905,-0.014110324808880066,1.0070276130767053,-0.19980551764202092
2.0996236202052194,10.759531290432093,-0.01379704760999342,0.9907607789405602,-0.19375637465172668
2.096760869964586,10.553291877337983,-0.013467240396039077,0.9734241076700112,-0.21361346813369178
2.093964612775715,10.350681297626892,-0.013163780450348094,0.9562004610070638,-0.2353000131782317
2.091229317287845,10.151676143878898,-0.012886652767464602,0.9390867175452573,-0.25870930479903714
2.0885494655456904,9.956253651636924,-0.012635744776864258,0.9220798752354332,-0.28373743404290785
2.0859195725913255,9.7643916748539,-0.012410854788514798,0.9051770465076362,-0.3102830629082324
2.083334204363004,9.576068662324243,-0.01221169976693,0.8883754537748073,-0.3382472057999039
2.080787994026928,9.391263635021083,-0.01203792248141587,0.8716724253029063,-0.36753301667028065
2.078275656868377,9.209956164263673,-0.011889098076210655,0.8550653914343217,-0.3980455810133968
2.0757920038598243,9.032126350641938,-0.011764740100480155,0.8385518811536145,-0.4296917118915664
2.073331954015639,8.857754803627191,-0.011664306034617187,0.8221295189868221,-0.46237974917976227
2.070890545635676,8.686822621799664,-0.011587202345981408,0.8057960222277345,-0.4960193612136104
2.0684629465334203,8.519311373624639,-0.011532789104076482,0.7895491984867832,-0.5305213480213569
2.0660444633383643,8.355203078709678,-0.011500384182170422,0.7733869435604731,-0.5657974453085276
2.0636305499569394,8.194480189475552,-0.011489267069496892,0.7573072396216733,-0.6017601283459179
2.0612168152715244,8.037125573173249,-0.011498682315405908,0.7413081537335885,-0.6383224148866626
2.0587990301528722,7.883122494178469,-0.011527842624137263,0.7253878366929032,-0.6753976662060154
2.0563731338576323,7.732454596493614,-0.01157593161624432,0.709544522210463,-0.7128993853175765
2.0539352398795687,7.5851058863852145,-0.011642106270074282,0.6937765264409665,-0.750741011371459
2.0514816413205317,7.441060715081875,-0.011725499054087232,0.6780822478765554,-0.7888357091825576
2.0490088158452475,7.300303761454426,-0.011825219758142705,0.6624601676229515,-0.8270961527698872
2.04651343028258,7.162820014595514,-0.011940357029169645,0.6469088500809757,-0.8654343017099849
2.0439923449350648,7.028594756210612,-0.012069979613832117,0.6314269440609596,-0.9037611690175983
2.0414426176582854,6.897613542726113,-0.012213137307874673,0.6160131843628311,-0.9419865791642019
2.038861507772041,6.769862187012652,-0.012368861608740588,0.6006663938606025,-0.9800189147280617
2.036246479866323,6.64532673961293,-0.012536166064762171,0.5853854861367492,-1.0177648500372987
2.033595207566902,6.523993469353005,-0.012714046310679296,0.5701694687196652,-1.0551290700183023
2.0309055773278635,6.405848843203891,-0.012901479775399542,0.5550174469861776,-1.0920139722945092
2.028175692321857,6.29087950524622,-0.013097425043713766,0.5399286288011816,-1.1283193503936262
2.0254038765031153,6.179072254574404,-0.01330082084906052,0.5249023299780294,-1.163942055713603
2.0225886789236855,6.070414021957767,-0.01351058466931897,0.509937980656604,-1.19877563566812
2.0197288783897553,5.964891845054133,-0.013725610891920686,0.4950351327113189,-1.232709945180599
2.0168234885527414,5.862492841945961,-0.01394476850821195,0.4801934683189023,-1.2656307284221944
2.0138717635389436,5.763204182739685,-0.014166898289862713,0.46541280983610256,-1.2974191673955948
2.010873204232339,5.667013058935012,-0.014390809392082149,0.4506931311607631,-1.3279513936564766
2.0078275653376423,5.573906650231603,-0.01461527531931969,0.4360345707764598,-1.3570979591448629
2.0047348633653357,5.483872088395369,-0.014839029178835608,0.4214374467114802,-1.384723261780622
2.0015953856972977,5.396896417754501,-0.015060758135815186,0.40690227367773524,-1.4106849211786225
1.998409700911152,5.312966551835412,-0.015279096970331488,0.3924297826945415,-1.4348330995869045
1.9951786705640484,5.23206922558013,-0.015492620621131988,0.37802094354624494,-1.4570097629867826
1.991903462662557,5.1541909425082935,-0.015699835583550148,0.3636769904712317,-1.4770478772783664
1.9885855670754102,5.079317916097921,-0.01589917000832197,0.34939945153233154,-1.4947705346991553
1.9852268131805124,5.007436004558812,-0.016088962324038978,0.3351901821734634,-1.509990006220275
1.981829390077857,4.9385306380608185,-0.01626744817743984,0.32105140352172257,-1.5225067168295456
1.9783958697468338,4.8725867373565315,-0.016432745451352662,0.3069857460429084,-1.5321081426280592
1.9749292335812736,4.809588622606736,-0.01658283707779185,0.2929962991932459,-1.5385676319540273
1.97143290280052,4.749519911081169,-0.01671555131033762,0.2790866677169208,-1.5416431579136718
1.967910773312626,4.692363402275326,-0.016828539050558287,0.26526103519588173,-1.541076017635482
1.964367255700664,4.638100948870083,-0.016919247730033785,0.25152423533023843,-1.5365895055774186
1.9608073211214272,4.586713311888612,-0.01698489111983896,0.2378818311599617,-1.5278876062216833
1.9572365540573367,4.538179998412378,-0.017022414252451604,0.22434020194702003,-1.5146537782973646
1.9536612130627327,4.4924790803657935,-0.017028452362825866,0.21090663659187864,-1.4965499423935442
1.950088300920083,4.449586993262134,-0.016999282329075452,0.19758943106202295,-1.4732158424776742
1.9465256460110143,4.409478314568702,-0.016930764423960014,0.1843979850659001,-1.4442690381450465
1.942981997279236,4.372125522720989,-0.01681827111678603,0.17134288967422168,-1.4093059109123722
1.9394671360300595,4.337498740130549,-0.01665659792298965,0.15843599213949933,-1.3679042520921416
1.9359920091626548,4.305565467283973,-0.01643984843324629,0.14569041592313448,-1.3196282654152278
1.932568890582118,4.276290320922616,-0.016161280905199398,0.13312050180406923,-1.264037194141062
1.9292115810176376,4.249634798263898,-0.015813095899376173,0.12074161875514447,-1.2006993007998443
1.9259356621625474,4.225557102396909,-0.015386131291957324,0.10856977045426255,-1.129213604419997
1.9227588304102181,4.20401208235803,-0.014869409206416915,0.09662089658267693,-1.0492425745950316
1.9197013508663858,4.184951364925439,-0.014249443591985808,0.08490974563248553,-0.9605596960875376
1.9167866976048462,4.168323780504576,-0.013509158898867377,0.07344820123289138,-0.863115885553611
1.9140424874840025,4.154076201006042,-0.01262617558535873,0.062243032086466685,-0.7571268529544695
1.9115018829493373,4.142154884300876,-0.011570058078119394,0.05129331748654239,-0.6431771326868952
1.9092057570001644,4.1325072971793055,-0.01029780810448062,0.040588464623648346,-0.5223220001141584
1.9072061490094776,4.125084057746623,-0.008746077521106208,0.030109053782843218,-0.3961435508172176
1.9055721596965078,4.119839900866296,-0.006815725459560176,0.019835297458372994,-0.26668833431594463
1.9044017499914427,4.116730773400775,-0.004331033636295651,0.009775440308499677,-0.13620404977466494
1.9038572271532042,4.115695615180691,-0.0008548981564534346,8.3209406588158e-05,-0.006670054530690056
