x,y,v_x,v_y,omega
2.375,32.48,0.0,2.871794871794872,-4.204081632653061
2.3741015078555074,31.91208167425537,-0.008984921444926876,2.8073883856514237,-3.951150052905004
2.3715319515497235,31.356798739270214,-0.016710641612911407,2.7454409642000996,-3.720837106590435
2.3675263474020727,30.813674617473335,-0.023345399863595982,2.6858002537686927,-3.5105056509109707
2.3622885036339905,30.282261890013924,-0.029033037817225587,2.6283270208254144,-3.3178833957896168
2.3559955096359944,29.762139824065226,-0.033896902162735,2.572893638661583,-3.1410052815285874
2.3488015135393563,29.252912180232723,-0.0380430588036495,2.5193827996634357,-2.978166046005111
2.340840912444592,28.754205259101276,-0.041562952143991846,2.4676864116510244,-2.8278809867457313
2.33223105575697,28.26566615336239,-0.044535614732230173,2.417704645737873,-2.6888533522615314
2.3230745432236537,27.786961177792982,-0.047029510600931725,2.3693451099561904,-2.559947125239189
2.3134611842893564,27.317774453989355,-0.04910407874203964,2.322522128080085,-2.440164213321362
2.303469673414877,26.857806630473462,-0.05081103000275497,2.277156107078813,-2.3286252599188315
2.293169026377517,26.40677372179125,-0.05219544037084654,2.23317297974331,-2.2245534414183745
2.282619814793014,25.964406052669894,-0.05329667547418218,2.1905037114702757,-2.1272607383665996
2.2718752297805267,25.530447295310942,-0.05414917465068861,2.1490838621192347,-2.036136264240679
2.260982000537636,25.104653589559224,-0.0547831177782203,2.108853195397944,-1.9506363119187178
2.2499811893692634,24.686792737072533,-0.0552249939055062,2.0697553294689524,-1.8702758392241625
2.238908881240846,24.276643461778463,-0.05549808737866573,2.031737423471775,-1.7946211642159016
2.227796783058407,23.87399472988412,-0.055622894445724554,1.9947498954716203,-1.7232836807475678
2.2166727455023785,23.478645123535397,-0.05561748111456155,1.9587461680156233,-1.6559144371755836
2.2055612182672566,23.09040226293075,-0.055497791236658586,1.9236824380308717,-1.5921994474735024
2.1944836479125396,22.70908227230184,-0.055277912310511754,1.8895174682582312,-1.5318556255985336
2.183458826153295,22.334509285696,-0.05497030528193301,1.8562123978001497,-1.4746272516900312
2.1725031952637006,21.966514988947647,-0.054586003614012286,1.823730569683391,-1.4202828932989024
2.161631116295539,21.604938194618285,-0.05413478606760255,1.7920373736102329,-1.3686127169391578
2.150855104994567,21.24962444702696,-0.05362532694211734,1.761100102302991,-1.3194261352873389
2.1401860396052856,20.90042565479227,-0.0530653269506977,1.7308878200439477,-1.2725497437083648
2.1296333441679316,20.55719974856971,-0.05246162742284073,1.701371242181616,-1.2278255067600259
2.1192051504131753,20.219810361899604,-0.0518203101247231,1.6725226245194607,-1.185109161167364
2.108908440935787,19.88812653328481,-0.051146784649156916,1.6443156616284753,-1.144268806660678
2.0987491759666375,19.56202242779861,-0.050445865042340415,1.6167253932335637,-1.1051836601980758
2.0887324057529755,19.241377076683452,-0.049721837094276994,1.5897281179179883,-1.067742952576976
2.078862370291896,18.92607413354441,-0.04897851751652193,1.563301313472416,-1.031844949386462
2.069142587934376,18.61600164586847,-0.04821930605867667,1.5374235632870303,-0.9973960807524344
2.059575934181633,18.31105184071494,-0.0474472314687531,1.5120744882482857,-0.9643101664529782
2.0501647118269566,18.011120923524366,-0.046664992078009684,1.4872346836573953,-0.9325077247925239
2.0409205737331306,17.716110780862852,-0.045776388860252856,1.462866742957763,-0.8990378845494039
2.0318535365816075,17.42592679686547,-0.04489398265497831,1.4389730970160968,-0.8670954608160178
2.022962235661825,17.140475801953293,-0.04401902654284806,1.4155368521056189,-0.8365926862435924
2.01424507373043,16.859667928234792,-0.04315259277109798,1.3925418850794,-0.807447791585618
2.0057002551062784,16.58341645981397,-0.04229559347042039,1.3699727991288269,-0.7795845307346351
1.997325815856914,16.31163769164411,-0.041448799023222724,1.3478148825697918,-0.7529317483803389
1.989119650518607,16.04425079634561,-0.04061285435984465,1.3260540704151815,-0.7274229860232369
1.9810795357401254,15.78117769845267,-0.039788293424974,1.304676908514227,-0.7029961225483328
1.9732031511949604,15.522342955595345,-0.03897555202667417,1.283670520059012,-0.6795930459770252
1.9654880980668437,15.267673646161828,-0.03817497925449381,1.2630225742761683,-0.657159353379938
1.9579319153783405,15.017099263020437,-0.03738684763053821,1.242721257137745,-0.6356440762550826
1.9505320944015183,14.770551612912701,-0.03661136213768239,1.2227552439396254,-0.6149994289600244
1.9432860913625594,14.527964721157854,-0.03584866825190751,1.2031136736088432,-0.5951805780383045
1.9361913386282978,14.289274741335682,-0.0350988590907089,1.1837861246128851,-0.5761454305033122
1.9292452545415901,14.054419869638924,-0.03436198177636752,1.1647625923546758,-0.5578544393406489
1.9224452520538184,13.823340263608799,-0.033638043101350025,1.1460334679465658,-0.5402704246658181
1.915788746286384,13.595977964987608,-0.032927014572992165,1.1275895182653595,-0.5233584091304865
1.9092731611385108,13.372276826441237,-0.03222883690574229,1.1094218671983467,-0.5070854663098943
1.9028959350457926,13.152182441921653,-0.03154342402143844,1.0915219779975012,-0.4914205809282692
1.8966545259825263,12.935642080455345,-0.030870666611225693,1.073881636665565,-0.4763345198900813
1.8905464157907363,12.722604623158418,-0.030210435306672515,1.0564929363037123,-0.4617997131841967
1.884569113909838,12.513020503292452,-0.02956258350231249,1.0393482623559314,-0.4477901438168057
1.8787201605728934,12.306841649187835,-0.0289269498671319,1.022440278690239,-0.4342812460085856
1.8729971295283434,12.10402142987267,-0.028303360578366816,1.0057619144613876,-0.4212498109629603
1.867397630339777,11.904514603256143,-0.02769163130729819,0.9893063517038839,-0.40867389957643724
1.8619243115751987,11.708456137924657,-0.027041556338486313,0.971278301610981,-0.43217571718026526
1.8565771353006493,11.515992074442554,-0.026430206407006232,0.9533623332100295,-0.4573755193520741
1.8513484341623614,11.327100299242169,-0.025856804975872786,0.9355554187938386,-0.4841626836054125
1.846230702138849,11.141759292413205,-0.025320515259250602,0.9178546494957781,-0.5124291153044483
1.8412166059759736,10.95994810437033,-0.024820446369503407,0.9002572309329837,-0.5420690068656991
1.8362989954463025,10.781646333352125,-0.02435565892720801,0.8827604792490565,-0.5729786024343007
1.8314709125364415,10.606834103672732,-0.023925170171403377,0.8653618175448721,-0.6050559670619761
1.8267255996589107,10.435492044649372,-0.02352795860390456,0.8480587726887185,-0.6382007594224487
1.822056506978695,10.267601270130541,-0.023162968198253763,0.8308489724996102,-0.6723140071015474
1.8174572989387916,10.10314335855055,-0.022829112200779437,0.8137301433003058,-0.7072978834935273
1.812921860063887,9.942100333436585,-0.022525276548264025,0.7967001078393325,-0.7430554853219464
1.8084443001166752,9.784454644294229,-0.022250322923856047,0.779756783584217,-0.7794906097825047
1.8040189586772817,9.630189147796688,-0.022003091470077566,0.7628981813911855,-0.8165075302761597
1.7996404092127691,9.479287089201584,-0.021782403175048374,0.7461224045598726,-0.8540107696631261
1.7953034627007298,9.331732083917085,-0.02158706194534723,0.7294276482851084,-0.8919048699214569
1.7910031708685719,9.187508099136405,-0.021415856376231557,0.7128121995217068,-0.9300941570371554
1.7867348291082275,9.046599435455995,-0.021267561227211785,0.6962744372824038,-0.968482499885387
1.7824939791246868,8.908990708388377,-0.021140938608195343,0.679812833393779,-1.0069730617835349
1.7782764113760128,8.774666829674977,-0.021034738878546348,0.6634259537402055,-1.0454680433055776
1.7740781673623165,8.643612988297786,-0.020947701258415885,0.647112460031723,-1.0838684148425641
1.7698955418216202,8.515814631080783,-0.020878554148546974,0.6308711121383094,-1.1220736372746698
1.7657250848916248,8.391257442762903,-0.020826015151406974,0.6147007710404795,-1.1599813689853005
1.761563604298194,8.269927325413395,-0.02078879078290282,0.5986004024545939,-1.1974871572957835
1.7574081676338995,8.151810377047845,-0.02076557586004088,0.5825690812008958,-1.2344841122292143
1.7532561047933306,8.036892869288426,-0.02075505254564697,0.5666059963932882,-1.2708625603230481
1.749105010636106,7.925161223894854,-0.020755889026600142,0.5507104575424402,-1.3065096760013313
1.7449527479537574,7.816601987972788,-0.020766737796884746,0.5348819016782084,-1.341309087788835
1.740797450822964,7.711201807643583,-0.02078623351104824,0.5191199016138605,-1.3751404564013738
1.7366375284351319,7.608947399932848,-0.02081299036727437,0.5034241754934801,-1.407879021481001
1.7324716695011908,7.509825522604945,-0.020845598972136888,0.48779459778556633,-1.4393951134651934
1.7282988473408705,7.413822941635335,-0.02088262263106376,0.4722312119105449,-1.4695536267918188
1.724118325777817,7.320926395972474,-0.020922592999471277,0.4567342447180469,-1.498213450356874
1.719929665975945,7.2311225591945,-0.020964005019248468,0.4413041230617075,-1.5252268508756215
1.7157327343686628,7.144397997612813,-0.02100531105357512,0.4259414927551495,-1.550438804574141
1.7115277118513372,7.060739124314011,-0.021044914119681162,0.41064724023287047,-1.5736862724936798
1.707315104428992,6.980132148562344,-0.02108116010376956,0.39542251728380723,-1.5947974146780493
1.7030957555361657,6.90256301990668,-0.021112328824494014,0.38026876927283504,-1.613590738713069
1.6988708602746645,6.828017366247888,-0.02113662379051779,0.3651877673150913,-1.629874178610852
1.694641981848317,6.756480425024645,-0.021152160472957624,0.3501816449173559,-1.6434441010464242
1.690411070512646,6.687936966568355,-0.021156952883751735,0.33525293964554775,-1.6540842377001939
1.686180485402828,6.622371208562733,-0.02114889821442992,0.32040464041066274,-1.661564545285558
1.6819530196570098,6.559766720424083,-0.021125759243749074,0.30564024097582115,-1.6656399992514948
1.6777319293163266,6.500106316300855,-0.021085144163082888,0.29096380025647417,-1.666049333877887
1.6735209665611317,6.443371935286599,-0.021024483388867782,0.2763800098860716,-1.6625137515902377
1.6693244179400915,6.389544507367294,-0.020941002821535944,0.26189426930698884,-1.6547356393560624
1.6651471483725702,6.338603803611164,-0.02083169285367604,0.24751276825429971,-1.6423973522347504
1.6609946518672225,6.290528269203126,-0.020693272199800845,0.23324257582607874,-1.625160156800719
1.6568731101200278,6.245294838198092,-0.02052214527214594,0.21909173422426914,-1.6026634749778892
1.6527894604639024,6.2028787294282175,-0.020314351289108912,0.20506935347447713,-1.5745246386332203
1.6487514750894063,6.163253224015559,-0.020065502455849753,0.19118570065212337,-1.540339466814164
1.6447678541235873,6.1263894266635965,-0.019770707202342506,0.17745227286748974,-1.4996841244285055
1.6408483361758828,6.092256015695419,-0.01942447227470068,0.16388183681428786,-1.4521189319907974
1.6370038315576192,6.060818991195962,-0.019020573907937353,0.1504884081802721,-1.3971950945261702
1.633246585919925,6.032041437313865,-0.018551882469003224,0.13728713064068418,-1.3344657306943404
1.6295903861337004,6.00588332467963,-0.01801011539324225,0.12429399570167693,-1.263503132185131
1.6260508268327403,5.98230139293895,-0.017385477616358624,0.11152532170511296,-1.1839248606135802
1.6226456667326534,5.9612491720913106,-0.016666123384510206,0.09899688677126954,-1.0954319992128914
1.619395321120295,5.942677223512387,-0.0158373327390756,0.08672259901798104,-0.9978633106597
1.6163235646911982,5.926533701643159,-0.014880231551892036,0.07471261967428512,-0.8912684466287909
1.6134585634560834,5.912765339859153,-0.013769780799255534,0.06297099816576454,-0.7760001209685858
1.6108344271094093,5.901318914396661,-0.012471582667487,0.05149325645914869,-0.6528165983220249
1.6084936014898776,5.892143072576356,-0.010936673527827534,0.040265161743916714,-0.5229688664518914
1.6064906954920213,5.885190014432386,-0.009092386450737063,0.02926541969578852,-0.388221666807552
1.6048991323969473,5.880415668584391,-0.006823244500001737,0.01847803878415381,-0.2507351248760641
1.6038252936690132,5.877774725833177,-0.003915142779340848,0.0079313887279665,-0.11273866190720691
