x,y,v_x,v_y,omega
2.375,32.48,0.0,3.6923076923076925,-3.224489795918368
2.3739821739888294,31.715499864774955,-0.009693581058769192,3.5886459765022405,-2.969555887871611
2.3711132335391767,30.972216747192995,-0.01762966131887343,3.4902408576116706,-2.745184107255403
2.366729956640692,30.249089951168024,-0.024115832952411292,3.3966810092927835,-2.546692261769865
2.36111062420776,29.54514062914297,-0.029401618789794106,3.307598248088686,-2.3702379754810208
2.3544859587396387,28.859463329048914,-0.03369043328755408,3.2226617528070918,-2.2126488345762825
2.3470478324635575,28.19121865401856,-0.03714886457988627,3.1415732474820004,-2.0712904857220726
2.3389562394040717,27.53962685303659,-0.03991392646283686,3.0640629523462803,-1.943963439092925
2.330344907320739,26.903962196836982,-0.04209876004508919,2.989886154316665,-1.8288217636887034
2.321325837507865,26.283548020966965,-0.04379714293466691,2.9188202825406426,-1.7243086093548532
2.3119929946136435,25.67775233934253,-0.045087075105536056,2.850662399596828,-1.6291047560665326
2.302425318962116,25.085983948431913,-0.046033645385201195,2.785227037647123,-1.5420873177250054
2.2926891961079687,24.50768895556239,-0.046691334178109646,2.7223443230150206,-1.4622964120413047
2.2828404894655665,23.94234767557309,-0.04710587194000731,2.661858343549726,-1.3889081176394453
2.27292621960755,23.389471848732803,-0.04731574575538568,2.603625721595864,-1.3212124218772767
2.262985956595015,22.84860213995139,-0.04735342579256762,2.5475143620366807,-1.2585951518908969
2.253052978275891,22.319305885171175,-0.04724636772290164,2.4934023501557983,-1.2005231013055162
2.2431552369733545,21.801175055684368,-0.04701783515839738,2.441176978290018,-1.1465317335090144
2.233316168709152,21.29382441517955,-0.046687576881627266,2.3907338836606167,-1.096214972193798
2.2235553725598485,20.796889847727403,-0.04627238644507063,2.341976282550308,-1.0492166904833673
2.2138891825417937,20.310026837791117,-0.04578656610783039,2.2948142882714673,-1.005223588370614
2.204331150268615,19.83290908578629,-0.045242312684347086,2.249164302250701,-0.9639592096258199
2.1948924532973693,19.365227244792962,-0.04465003942275721,2.2049484691143095,-0.9251788977029255
2.1855822414016677,18.90668776580015,-0.04401864529820933,2.1620941879600903,-0.8886655284431824
2.1764079308469038,18.457011840389733,-0.043355740937636014,2.120533673091544,-0.854225887794843
2.1673754549887425,18.01593443108217,-0.042667838663900906,2.080203558409054,-0.8216875870540136
2.1584894780888018,17.58320338070412,-0.04196051276410725,2.041044540429503,-0.7908964276045994
2.1497535780760972,17.158578593124645,-0.04123853497593547,2.003001055565476,-0.7617141428126737
2.141170403028138,16.741831278565233,-0.04050598929034129,1.9660209878575112,-0.7340164574023968
2.1327418053609803,16.33274325743765,-0.03976636944449445,1.9300554038337505,-0.707691414922186
2.1244689570707744,15.931106317318779,-0.039022661890799164,1.8950583115840625,-0.6826379322828443
2.1163524488345997,15.536721618245906,-0.03827741654896146,1.8609864414909139,-0.6587645471924244
2.1083923753349887,15.149399142020936,-0.03753280725685786,1.8277990463659421,-0.6359883299245811
2.100588408803903,14.768957181656813,-0.03679068351538967,1.7954577190066525,-0.6142339354749148
2.092939862474587,14.395221867492214,-0.036052614859046,1.763926225418092,-0.593432775971751
2.085445745372878,14.028026726848104,-0.035319928966754316,1.7331703521448547,-0.573522296364436
2.078104809664315,13.66721227440786,-0.03459374444813264,1.7031577663336674,-0.5544453390341418
2.0709155915926494,13.312625630776356,-0.033874999091537086,1.6738578872997034,-0.5361495851563971
2.0638764468931807,12.964120166916995,-0.03316447423673659,1.6452417685037324,-0.518587062469342
2.0569855814359497,12.621555172382795,-0.03246281583212929,1.6172819889648484,-0.5017137106304781
2.0502410777452753,12.284795545451601,-0.03177055265048494,1.5899525532369985,-0.4854889966288955
2.04364091795012,11.953711503448996,-0.031088112065281375,1.5632287991687654,-0.4698755738016001
2.0371830036416805,11.628178311697901,-0.030415833729378047,1.5370873127464315,-0.4548389789158965
2.0308651730481553,11.308076029673405,-0.029753981447055138,1.511505849391636,-0.4403473625529377
2.0246852158800035,10.993289273066729,-0.029102753487720356,1.4864632611481294,-0.4263712486836189
2.0186491050101276,10.683707561860288,-0.02838401670157481,1.4619339884370304,-0.410650167256217
2.012762029030222,10.379224500845666,-0.02768337358323975,1.4379046878926875,-0.39566929908848225
2.00702021870562,10.079737014425945,-0.02700053427011265,1.4143570875332212,-0.3813848615382899
2.001419968634679,9.785145774093401,-0.026335180691232935,1.391273772776727,-0.36775615303014236
1.9959576425662728,9.495355023662288,-0.025686972341204206,1.3686381360910183,-0.35474530195142895
1.9906296775905847,9.210272414706658,-0.025055551236778047,1.3464343301530857,-0.34231703873182584
1.9854325873632737,8.929808851495903,-0.02444054616618486,1.3246472242350766,-0.3304384887200036
1.9803629645015721,8.653878344777471,-0.0238415763262114,1.3032623635594922,-0.31907898374202437
1.9754174822722657,8.382397873807822,-0.02325825442908777,1.2822659313895506,-0.30820989046269254
1.970592895675447,8.115287256079554,-0.02269018935013789,1.261644713641574,-0.2978044538791049
1.9658860420140347,7.852469024235557,-0.022136988377596794,1.2413860658250773,-0.2878376544585444
1.9612938410270206,7.593868309699939,-0.021598259117776852,1.2214778821332026,-0.27828607759393953
1.9568132946539776,7.3394127325911995,-0.021073611101680146,1.2019085665214604,-0.2691277941921866
1.9524414864893318,7.089032297515658,-0.020562657133041583,1.182667005626572,-0.2603422513361224
1.9481755809770491,6.842659294868948,-0.020065014412508055,1.1637425433897273,-0.25191017207193867
1.9440128223895858,6.600228207300738,-0.019580305468094625,1.145124957259911,-0.24381346347214727
1.9399505336290346,6.361675621022808,-0.019108158918108548,1.1268044358632296,-0.23603513221141217
1.9359861148832556,6.126940141663653,-0.018648210089310287,1.1087715580335034,-0.22855920697001098
1.932117042165316,5.89596231439381,-0.018200101510113892,1.0910172731078642,-0.22137066704856032
1.9283408657606684,5.668684548065606,-0.01776348329605476,1.0735328823988197,-0.21445537663896302
1.9246552086031183,5.4450510431287995,-0.017338013442516953,1.0563100217612569,-0.20780002425120123
1.9210577645976883,5.225007723100045,-0.016923358037769044,1.039340645179268,-0.20139206684439526
1.9175462969059174,5.008502169379355,-0.016519191407667357,1.0226170093035145,-0.1952196782541517
1.9141186362069114,4.795483559220592,-0.016125196201914355,1.0061316588751832,-0.18927170154723427
1.9107726789455102,4.585902606676065,-0.01574106343047885,0.9898774129774557,-0.1835376049695315
1.907509528602499,4.379847733676328,-0.01533655888391244,0.972549948924807,-0.20380559768705572
1.9043282252640705,4.177419797209076,-0.014961568148738578,0.9553351602871148,-0.2258936442217913
1.9012225890378935,3.9785954619157593,-0.014615919719614245,0.9382299377444764,-0.24969508876398355
1.898186485457591,3.7833520329007193,-0.01429935247374367,0.9212312909701814,-0.275106076210949
1.895213843461325,3.5916674312536117,-0.014011523681170401,0.9043363437641814,-0.3020253257839884
1.8922986717560828,3.4035201705535982,-0.013752016368755112,0.8875423295692926,-0.33035391127916597
1.8894350736985457,3.2188893342765823,-0.013520346083978955,0.8708465873546852,-0.35999504708965213
1.8866172608141416,3.0377545540297284,-0.013315967100821995,0.8542465578534532,-0.39085387915581354
1.8838395650673914,2.860095988540074,-0.013138278106324255,0.8377397801432656,-0.4228372800119473
1.8810964499889107,2.6858943033260942,-0.012986627403014556,0.821323888561301,-0.4558536471054623
1.878382520757382,2.515130650982737,-0.012860317659162854,0.8049966099468676,-0.48981270356533424
1.8756925333284165,2.3477866520115427,-0.012758610235749182,0.788755761207361,-0.5246253005916508
1.87302140269647,2.1838443761281887,-0.012680729116121973,0.7725992472055181,-0.5602032206268042
1.870364210370818,2.023286323979935,-0.012625864461515824,0.7565250589683283,-0.5964589804511062
1.8677162111420054,1.8660954092051085,-0.012593175812889948,0.7405312722204905,-0.6333056333209254
1.8650728392111764,1.7122549407659164,-0.012581794956909274,0.7246160462479942,-0.6706565692354549
1.8624297137512147,1.5617486054843468,-0.012590828471296268,0.7087776231002947,-0.7084253123783887
1.8597826439656968,1.4145604507088336,-0.012619359962207735,0.6930143271426877,-0.7465253147325015
1.8571276337092755,1.2706748670365897,-0.012666452003711326,0.677324564973928,-0.7848697448076981
1.8544608857312692,1.1300765710128964,-0.012731147786823592,0.6617068257279237,-0.8233712703557139
1.8517788056029487,0.992750587724295,-0.012812472482896258,0.6461596817825587,-0.8619418338663984
1.849078005388291,0.8586822331972677,-0.012909434323368328,0.630681789903407,-0.9004924195503894
1.8463553071178618,0.7278570965075915,-0.013021025395004973,0.6152718928554118,-0.9389328104098517
1.8436077461259845,0.6002610214980066,-0.013146222146682377,0.5999288215215993,-0.977171333881602
1.8408325743125293,0.4758800879928913,-0.013283985600510076,0.5846514975747057,-1.0151145944040367
1.8380272633925367,0.3547005923882338,-0.013433261256563103,0.5694389367553581,-1.0526671911094554
1.8351895081995466,0.23670902748289535,-0.013592978676674855,0.5542902528193143,-1.0897314186752274
1.832317230111997,0.12189206140309494,-0.01376205072856102,0.5392046622264283,-1.1262069491794047
1.8294085806764693,0.01023651545547466,-0.013939372466941106,0.524181489655667,-1.1619904925976443
1.826461945507002,-0.09827065927498069,-0.014123819623224728,0.5092201744439183,-1.19697543334773
1.8234759485462497,-0.20364240678807732,-0.014314246669652433,0.4943202780617513,-1.2310514400351906
1.820449456782106,-0.305891592724052,-0.014509484417431768,0.4794814927570566,-1.2641040452789507
1.8173815855226412,-0.40503103287292674,-0.014708337101280994,0.46470365151792864,-1.2960141922014405
1.8142717043430567,-0.5010735239329236,-0.014909578894761197,0.4499867395296451,-1.3266577438569742
1.8111194438309783,-0.5940318768529309,-0.01511194979169817,0.43533090732754887,-1.3559049515524155
1.8079247032710868,-0.6839189531395604,-0.015314150778699003,0.4207364858784496,-1.3836198776966586
1.8046876594270578,-0.7707477045619129,-0.015514838212052332,0.40620400385822036,-1.4096597685183652
1.8014087765984057,-0.8545312167474748,-0.015712617298920793,0.3917342074328736,-1.4338743717426015
1.7980888181524435,-0.9352827572318674,-0.015906034567385128,0.37732808289469777,-1.4561051941584902
1.7947288597576878,-1.0130158286039688,-0.016093569192194283,0.36298688255385964,-1.4761846940042929
1.791330304575144,-1.0877442274776712,-0.01627362302250601,0.3487121543385345,-1.4939354033358814
1.7878949006987344,-1.1594821101224326,-0.01644450913377694,0.33450577561156175,-1.5091689761650697
1.7844247611764703,-1.2282440656970621,-0.01660443869731,0.3203699917658691,-1.5216851593546206
1.7809223869909827,-1.2940451981544498,-0.016751505926382335,0.3063074602092643,-1.5312706853276057
1.7773906934331105,-1.356901218016631,-0.016883670815256217,0.2923213003829465,-1.5376980890151373
1.7738330403674918,-1.4168285453554574,-0.01699873933349413,0.2784151504630459,-1.540724456749578
1.7702532669673547,-1.4738444254456127,-0.017094340667809703,0.26459323134798546,-1.5400901229193988
1.7666557315912748,-1.5279670586692262,-0.017167901009143175,0.250860418400725,-1.5355173424688833
1.7630453575939857,-1.5792157463208127,-0.01721661325075157,0.2372223211381911,-1.5267089857039209
1.7594276860165343,-1.627611053948499,-0.017237401772593815,0.2236853705540696,-1.513347329218741
1.7558089363040867,-1.6731749937104468,-0.017226881203098524,0.2102569128930515,-1.495093057284757
1.7521960764783726,-1.7159312268268252,-0.017181307613226,0.19694530726290196,-1.4715846478723282
1.748596904588215,-1.7559052864175086,-0.017096519912085602,0.18376002217217433,-1.4424384055042248
1.7450201438454225,-1.793124819604742,-0.016967868114509857,0.17071172246812433,-1.4072495321109144
1.7414755547402603,-1.8276198453845325,-0.016790123363224628,0.15781233257748434,-1.3655948148252657
1.7379740688141596,-1.859423020926684,-0.01655736164725813,0.14507505353825723,-1.3170377802159694
1.7345279509713634,-1.8885699029369363,-0.016262808284134334,0.13251429894032873,-1.2611375475877833
1.7311510007783584,-1.915099181554261,-0.015898622125438876,0.12014549741512195,-1.1974631403589875
1.7278588090343172,-1.939052850835111,-0.015455584960666369,0.10798468621202076,-1.1256156990894262
1.72466909549032,-1.9604762612158524,-0.014922639267878164,0.09604779360459079,-1.0452618370511548
1.721602169381875,-1.979417975581569,-0.01428618081255107,0.08434948606889149,-0.9561820788876442
1.7186815803262547,-1.9959293253313746,-0.013528953050498574,0.0729014639292883,-0.8583383312243222
1.7159350694284892,-2.0100635483354097,-0.01262829359488669,0.061710183728181725,-0.7519622896516903
1.7133960000905128,-2.021874417172377,-0.01155331914774716,0.05077428138581003,-0.6376599974835521
1.7111055688079355,-2.031414395983731,-0.010260312114893137,0.04008265967469435,-0.5165127504022154
1.7091163401547866,-2.038732709468981,-0.008684722677001254,0.029615563994359117,-0.39012912405725686
1.7074983020907324,-2.0438744729344904,-0.0067251636473245405,0.01935361186763824,-0.26057428748076295
1.7063511214656508,-2.0468839246976103,-0.004200366115356669,0.009307833495437203,-0.1300947271088455
1.7058421891874604,-2.047824282149328,-0.0006466079626473546,-0.00035204824099810406,-0.0006472811738881812
