x,y,v_x,v_y,omega
2.375,32.48,0.0,3.948717948717949,-3.959183673469388
2.373789673585051,31.70152665449341,-0.01210326414948576,3.8360155063479233,-3.6406144830816367
2.3703814369538385,30.94501034800082,-0.021979102162642566,3.7291475585779534,-3.360930713338332
2.3651811911645666,30.209330920422715,-0.030023355730075887,3.627646717203099,-3.1140711580257245
2.358523257672278,29.493456635814134,-0.03655597919281002,3.531096128882725,-2.89508061412963
2.3506839678139233,28.796434780089264,-0.0418369193907396,3.4391224283659825,-2.699882234253042
2.3418924379842085,28.117383544689133,-0.04607837890640787,3.3513899256353286,-2.5251016839867457
2.3323391646114913,27.455484975862888,-0.049454354820762575,3.2675957626271126,-2.3679302330410184
2.3221829183531004,26.80997881537717,-0.05210810776314654,3.1874658422300297,-2.226017370541043
2.311556302918884,26.180157093166063,-0.054158046579016635,3.1107513798810826,-2.097385995025124
2.3005702591070514,25.565359358927697,-0.05570239153930991,3.037225962502566,-1.9803649985210114
2.2893177309841857,24.96496846019517,-0.05682288968934809,2.966683024822701,-1.8735353493583193
2.277876663001693,24.37840679051253,-0.05758779013557711,2.898933672003702,-1.7756867213549055
2.266312460169566,23.805132944132687,-0.05805423818569292,2.833804791794726,-1.6857824150350007
2.2546800152851727,23.24463872391408,-0.05827021065824369,2.7711374103913387,-1.6029308375054752
2.2430253855116824,22.69644645740537,-0.05827608707665546,2.710785254695787,-1.52636219943854
2.2313871837532977,22.160106582900248,-0.05810593050719258,2.652613490355406,-1.4554093844245555
2.2197977371235638,21.635195472839044,-0.057788535790145895,2.5964976102566513,-1.3894921723277802
2.2082840544836526,21.121313466573895,-0.05734829060896807,2.5423224523948607,-1.3281041720242925
2.1968686368895067,20.618083088387927,-0.05680588533248789,2.4899813294647917,-1.270801953064772
2.1855701583385736,20.12514742991112,-0.05617890017684439,2.4393752553032884,-1.2171959699981312
2.1744040390744566,19.642168678820962,-0.05548229246432589,2.390412255598303,-1.166942954452331
2.163382929605079,19.16882677804503,-0.05472880222945045,2.343006752161009,-1.1197395139308965
2.1525171202966886,18.704818201666992,-0.053929290854454026,2.2970790116193798,-1.0753167266607724
2.1418148887520942,18.249854835435638,-0.053093024591490304,2.25255465069416,-1.0334355617562783
2.1312827950346414,17.80366295123521,-0.052227912583039916,2.2093641913100903,-0.9938829857566989
2.1209259330564,17.36598226613271,-0.05134070719937229,2.1674426597149177,-0.9564686420206308
2.1107481450289214,16.936565077705556,-0.050437173075414704,2.1267292245566463,-0.9210220098796947
2.1007522047139795,16.51517546829687,-0.049522230074003956,2.087166869530194,-0.8873899669199716
2.0909399742595913,16.101588571667065,-0.04860007446987706,2.0487020967678564,-0.8554346910891508
2.081312538623269,15.695589896227293,-0.047674281893345355,2.0112846576298664,-0.825031850159011
2.071870320938067,15.296974699667814,-0.04674789495867746,1.974867307964944,-0.7960690349067936
2.062613181642031,14.905547410344631,-0.04582349800168185,1.9394055852668879,-0.7684443996091379
2.053540503747701,14.521121091271862,-0.044903280941618835,1.904857605460819,-0.7420654793799313
2.0446512662588616,14.143516942993877,-0.043989093946771446,1.871183877319035,-0.7168481587758306
2.03594410743351,13.772563841988202,-0.04308249430674593,1.8383471327377219,-0.6927157701372743
2.027417379334169,13.40809791158372,-0.042184786686659745,1.8063121713070895,-0.6695983034859863
2.0190691948905197,13.049962122674692,-0.0412970577498359,1.7750457177831798,-0.6474317125887112
2.0108974685176118,12.698005921774048,-0.040420205979245435,1.7445162912232537,-0.6261573041229714
2.0028999511798964,12.352084884183586,-0.03955496739790706,1.714694084681345,-0.6057211988263044
1.9950742606620997,12.012060390267564,-0.038701937780060376,1.685550854478881,-0.5860738551424028
1.9874179076986578,11.677799323002734,-0.0378615918543589,1.6570598181694023,-0.567169647250092
1.9799283185207743,11.34917378514497,-0.03703429992447536,1.6291955604082533,-0.5489664905183991
1.9726028543014427,11.026060834502218,-0.03622034226884097,1.6019339460192645,-0.5314255084093175
1.9654388279117907,10.708342235938066,-0.03541992162767914,1.5752520396222691,-0.5145107356789541
1.9584335183449886,10.395904228850938,-0.03463317404034186,1.5491280312490003,-0.49818885343204883
1.9515841831151728,10.08863730898289,-0.033860178257816405,1.5235411674314847,-0.4824289521845386
1.9448880688970924,9.786436023510003,-0.03310096392298697,1.4984716872973853,-0.4672023196006285
1.9383499198097802,9.48919944687502,-0.03228052695013441,1.473894079052462,-0.4503889734877029
1.9319737309099936,9.196830287750121,-0.03148136204773276,1.4497975121965263,-0.43434376726564977
1.9257552922590884,8.909234053338427,-0.030703024461319606,1.4261648319203988,-0.41902252380995847
1.9196904845625022,8.626319603596642,-0.029945052504542397,1.4029796654974553,-0.4043840883530292
1.913775282092532,8.347998999290738,-0.029206972195159296,1.3802263775615793,-0.39039008889729937
1.908005754751799,8.074187358692548,-0.02848830121216949,1.3578900284203061,-0.37700471815049647
1.9023780694040413,7.804802722334063,-0.027788552265408162,1.3359563351645516,-0.36419453482723824
1.8968884905818424,7.5397659252818485,-0.02710723595658043,1.3144116353575777,-0.35192828239892326
1.8915333806661767,7.279000476435591,-0.02644386320007766,1.2932428531050009,-0.34017672358301315
1.8863091996198924,7.022432444392599,-0.02579794726276578,1.2724374673249121,-0.32891248904710957
1.8812125043462113,6.769990349454833,-0.025169005474044426,1.2519834820527638,-0.3181099389658684
1.8762399477337401,6.52160506138658,-0.02455656065066643,1.2318693986297649,-0.30774503621252053
1.8713882774411812,6.277209702559976,-0.02396014227492465,1.2120841896362717,-0.2977952300939601
1.8666543344677158,6.036739556152028,-0.023379287459726776,1.1926172744432086,-0.2882393496510771
1.8620350515487756,5.800131979081204,-0.02281354172967592,1.1734584962650234,-0.2790575056460274
1.857527451411462,5.567326319393981,-0.022262459643460814,1.1545981006071901,-0.27023100044700016
1.8531286449191606,5.338263837832272,-0.021725605279552303,1.1360267150099133,-0.2617422451001072
1.8488358291307723,5.112887633331528,-0.021202552604332906,1.117735329997545,-0.25357468294843954
1.8446462852964096,4.8911425722167365,-0.02069288573929388,1.09971528115039,-0.24571271922115112
1.8405573768083032,4.672975220879486,-0.020196199141768182,1.0819582322220982,-0.23814165607151208
1.8365665471229482,4.458333781734098,-0.01971209771178378,1.0644561592317963,-0.23084763259301389
1.8326713176681715,4.247168032264362,-0.01924019683598252,1.0472013354655572,-0.2238175693874846
1.828869285746761,4.039429266985131,-0.018780122378122162,1.0301863173267707,-0.21703911729938158
1.8251581224465052,3.835070242154501,-0.01833151062443552,1.0134039309795337,-0.2105006099664972
1.8215355705649579,3.6340451230832116,-0.01789400819103662,0.9968472597333454,-0.20419101986970248
1.8180031419335851,3.436478020213233,-0.01743027812269162,0.9788237689664349,-0.23160846764760343
1.814559842041059,3.24250453927662,-0.017002720802571095,0.9609110403996899,-0.2606501403927576
1.8111985045454366,3.052102825325509,-0.016610654153653266,0.9431060991114267,-0.29121010808652903
1.807912105649348,2.8652516070333114,-0.01625333480723389,0.9254060838105368,-0.32318482525750664
1.8046937757419026,2.681930174385414,-0.01592996426721858,0.907808242668425,-0.35647290331097653
1.8015368098611444,2.502118357166097,-0.015639694540363805,0.8903099295247314,-0.3909748877759114
1.798434677080154,2.3257965041680038,-0.015381633269540429,0.8729086004562056,-0.4265930395609474
1.7953810289128331,2.1529454630523333,-0.015154848403667393,0.8556018107005107,-0.46323111931580707
1.7923697068289945,1.9835465607893639,-0.014958372434718351,0.838387211929167,-0.5007941739929545
1.7893947489626112,1.8175815846098153,-0.014791206229114177,0.8212625498663316,-0.5391883246957383
1.7864503960919147,1.6550327633979123,-0.014652322477853526,0.8042256622526879,-0.5783205548836248
1.7835310969654414,1.495882749457003,-0.014540668786876357,0.7872744771564165,-0.6180984979819867
1.7806315130441162,1.3401146005777527,-0.014455170426376042,0.7704070116360746,-0.658430223412867
1.7777465227259737,1.1877117623378197,-0.014394732755048495,0.753621370763269,-0.6992240200236355
1.7748712251172125,1.0386580505598602,-0.014358243332565123,0.7369157470163155,-0.7403881758418824
1.7720009434108706,0.8929376338522594,-0.014344573730852758,0.7202884200596871,-0.781830753026511
1.7691312279325824,0.7505350161534885,-0.014352581052029134,0.703737756928025,-0.8234593568159451
1.766257858911575,0.6114350191968967,-0.014381109158046178,0.687262212637897,-0.86518089719371
1.76337684903435,0.47562276480756793,-0.01442898961420227,0.6708603312554059,-0.906901341898274
1.7604844458383635,0.34308365693669884,-0.01449504234566292,0.6545307474532851,-0.9485254592967594
1.7575771340035036,0.2138033633316354,-0.014578076002937736,0.6382721885973598,-0.9899565495196014
1.754651637600324,0.08776779673096513,-0.014676888028857018,0.622083477409341,-1.031096162114013
1.7517049223558456,-0.03503690453607078,-0.014790264415925814,0.6059635352609887,-1.0718437983166682
1.7487341980003577,-0.15462439667855676,-0.014916979138953398,0.5899113861639025,-1.1120965958687514
1.7457369207621123,-0.2710081514479228,-0.01505579324350209,0.5739261615297665,-1.151748994097833
1.7427107960811719,-0.38420147817969763,-0.015205453565903485,0.5580071057880115,-1.1906923767694484
1.7396537816190536,-0.49421754705468146,-0.015364691055276453,0.5421535829618189,-1.228814689965489
1.7365640906473199,-0.6010694137828096,-0.015532218662063049,0.5263650843194739,-1.2660000319757718
1.7334401959060157,-0.7047700459384174,-0.015706728750977107,0.5106412372366081,-1.3021282118933808
1.7302808340320357,-0.8053323512047044,-0.015886889988822938,0.49498181542623526,-1.3370742732847614
1.7270850106682276,-0.9027692078191336,-0.016071343649257972,0.4793867507180835,-1.3707079789651815
1.7238520063765925,-0.9970934975506438,-0.01625869926709263,0.4638561465970201,-1.4028932525550337
1.7205813834934864,-1.0883181415846295,-0.016447529563966626,0.44839029374280215,-1.4334875721328255
1.7172729940815894,-1.176456139743955,-0.01663636455500352,0.43298968785043723,-1.462341310953231
1.7139269891528819,-1.2615206135342447,-0.01682368473207293,0.41765505005249404,-1.4892970198892668
1.7105438293593473,-1.343524853570699,-0.017007913203271535,0.4023873503120261,-1.5141886460261271
1.7071242973740424,-1.4224823720226354,-0.017187406649779132,0.38718783420736275,-1.5368406817400426
1.7036695122150798,-1.4984069608021144,-0.01736044493984579,0.3720580535873978,-1.557067238727229
1.7001809457996315,-1.571312756324545,-0.017525219214638555,0.3569999016368857,-1.5746710419364032
1.6966604420550602,-1.6412143117835356,-0.017679818231072862,0.3420156529530426,-1.589442339395824
1.693110238960832,-1.7081266780081137,-0.017822212711212065,0.32710800929273054,-1.601157725794825
1.6895329939492787,-1.772065494106947,-0.017950237404317643,0.31228015169561696,-1.6095788807944547
1.6859318131575378,-1.8330470892474722,-0.018061570513092297,0.2975357997096238,-1.6144512280095233
1.6823102850997014,-1.891088597060353,-0.018153710065272607,0.28287927841919686,-1.6155025283165052
1.6786725194213887,-1.946208084289296,-0.018223946717854718,0.26831559387020865,-1.612441432908016
1.6750231915144498,-1.9984246954007006,-0.018269332351533565,0.2538505172438448,-1.6049560392612403
1.6713675939165744,-2.047758814892262,-0.018286643627220163,0.23949067767175447,-1.5927125197493208
1.667711695613709,-2.0942322489370824,-0.018272339401435144,0.22524366277644914,-1.5753539321710763
1.6640622106258212,-2.1378684276813047,-0.018222510477442912,0.21111812466580002,-1.5524993801254665
1.6604266776269634,-2.1786926288386326,-0.018132819511134993,0.19712388690747681,-1.5237437778481437
1.656813552892035,-2.2167322219802728,-0.017998427838148645,0.18327204450893025,-1.4886586017701309
1.6532323196805556,-2.2520169307787583,-0.017813904276645372,0.1695750434759305,-1.4467941979640335
1.64969361843884,-2.2845791069462607,-0.01757310814051108,0.156046718199119,-1.3976844859072814
1.6462094042233995,-2.3144540040184864,-0.017269034013894145,0.14270225252311644,-1.3408552868500656
1.6427931410200387,-2.341680030524337,-0.016893598019713678,0.12955801253538785,-1.2758380455130498
1.639460047992807,-2.366298949270231,-0.01643733225260377,0.1166311749235598,-1.202191432799449
1.636227421537742,-2.3883559712866713,-0.015888932298047394,0.10393904524086203,-1.1195341912698646
1.6331150716246627,-2.4078996690692307,-0.01523456683274194,0.09149793258470901,-1.0275934452558806
1.6301459349822522,-2.4249816065944145,-0.014456799591362915,0.07932144266713219,-0.9262730195105826
1.6273469671648835,-2.4396555631770767,-0.013532878582326012,0.06741812315951351,-0.8157448221562662
1.6247504804810484,-2.451976240969991,-0.012431988256024162,0.05578865476961737,-0.6965604811496554
1.6223962055807988,-2.46199744899603,-0.011110760746472539,0.04442342549073904,-0.5697661492028273
1.620334568875239,-2.469770055980291,-0.009505606309122993,0.03330264435184655,-0.4369773396299278
1.6186322154671429,-2.475340687174196,-0.007517927771839936,0.022403667587229493,-0.3003375952027917
1.6173827183492016,-2.47875374097395,-0.004977043407574032,0.011726870410276828,-0.16226758398596514
1.6167362338721798,-2.4800658913646103,-0.0014878013626415582,0.001394633496304797,-0.024963139008847363
