x,y,v_x,v_y,omega
2.375,32.48,0.0,3.5384615384615383,-7.26530612244898
2.373260347840312,31.816194576638956,-0.01831212799671693,3.4489639706020325,-6.761110302500153
2.3683174006028747,31.169006110812237,-0.03371889555525358,3.3635461959950312,-6.309644630956254
2.3606809248181726,30.537688434008714,-0.04666506007318731,3.2819030335157175,-5.903775092158323
2.350783238106515,29.92155022822353,-0.05752111583900389,3.203762290538868,-5.537512096495892
2.3389920105251654,29.319949224244116,-0.06659706922782871,3.1288798566128655,-5.2058001868060355
2.325620719246635,28.73228724265569,-0.07415336528302116,3.0570357390547764,-4.904351271161161
2.310937235373023,28.15800591929545,-0.08040962286026031,2.9880308226319348,-4.629511335205845
2.2951709128705513,27.59658299281866,-0.08555166663944236,2.9216841929132094,-4.378153153845286
2.278518468304752,27.0475290586449,-0.08973722352686597,2.857830903652704,-4.147589368390638
2.2611488785622775,26.51038471349754,-0.09310056323602146,2.7963200978984597,-3.9355016415143664
2.2432074767243044,25.984718029879776,-0.09575629821632639,2.7370134138674866,-3.739882596098165
2.2248193899523923,25.47012231143944,-0.09780250990906494,2.679783622346585,-3.5589879857649156
2.206092434974058,24.96621408917906,-0.09932333196813974,2.624513454078458,-3.3912971041037707
2.1871195645640213,24.472631325524176,-0.10039109340066853,2.5710945843940167,-3.2354798651197525
2.1679809408770203,23.989031798847925,-0.101068103304604,2.5194267490401643,-3.090369313964326
2.148745697535861,23.515091645512044,-0.10140814239181298,2.4694169702848963,-2.954938579504658
2.129473441215419,23.050504040081023,-0.10145771361283785,2.420978876357472,-2.8282814769416724
2.110215534484322,22.594977997290073,-0.10125709408292248,2.374032100389328,-2.709596122854087
2.091016194408093,22.148237281743242,-0.10084122250895851,2.3285017474720657,-2.5981710466462093
2.071913435524004,21.71001941329564,-0.10024044995513795,2.2843179203974375,-2.4933733788381374
2.052939880991815,21.280074757718307,-0.09948117669948285,2.241415296206051,-2.39463877356375
2.0341234617897688,20.85816569362011,-0.09858639384837069,2.199732746932878,-2.301462784297509
2.0154880205915684,20.444065847759923,-0.09757614508005358,2.159212998963807,-2.213393461480084
1.997053834293309,20.037559391863844,-0.0964679212174135,2.119802326258076,-2.130024980871301
1.978838066952683,19.6384403948978,-0.09527699815759624,2.081450273384512,-2.0509921440780046
1.960855163071051,19.246512225461288,-0.09401672691221592,2.0441094048945763,-1.9759656193056976
1.9431171896238555,18.861586999582965,-0.09269878305826262,2.007735078035122,-1.9046478121592676
1.925634133971362,18.48348506973001,-0.09133338170482548,1.9722852362065226,-1.836769274209681
1.9084141637153649,18.11203455130379,-0.08992946309514706,1.9377202209115607,-1.77208557179453
1.8914638536722488,17.747070883295486,-0.08849485314817948,1.9040026002285093,-1.710374549722579
1.8747883843792734,17.3884364201255,-0.08703640256734868,1.871097012087106,-1.651433934678725
1.8583917159151397,17.03598005199781,-0.08556010758142867,1.8389700208359585,-1.595079231555157
1.8422767402781752,16.68955685137023,-0.08407121491293323,1.8075899857701314,-1.5411418729721482
1.8264454151096534,16.349027743379978,-0.08257431317676854,1.776926940443045,-1.4894675881444646
1.8108988811625069,16.014259198274367,-0.08107341258266844,1.7469524817212796,-1.4399149621967733
1.7956375655860202,15.685122944083371,-0.0795720145382452,1.717639667657633,-1.3923541611964092
1.780661272815828,15.361495697936746,-0.07807317251641006,1.6889629233594816,-1.3466658016872097
1.7659692646181258,15.043258914576352,-0.07657954535413887,1.6608979541183582,-1.3027399464826392
1.7515603306310914,14.730298550746376,-0.0750934439830647,1.633421665144535,-1.2604752109994126
1.7374328505698347,14.422504844262356,-0.07361687245121575,1.606512087318814,-1.219777966557899
1.7235848491093173,14.119772106665838,-0.07215156397528516,1.5801483084339973,-1.180561628903528
1.7100140443288963,13.821998528466693,-0.07069901266072644,1.554310409451737,-1.1427460217645882
1.6967178904893374,13.529085996060761,-0.069260501439893,1.5289794053475618,-1.1062568065980394
1.6836936158156641,13.24093991948767,-0.06783712670403678,1.504137190158668,-1.0710249708210628
1.6709382558748582,12.957469070263407,-0.06642982004128895,1.4797664858861983,-1.0369863678111473
1.65845899925772,12.678588248069449,-0.06493077592858673,1.455821116155452,-1.00107300129367
1.6462615923824724,12.404215148270591,-0.06346298065296738,1.4323167764640932,-0.9667269781735834
1.6343401151661008,12.134267417898165,-0.06202625320357482,1.409238280087761,-0.9338618818189728
1.6226886892201957,11.868665526170972,-0.06062033570069054,1.3865711065142599,-0.9023969629395813
1.6113014913525072,11.607332641422815,-0.059244905011818866,1.364301364518979,-0.8722567085050688
1.6001727649972757,11.350194514813921,-0.057899582937986756,1.342415757679904,-0.8433704478455348
1.589296829829581,11.097179370380626,-0.05658394514300863,1.3209015521442695,-0.8156719923553769
1.5786680897881813,10.848217801011753,-0.0552975289769895,1.2997465464754345,-0.7890993056011296
1.5682810397043352,10.603242669971358,-0.05403984032665262,1.2789390434234658,-0.7635942009695987
1.5581302707104672,10.362189017615876,-0.052810359608800726,1.2584678234763553,-0.7391020642898517
1.5482104745817737,10.124993972979834,-0.05160854700902611,1.2383221200609391,-0.7155715991262167
1.5385164471456538,9.891596669928056,-0.0504338470553947,1.2184915962735636,-0.692954592673497
1.529043090877821,9.661938167594169,-0.04928569260600247,1.1989663230304954,-0.6712057003937086
1.5197854167898668,9.435961374845249,-0.04816350831983258,1.179736758537086,-0.6502822477189093
1.510738545700638,9.213610978530852,-0.04706671367205014,1.1607937289828876,-0.6301440473098197
1.5018977089728707,8.994833375291627,-0.04599472556760544,1.1421284103773606,-0.6107532305073126
1.493258248786887,8.779576606718258,-0.04494696060064302,1.123732311447578,-0.5920740917455236
1.484815618014672,8.567790297665816,-0.04392283700161873,1.105597257525503,-0.5740729448131314
1.4765653797501528,8.359425597541879,-0.04292177630911068,1.0877153753580384,-0.556717989954853
1.4685032065448835,8.15443512439894,-0.041943204798986784,1.0700790787781709,-0.5399791908997831
1.4606248793924999,7.952772911672891,-0.04098655469978707,1.052681055180238,-0.5238281609881051
1.4529262865001367,7.754394357419841,-0.04005126521982821,1.0355142527466181,-0.5082380576439838
1.4454034218804375,7.559256175913088,-0.039136783408584494,1.0185718683770817,-0.4931834845110674
1.4380523837937538,7.367316351471079,-0.03824256487229492,1.0018473362756342,-0.4786404006288097
1.4308693730665483,7.17853409439536,-0.037368074361447234,0.9853343171529827,-0.46458603608350785
1.4238585581709473,6.993078973327943,-0.036429977171195865,0.9668248519777015,-0.4950514117667217
1.417021027908242,6.8111304377127055,-0.035544025594122224,0.9484228913406032,-0.5269576130210487
1.4103470296283454,6.6326683262879556,-0.034708587878475715,0.930125649972546,-0.5601958112776853
1.4038271220582583,6.457672996433978,-0.03392201812243748,0.9119304537535328,-0.5946591902211334
1.3974521776820394,6.286125303378256,-0.03318265952197332,0.893834736306682,-0.6302427032532474
1.3912133845381565,6.1180065800105545,-0.03248884725574305,0.8758360359849269,-0.6668428344361036
1.385102247500917,5.953298617233667,-0.03183891103098711,0.8579319932454723,-0.7043573618706988
1.3791105891083733,5.791983644776401,-0.03123117731157884,0.8401203484099412,-0.7426851224618377
1.373230549995328,5.634044312395396,-0.03066397124679437,0.8223989398111542,-0.7817257770046845
1.3674545889867875,5.479463671391926,-0.030135618316787682,0.8047657023306486,-0.8213795745049919
1.3617754829044098,5.328225156368745,-0.02964444570824245,0.7872186663344011,-0.8615471146125911
1.3561863261361646,5.180312567150285,-0.02918878343118052,0.7697559570178192,-0.9021291070057993
1.3506805300175881,5.035710050786971,-0.028766965185413725,0.7523757941749698,-0.9430261265123958
1.3452518220716263,4.894402083561278,-0.028377328982605157,0.73507649241128,-0.9841383626900219
1.3398942451531826,4.75637345290896,-0.02801821752732999,0.7178564618236434,-1.0253653625144696
1.334602156544089,4.621609239163892,-0.027687978357864195,0.7007142091770844,-1.0666057647374587
1.3293702270443502,4.4900947970288385,-0.027384963744650596,0.6836483396129577,-1.1077570243751496
1.3241934401061697,4.361815736667239,-0.02710753034145969,0.6666575589301995,-1.1487151256737624
1.3190670910585227,4.236757904302461,-0.02685403858113996,0.6497406764885292,-1.1893742817681257
1.3139867864718873,4.1149073622009205,-0.026622851804495952,0.6328966087908543,-1.2296266191016332
1.3089484437152765,3.9962503679036843,-0.02641233510719579,0.6161243838116297,-1.2693618445108514
1.3039482907609572,3.8807733525574477,-0.026220853885639963,0.5994231461487378,-1.3084668926938838
1.298982866296277,3.7684628981798802,-0.026046772058361985,0.5827921630888068,-1.346825551577869
1.294049020206935,3.659305713675895,-0.02588844993471186,0.5662308316900015,-1.384318062877348
1.2891439145019015,3.5532886094001093,-0.02574424169722058,0.5497386870024735,-1.4208206948920956
1.2842650247571488,3.4503984700361876,-0.025612492458072,0.5333154115651338,-1.4562052843319016
1.2794101421635071,3.3506222255353393,-0.02549153484341893,0.5169608463385446,-1.4903387436798199
1.2745773762734651,3.253946819823682,-0.025379685051759075,0.5006750032578433,-1.523082530320245
1.2697651585527585,3.160359176950564,-0.0252752383240993,0.48445807961707377,-1.554292073372955
1.2649722468553368,3.0698461643068384,-0.025176463754024582,0.46831047452742436,-1.5838161539034252
1.260197730954993,2.9823945524926714,-0.025081598354857557,0.4522328077269522,-1.6114962339451857
1.2554410392838637,2.8979909713580483,-0.024988840288607234,0.43622594105854623,-1.6371657296045312
1.2507019470474756,2.816621861674758,-0.024896341147057202,0.4202910029760981,-1.6606492234698813
1.245980585908425,2.738273421825891,-0.024802197158737996,0.4044294164856562,-1.6817616116882685
1.2412774554566126,2.662931548816875,-0.02470443917612987,0.3886429309776692,-1.7003071815027508
1.236593436713802,2.5905817728206557,-0.024601021274507057,0.3729336584562033,-1.7160786159162051
1.2319298079549257,2.5212091843691447,-0.024489807766297063,0.3573041147175942,-1.728855923674861
1.227288263169021,2.454798353194491,-0.02436855840112081,0.34175726606825313,-1.738405295261155
1.2226709335303676,2.3913332376100165,-0.02423491147944114,0.32629658218937885,-1.7444778895012483
1.2180804123072522,2.3307970832067824,-0.024086364553352942,0.3109260957394163,-1.746808561380591
1.213519783704679,2.273172309536715,-0.02392025231583916,0.29565046920864846,-1.7451145506663799
1.2089926562224942,2.218440383372098,-0.023733721180842597,0.2804750693662728,-1.739094164328452
1.2045032012182515,2.1665816770978203,-0.023523699916450036,0.2654060493103271,-1.7284255055164088
1.2000561975047088,2.1175753108455133,-0.02328686548926129,0.2504504375560457,-1.7127653308699642
1.1956570830008801,2.0713989771764645,-0.023019602972093725,0.23561623264446063,-1.691748160378354
1.1913120147182015,2.0280287475543837,-0.022717957898208026,0.2209125002195582,-1.664985825866811
1.1870279387401839,1.9874388606578286,-0.022377578712504564,0.2063494671125941,-1.6320677340534595
1.1828126724107606,1.9496014939727466,-0.02199364580773916,0.19193860325669032,-1.592562250069652
1.1786750017910432,1.9144865223835374,-0.021560781768232586,0.17769267662971877,-1.546019793944085
1.1746247987527356,1.8820612710858775,-0.021072934424478374,0.1636257580824869,-1.4919785075028873
1.1706731641383097,1.852290275684748,-0.020523219411585223,0.1497531408767569,-1.4299737182912644
1.166832606706351,1.8251350706068017,-0.019903700924821216,0.13609112310161012,-1.359552925066768
1.1631172728640662,1.800554038847011,-0.019205076362388614,0.12265657963303839,-1.2802986628956856
1.159543250702513,1.7785023722998794,-0.018416209548697212,0.10946622612624506,-1.191862322074446
1.1561289855441466,1.758932212204268,-0.017523423697265603,0.09653545909071432,-1.0940125879813167
1.1528958661147557,1.7417930603358691,-0.016509412401586654,0.08387666583979275,-0.9867020917594603
1.1498690752651033,1.7270325633780885,-0.015351543910543044,0.07149698634735324,-0.8701539094900654
1.1470788547449375,1.714597751221966,-0.014019198406991631,0.0593957731907831,-0.7449634943762313
1.1445624263602674,1.7044367062666623,-0.012469521431640773,0.04756259475977178,-0.612198363647745
1.1423669903692488,1.6965003708094208,-0.0106403311053967,0.035977778474364855,-0.47345557756498524
1.1405546695799644,1.6907436195538743,-0.008436729834438127,0.024619603162962793,-0.33081130799476305
1.1392118241369056,1.6871234189410202,-0.00569848535565482,0.01348777170919823,-0.18658679502976216
1.1384733672849336,1.685586865941751,-0.002074744665103486,0.0026864703883912114,-0.04289672712991033
