x,y,v_x,v_y,omega
2.375,32.48,0.0,2.6153846153846154,-7.142857142857143
2.373931327779555,32.01390706174854,-0.01187413578272627,2.563425809631609,-6.780672492907342
2.370852990264665,31.557013074527003,-0.022329614382711752,2.513174048385432,-6.445331640952162
2.3660059187765285,31.10901967622408,-0.031526735485472544,2.4645303772026077,-6.134184537503972
2.3596039898517005,30.669645548193632,-0.03960580812372966,2.41740437869126,-5.844897820915738
2.3518373690757786,30.238624971253053,-0.046689978275400626,2.3717131428707368,-5.575410658597578
2.3428753870729335,29.815706552684166,-0.0528875995339918,2.3273803967835676,-5.323897656996937
2.3328690223022126,29.400652098207477,-0.05829423125179379,2.2843357640685027,-5.088737555033193
2.321953051712817,28.993235607624854,-0.06299433085260321,2.2425141312939787,-4.868486678508986
2.3102479195238663,28.59324237657877,-0.06706269346907189,2.201855102551383,-4.66185633608304
2.2978613657675075,28.20046818987775,-0.07056568160158024,2.162302527459972,-4.467693495613204
2.2848898492822904,27.81471859425301,-0.07356227934527855,2.123804090592709,-4.284964203946904
2.2714197942018592,27.435808240367294,-0.0761049993261783,2.0863109525819206,-4.112739311562285
2.2575286843753943,27.063560285489817,-0.07824066541231874,2.0497774349455895,-3.950182141803861
2.243286026368887,26.697805849556183,-0.08001109021553893,2.0141607420948096,-3.7965378072795346
2.228754198566535,26.338383518406815,-0.08145366314392724,1.9794207151203915,-3.651123926671699
2.2139892012917457,25.985138888887416,-0.08260186213151002,1.9455196128729193,-3.5133225363417266
2.1990413206973525,25.637924151235524,-0.08348570002841785,1.912421916592557,-3.382573024655595
2.1839557173555484,25.296597704796795,-0.08413211488051395,1.8800941549488435,-3.258365944462313
2.1687729489467347,24.961023803635378,-0.08456531188408187,1.8485047468446874,-3.140237581811409
2.153529435152473,24.63107222904233,-0.08480706360771616,1.8176238597447527,-3.027765177738716
2.1382578717603775,24.306617986319175,-0.08487697408223528,1.7874232816236586,-2.9205627155210747
2.122987600055053,23.98754102353137,-0.084792711532479,1.7578763049074622,-2.8182771987879884
2.1077449367722276,23.673725970198483,-0.08457021383224854,1.728957621013563,-2.7205853567506972
2.0925534692109995,23.36506189412134,-0.08422387018139864,1.700643224288004,-2.627190721943056
2.077434319513513,23.061442074748236,-0.08376668201289443,1.6729103243020174,-2.53782103356749
2.0624063816173814,22.76276379165642,-0.08321040572190155,1.6457372656070883,-2.4522259260491484
2.0474865339513695,22.468928126877003,-0.08256567945600574,1.6191034541642102,-2.3701748679223527
2.0326898305688696,22.179839779923643,-0.0818421359051081,1.5929892897619806,-2.291455320869103
2.0180296730878466,21.895406894501022,-0.0810485027729251,1.5673761038226879,-2.2158710927340692
2.003517965522972,21.61554089597087,-0.08019269239234766,1.5422461020679035,-2.143240861764677
1.9891652538494047,21.3401563387428,-0.07928188175840008,1.5175823115773313,-2.073396852260053
1.9749808519230136,21.06917076283629,-0.07832258409038935,1.4933685318283392,-2.0061836443345684
1.9609783841317434,20.802510500610012,-0.07726039136816908,1.469523270685868,-1.9386225301784603
1.9471689326761168,20.540104307849187,-0.076177958138793,1.4461010933232923,-1.873924334012713
1.9335557984378169,20.281877318445815,-0.07507908895342986,1.4230876778253165,-1.8119354135188985
1.9201416323543272,20.027757188320024,-0.07396720086312,1.4004693235723675,-1.7525119356319376
1.9069285018147264,19.777673986697486,-0.0728453606880012,1.3782329166780098,-1.6955191490907289
1.893917950680737,19.53156009339832,-0.07171631857854713,1.3563658977572015,-1.640830718280532
1.8811110535652922,19.289350101734723,-0.0705825382597287,1.3348562318383097,-1.588328112586487
1.8685084649344685,19.050980726646834,-0.0694462243049787,1.3136923802493263,-1.5379000460809735
1.8561104635396892,18.816390717735203,-0.0683093467481251,1.2928632743243582,-1.4894419629017508
1.8439169926346948,18.585520776874873,-0.0671736633073687,1.27235829079045,-1.4428555641516005
1.8319276963851525,18.358313480120074,-0.06604073946532456,1.252167228707318,-1.3980483725709618
1.820141952837238,18.134713203630472,-0.0649119666226134,1.2322802878438117,-1.3549333316092684
1.8085589037744896,17.914666053369878,-0.06378857851903527,1.21268804838502,-1.3134284358539787
1.7971774817591721,17.698119798346653,-0.06267166609560329,1.1933814518730315,-1.273456390073498
1.7859964346248585,17.485023807181747,-0.06156219095232675,1.1743517832925627,-1.2349442943955862
1.77501434766052,17.27532898780561,-0.06046099754032293,1.15559065422007,-1.1978233533801137
1.764229663702779,17.068987730099256,-0.05936882421235555,1.1370899869616635,-1.16202860695744
1.7536407013317947,16.865953851307697,-0.05828631324302542,1.1188419996112118,-1.1274986813940366
1.7432456713472677,16.66618254406579,-0.05721401991838593,1.1008391919655258,-1.0941755586177955
1.733042691684003,16.469630326887426,-0.056152420784555825,1.0830743322385155,-1.0620043623888882
1.7230298009111702,16.27625499697909,-0.05510192113580795,1.0655404445207592,-1.0309331599400373
1.7132049704456427,16.086015585248067,-0.054062861814498576,1.0482307969350666,-1.000912777834277
1.7035661155974218,15.898872313384096,-0.053035525387954786,1.031138890442391,-0.9718966309002403
1.6941111055540197,15.714786552901248,-0.05202014176095922,1.0142584482558992,-0.9438405632060087
1.6848377724006325,15.533720786034046,-0.05101689327667533,0.9975834058241507,-0.9167027001237774
1.6757519500108886,15.355869186755069,-0.04993668883159085,0.9785454750533874,-0.9411403285716372
1.6668562140657164,15.18143447650047,-0.04890482167032276,0.9596179722199105,-0.9670860370102156
1.6581419958132617,15.010397031023619,-0.04791982557917388,0.9407980886340083,-0.9944231016427616
1.6496009928794646,14.842737721003616,-0.04698020701857024,0.9220831338104776,-1.0230367872977693
1.6412251738445982,14.678437891061357,-0.04608444892438797,0.9034705322146024,-1.0528140910647272
1.633006782170664,14.517479339323113,-0.04523101411932721,0.8849578204325663,-1.0836434889931539
1.6249383395476609,14.359844297455442,-0.04441834835848602,0.8665426447637705,-1.1154146847640178
1.6170126487226457,14.20551541109549,-0.04364488303057042,0.848222759235715,-1.1480183592334465
1.609222795871875,14.054475720600188,-0.0429090375335469,0.8299960240454303,-1.1813459197311913
1.6015621525731678,13.906708642036953,-0.042209221340979396,0.8118604044349632,-1.2152892479703854
1.5940243774329304,13.762197948336713,-0.04154383577277043,0.7938139700121724,-1.2497404453903638
1.5866034174200436,13.620927750527727,-0.040911275481523915,0.7758548945321282,-1.2845915747103098
1.579293508957015,13.482882478965543,-0.04030992966324025,0.7579814561588034,-1.3197343964178003
1.5720891788174565,13.348046864470412,-0.0397381829985186,0.7401920382315408,-1.3550600988524233
1.5649852448780834,13.216405919278625,-0.03919441632785017,0.722485130566081,-1.390459020469991
1.5579768167730048,13.087944917708356,-0.03867700706191186,0.7048593313258009,-1.4258203627869126
1.5510592964981844,12.962649376433554,-0.038184329324982086,0.6873133495053516,-1.4610318924064662
1.544228379014536,12.840505034251215,-0.03771475382666743,0.6698460080762,-1.4959796304185262
1.5374800528992747,12.721497831217697,-0.037266647454013486,0.6524562478517925,-1.530547527341416
1.530810601096867,12.6056138870185,-0.0368383725727385,0.6351431321393063,-1.5646171216387803
1.5242166018232748,12.492839478422976,-0.036428286022728566,0.6179058522553814,-1.5980671796959303
1.5176949296802174,12.383161015660441,-0.03603473778902127,0.600743733995008,-1.6307733149797021
1.5112427570399354,12.276565017536846,-0.035656069325224415,0.5836562451560495,-1.6626075839349987
1.5048575557655206,12.17303808509148,-0.03529061150160662,0.5666430042369123,-1.6934380559924767
1.4985370993373364,12.072566873570395,-0.03493668214488328,0.5497037904418212,-1.7231283548795613
1.492279465462514,11.97513806246738,-0.03459258313092178,0.5328385551472277,-1.7515371682477254
1.4860830392520719,11.880738323353746,-0.03425659698510247,0.5160474350042394,-1.778517722462611
1.4799465170590127,11.789354285184547,-0.033926982937776864,0.4993307668757594,-1.8039172192646473
1.473868911080952,11.700972496730731,-0.03360197237401048,0.4826891048333143,-1.8275762309173627
1.4678495548426251,11.615579385743679,-0.03327976360739705,0.46612323946725853,-1.8493280504488059
1.4618881096872351,11.53316121441009,-0.032958515896935735,0.44963421979485896,-1.8689979937014711
1.4559845724213007,11.453704030601077,-0.03263634261344656,0.43322337808303624,-1.8864026501989635
1.4501392842758325,11.377193614359449,-0.03231130344731203,0.4168923579350444,-1.9013490803998885
1.4443529413677085,11.3036154190034,-0.03198139553184487,0.4006431460210542,-1.913633957863281
1.4386266068696572,11.232954506154275,-0.03164454333539092,0.38447810785811937,-1.9230426563678564
1.4329617251260567,11.165195473921635,-0.03129858714906048,0.36840002806009065,-1.9293482843529972
1.4273601379859011,11.100322377403515,-0.030941269963778863,0.35241215547455973,-1.9323106725266386
1.4218241036653132,11.03831864058775,-0.030570222487195476,0.3365182535894779,-1.9316753256001271
1.416356318502062,10.979166958678977,-0.030182945993373834,0.3207226565080117,-1.9271723565501169
1.4109599420269356,10.92284918983669,-0.029776792619141602,0.30503033062851015,-1.9185154325452969
1.40563862585634,10.869346235310417,-0.029348942609699943,0.28944694188563785,-1.905400777087457
1.400396547014457,10.818637907025437,-0.028896377855667957,0.2739789279474802,-1.8875062949474084
1.3952384464329641,10.770702781847284,-0.02841585082758504,0.25863357403200715,-1.8644909178690532
1.3901696735690803,10.7255180420957,-0.027903847660015142,0.24341908987446695,-1.8359943136158867
1.3851962383557472,10.683059302477723,-0.027356543599238493,0.22834468365859723,-1.8016371640892797
1.3803248720937795,10.643300424594322,-0.0267697482004041,0.21342062615695329,-1.7610223072725584
1.3755630994820711,10.60621332173054,-0.02613883637413302,0.19865829455174372,-1.7137371624001903
1.370919324864832,10.571767759024183,-0.025458659372969445,0.18407017996332323,-1.6593580304286886
1.3664029371222668,10.539931157673038,-0.02472342665553223,0.1696698350493956,-1.597457097059918
1.3620244397078294,10.510668417032182,-0.023926544615995044,0.15547172762677766,-1.5276132769707222
1.3577956155553732,10.483941775783315,-0.02306039041129549,0.14149095291617664,-1.4494284306922016
1.3537297415846032,10.459710743275703,-0.022115987041703467,0.12774274161284854,-1.3625509376605944
1.3498418753009256,10.43793214468619,-0.021082527221380935,0.1142416871595393,-1.2667090308049616
1.3461492479792836,10.418560337678148,-0.01994666524130692,0.10100061292982705,-1.1617564540558694
1.342671817304974,10.401547669828105,-0.01869145336213134,0.08802902984843344,-1.047732377145807
1.3394330604063605,10.386845245633914,-0.017294734400241756,0.07533123897589364,-0.9249351098259613
1.3364611316751274,10.37440403967533,-0.01572669594679251,0.0629043827861421,-0.7940034526839259
1.3337905817940683,10.364176293161243,-0.013946080509418587,0.050737245148134005,-0.655988824949369
1.3314649753551302,10.356116908464571,-0.01189399103433779,0.038811473703762624,-0.5123856720461695
1.3295411017864054,10.350184114704383,-0.009482381951492246,0.027108456965008416,-0.3650725482369035
1.3280966772373546,10.346337716183239,-0.006566779704627209,0.01562930438104438,-0.21611454681095837
1.3272492304006303,10.344529712036724,-0.00284929625897527,0.004459630580247667,-0.06740936278820722
