x,y,v_x,v_y,omega
2.375,32.48,0.0,4.0,-5.795918367346939
2.3733978969257095,31.73053434384692,-0.016864242887268118,3.8891121700323876,-5.345866679118087
2.3688752633951267,31.001606350728995,-0.030742425855708563,3.783814073314187,-4.94876402409772
2.3619509363761066,30.29219622012409,-0.04214522697608142,3.6836609856848277,-4.596631104067413
2.353055702501955,29.601363980881512,-0.05148881380445957,3.588257322131767,-4.2829013592398395
2.3425484319451693,28.928240842481046,-0.059114034161709614,3.497249397873128,-4.002137469241191
2.3307289720091107,28.272021791540855,-0.06530133358627664,3.410319559392053,-3.7498111444561433
2.317848513461466,27.63195920346675,-0.07028244059945693,3.3271813677037976,-3.52213066426728
2.304117971130671,27.00735729134275,-0.07424958393522287,3.2475756020224984,-3.3159047865165285
2.289714793782166,26.397567252518478,-0.07736280920694108,3.1712669119172356,-3.1284346072305222
2.274788523930496,25.80198300197562,-0.07975582081063763,3.0980409885338793,-2.957427072542397
2.2594653571591232,25.22003740324011,-0.0815406715196001,3.027702156050463,-2.800925388372887
2.2438518964954195,24.651198924261184,-0.08281154599307197,2.9600713068855944,-2.6572527080612893
2.228038256001458,24.094968658636667,-0.0836478276275715,2.8949841207408706,-2.5249663203548156
2.212100635805546,23.550877662766908,-0.08411659548729478,2.8322895199934717,-2.4028201909578697
2.1961034659929046,23.018484567643547,-0.08427466569840031,2.7718483234102886,-2.2897341871900605
2.1801011973870175,22.49737343051372,-0.08417026699514835,2.7135320674300583,-2.184768677763564
2.16413980201561,21.987151796965414,-0.08384442112493101,2.6572219699204744,-2.087103477448375
2.1482580340154396,21.48744894832504,-0.0833320841400199,2.602808015767722,-1.9960203206489935
2.1324884921695175,20.99791431284412,-0.08266309318547721,2.5501881471892993,-1.9108882142097356
2.1168585176429557,20.518216022134403,-0.0818629544625423,2.49926754449191,-1.8311511495859987
2.10139095437144,20.04803959680574,-0.0809535010270958,2.449957985283509,-1.7563177564223535
2.086104794637727,19.587086747362747,-0.07995344353830894,2.4021772720111794,-1.68595255998499
2.071015728397617,19.135074278195376,-0.078878832673375,2.3558487192242707,-1.619668568654422
2.056136611693874,18.69173308401281,-0.07774344841865342,2.3109006932237928,-1.5571209684796332
2.041477866873053,18.25680722936486,-0.07655912864262202,2.2672661978072752,-1.4980017424446017
2.027047825177229,17.830053103007213,-0.07533604710289378,2.2248825006942745,-1.4420350647686964
2.0128530205262813,17.411238639825662,-0.07408294922286862,2.1836907959536545,-1.3889733469282894
1.9988984418622724,17.000142603864425,-0.07280735250354278,2.143635898375106,-1.3385938334489718
1.9851877502364133,16.596553926724624,-0.07151571724234103,2.104665966254386,-1.2906956628914945
1.9717234658338445,16.200271096226945,-0.07021359225838429,2.0667322495106593,-1.2450973236363891
1.9585071293140588,15.811101590781803,-0.06890573952883385,2.02978886043822,-1.2016344456894532
1.945539441164827,15.428861355391355,-0.06759624098939535,1.9937925647244041,-1.160157879279156
1.9328203822002832,15.053374315630851,-0.066288590216329,1.9587025906493363,-1.1205320188916255
1.9203493178595052,14.684471926329461,-0.06498577126554272,1.924480454628451,-1.0826333379034854
1.9081250885642689,14.321992751999982,-0.06369032657905135,1.891089801471344,-1.046349104378911
1.8961460880604681,13.965782076358245,-0.062404415566218195,1.8584962579153537,-1.0115762530969052
1.8844103313862113,13.615691538531713,-0.06112986521543467,1.8266672981534047,-0.9782203926307873
1.8729155138719462,13.271578793786578,-0.059868213882090515,1.7955721202164625,-0.946194929445964
1.8616590623769227,12.93330719680755,-0.058620749223422766,1.7651815321943303,-0.9154202936210766
1.8506381797958102,12.600745505747337,-0.05738854110407506,1.7354678473868645,-0.8858232530185985
1.8398498837244852,12.273767605426148,-0.056172470173032216,1.7064047875730424,-0.857336304604931
1.8292910400506923,11.952252248208115,-0.054973252708996855,1.67796739366942,-0.8298971332051888
1.8189583921301624,11.636082811212756,-0.05379146224394903,1.6501319431238488,-0.8034481293219718
1.808848586118905,11.325147068637655,-0.052627548400866496,1.6228758734561406,-0.7779359587898429
1.7989581929555034,11.019336978074826,-0.05148185331914974,1.5961777114157543,-0.7533111780104716
1.789283727421291,10.718548479798873,-0.05035462598834844,1.5700170072784827,-0.7295278893444079
1.7798216646496474,10.422681308091637,-0.049246034765796504,1.5443742738503088,-0.7065434319465321
1.7705684544069276,10.131638813746015,-0.04815617831546569,1.5192309297878037,-0.6843181039420267
1.761520533425553,9.845327796962458,-0.04708509517268707,1.494569246881237,-0.6628149123637312
1.7526823137254466,9.56365961784309,-0.0459487964073791,1.4703589543752693,-0.639746824825842
1.7440572935806766,9.286548701970649,-0.044840889327042055,1.4465980548083242,-0.617690798728629
1.735640134391856,9.013911137878079,-0.043760786344753146,1.423271040902923,-0.5965907811787163
1.7274256110076671,8.74566589580817,-0.042707880857235425,1.4003630861487695,-0.5763944116436437
1.7194086148349346,8.4817347019426,-0.04168155253994783,1.3778600071730271,-0.5570527399257065
1.7115841560140326,8.22204191954594,-0.040681171890600214,1.3557482285812898,-0.5385199685574791
1.7039473647931607,7.9665144365730285,-0.03970610411857757,1.3340147500809332,-0.5207532172597711
1.6964934922177153,7.715081559322432,-0.03875571246505973,1.3126471157148387,-0.503712307353802
1.6892179102359093,7.467674911749942,-0.03782936102763381,1.2916333850482093,-0.4873595642412924
1.6821161113086847,7.224228340084736,-0.036926417153677234,1.2709621061645062,-0.4716596362626165
1.6751837076005247,6.984677822416941,-0.03604625345853351,1.2506222903385888,-0.4565793284172964
1.668416429817817,6.748961382949499,-0.03518824951733676,1.230603388266066,-0.44208744958568996
1.6618101257527242,6.517019010629134,-0.03435179327311439,1.2108952677377716,-0.42815467202809826
1.655360758582932,6.288792581891606,-0.03353628219838234,1.1914881926572825,-0.41475340205977895
1.649064404971026,6.0642257872749425,-0.03274112424273401,1.172372803307584,-0.40185766090927977
1.6429172530014586,5.843264061671579,-0.03196573859481791,1.1535400977804362,-0.3894429748646908
1.6369155999880165,5.625854518006005,-0.031209556283519485,1.1349814144887846,-0.37748627389921396
1.6310558501802785,5.41194588413914,-0.03047202064003924,1.1166884156887524,-0.3659657980450673
1.6253345123936906,5.201488442814085,-0.02975258763983243,1.0986530719434058,-0.3548610108542332
1.6197481975845123,4.994433974470226,-0.029050726140993084,1.0808676474656491,-0.3441525193468401
1.6142936163879276,4.790735702764167,-0.028365918033582203,1.0633246862823345,-0.3338219999038489
1.6089675766350422,4.590348242646574,-0.027697658312578064,1.0460169991659969,-0.3238521296109118
1.603766980862222,4.393227550853769,-0.027045455085531737,1.0289376512845931,-0.3142265226054025
1.598688823824258,4.199330878682023,-0.0264088295246146,1.0120799505232587,-0.3049296710192436
1.5937301900211251,4.008616726920948,-0.02578731577152107,0.995437436435434,-0.29594689014675996
1.588893718652351,3.8212441770613275,-0.025122909162943293,0.9769051936658208,-0.3291064910524576
1.5841791368282854,3.637382571085883,-0.024504267932484083,0.958480132391489,-0.3636744279883898
1.5795778757501722,3.4570118083792707,-0.023930059205550473,0.9401594750465474,-0.39954567551149844
1.5750816223081507,3.2801123058472648,-0.023398924394674715,0.9219405516061444,-0.43661713637560745
1.570682323601348,3.10666497780225,-0.022909483045354513,0.9038207962361166,-0.47478741157085264
1.5663721907646004,2.9366512164501977,-0.02246033628883047,0.8857977443118037,-0.5139565734484659
1.5621437021740483,2.770052872909474,-0.022050069927507382,0.8678690298010838,-0.5540259409575163
1.5579896060992255,2.6068522386924826,-0.0216772571758885,0.850032383009357,-0.594897856010821
1.5539029228651864,2.4470320275813293,-0.02134046107715734,0.8322856286869915,-0.6364754599800886
1.5498769465846323,2.2905753578283132,-0.02103823661288548,0.8146266845026626,-0.678662469295064
1.5459052465169374,2.1374657346110943,-0.020769132520742497,0.7970535598891243,-0.7213629490875605
1.5419816681083784,1.9876870326708556,-0.020531692832510683,0.7795643552712832,-0.7644810837782239
1.538100333765787,1.8412234790595292,-0.020324458142136122,0.7621572616900644,-0.8079209434510259
1.5342556434142436,1.6980596359192184,-0.020145966610951926,0.7448305608395118,-0.8515862447970434
1.53044227488832,1.5581803832132657,-0.019994754714559967,0.727582625538935,-0.8953801053341793
1.52665518420579,1.4215709013237259,-0.019869357733123177,0.7104119206667626,-0.9392047895221087
1.5228896057726664,1.2882166534245059,-0.01976830998396798,0.6933170045881909,-0.9829614452907599
1.5191410525689126,1.1581033675327213,-0.0196901447923891,0.6762965311148216,-1.0265498293848472
1.5154053163652677,1.0312170181328817,-0.01963339419334675,0.659349252041381,-1.0698680197949835
1.511678468023336,0.9075438072592696,-0.01959658835330469,0.6424740203124478,-1.1128121133962932
1.5079568579334879,0.7870701449108886,-0.01957825469772722,0.6256697938810412,-1.1552759067467164
1.5042371166482642,0.6697826286607338,-0.019576916725679294,0.6089356403311177,-1.1971505578078276
1.5005161557729179,0.5556680223062465,-0.019591092488493767,0.5922707423477098,-1.2383242261395622
1.4967911691795819,0.44471323339068647,-0.01961929270451427,0.5756744041318433,-1.2786816888855261
1.4930596346173939,0.33690528940524445,-0.019660018476411616,0.5591460588727822,-1.3181039296067105
1.4893193157978504,0.23223131245858042,-0.019711758571416344,0.5426852774078718,-1.356467696738289
1.4855682650428648,0.13067849217387106,-0.01977298621790697,0.5262917782206398,-1.393645028137658
1.4818048265925812,0.03223405654254208,-0.01984215536402483,0.5099654389512638,-1.4295027378645861
1.4780276406811534,-0.06311475957176782,-0.019917696335215184,0.4937063096204302,-1.4639018609913985
1.4742356485016301,-0.1553807486265626,-0.01999801081766077,0.47751462779845777,-1.4966970518914642
1.4704280981960398,-0.244576767686155,-0.020081466083289926,0.4613908359867556,-1.5277359311123742
1.4666045520240052,-0.33071577924916795,-0.020166388359179298,0.4453356015186476,-1.5568583756287524
1.462764894883085,-0.41381089612993804,-0.02025105522945407,0.4293498393315955,-1.5838957470231896
1.4589093443769046,-0.49387543097767406,-0.02033368694086758,0.41343473801297176,-1.6086700520141688
1.4550384626534738,-0.570922951098666,-0.020412436463667052,0.39759178957643393,-1.63099302981398
1.4511531702664557,-0.6449673393394662,-0.02048537813652305,0.3818228234846452,-1.6506651611708156
1.4472547623472338,-0.7160228618924833,-0.02055049469738923,0.36613004549447054,-1.6674745947936962
1.443344927416333,-0.7841042440005594,-0.020605662469988253,0.35051608195899436,-1.6811959884196765
1.4394257692102208,-0.8492267546623253,-0.0206486344364566,0.3349840302700936,-1.6915892644150405
1.4354998319553558,-0.9114063015726899,-0.020677020877911654,0.3195375161548302,-1.6983982840246565
1.4315701295877368,-0.9706595376678209,-0.020688267202288467,0.3041807585307618,-1.7013494509544491
1.4276401794963645,-1.0270039807705942,-0.020679628496367102,0.28891864255106453,-1.700150265000124
1.4237140414677116,-1.0804581479350759,-0.020648140226293892,0.27375680128561314,-1.6944878615450438
1.419796362632812,-1.131041706138575,-0.020590584351596043,0.2587017061196457,-1.6840275953217703
1.4158924293803639,-1.1787756409234973,-0.020503449884701274,0.24376076530055524,-1.668411760353509
1.4120082274165264,-1.2236824443784684,-0.020382886576745474,0.22894242896227648,-1.647258587567772
1.4081505114543749,-1.2657863233598974,-0.02022464986695346,0.21425629715801275,-1.6201617346440929
1.4043268864515337,-1.305113427923608,-0.02002403437347959,0.19971322456526042,-1.5866905899755412
1.40054590296305,-1.3416920983069573,-0.01977579182108622,0.18532541104892675,-1.5463918695094279
1.3968171701705288,-1.3755531260952125,-0.019474027047559097,0.17110646040641572,-1.4987932129320292
1.3931514917088395,-1.4067300208704197,-0.019112062022854925,0.15707137933258414,-1.4434098122282697
1.3895610319072285,-1.4352592669057813,-0.018682251678312237,0.14323647367122622,-1.379755564636241
1.386059524107064,-1.4611805443324286,-0.01817572516552574,0.1296190781882458,-1.3073608647188244
1.382662539331105,-1.4845368745434158,-0.01758200931825487,0.11623702929581116,-1.225799941541809
1.37938784442399,-1.505374629606763,-0.016888463388217242,0.10310776084467882,-1.134731523285528
1.3762558965418263,-1.523743320877955,-0.01607940905561017,0.09024688411525719,-1.033957260614395
1.3732905497982373,-1.5396950580262967,-0.01513476719269593,0.07766613849889765,-0.9235019385064872
1.3705200968240387,-1.5532835619543945,-0.014027895693605165,0.06537074495476784,-0.80371625658136
1.3679788452264008,-1.564562660191676,-0.012722121123635431,0.05335660491138463,-0.6753936438011003
1.3657095652763902,-1.5735843634518432,-0.011165036244898187,0.041608692564076025,-0.5398731727546897
1.3637674356062703,-1.5803970421697642,-0.00927843396688981,0.030103714993024104,-0.3990705491774471
1.3622269558448845,-1.5850451375142782,-0.00693714246875013,0.018823604422876467,-0.2553506163575665
1.361196826938677,-1.587574320378721,-0.003906319701856869,0.007799373097576064,-0.11115791621432297
