x,y,v_x,v_y,omega
2.375,32.48,0.0,3.230769230769231,-3.959183673469388
2.3742227188341407,31.90500158873093,-0.008636457398438815,3.1581020055537428,-3.718800045288514
2.3720008539520414,31.34283204778294,-0.016050930180440494,3.088226227201656,-3.5001630026164023
2.368539507359173,30.79300438856234,-0.022408476406985636,3.0209699863606083,-3.300713410846563
2.364016245206154,30.255061260858685,-0.027849991959891164,2.9561758770133157,-3.118248718990768
2.3585850968861184,29.728572487355617,-0.03249610048495192,2.8936993841319025,-2.95086639446774
2.352379915838213,29.21313286771031,-0.036450355602887854,2.8334075008159396,-2.796917369819506
2.3455172138711733,28.708360214531485,-0.03980188847532547,2.77517753450435,-2.654967547897918
2.3380985593957497,28.213893590099982,-0.04262760569604669,2.718896070290139,-2.523765828892102
2.3302126130080505,27.729391717851904,-0.04499402083394879,2.6644580657995993,-2.402217442680576
2.3219368603783637,27.254531546795448,-0.04695878616256992,2.6117660570499033,-2.2893616176769216
2.313339091604548,26.78900695039163,-0.048571977990935905,2.560729458548085,-2.1843528103111107
2.3044786675030555,26.332527544170087,-0.04987717869231417,2.5112639439135065,-2.08644487060069
2.2954076062879585,25.884817608605335,-0.05091239036432282,2.463290895694857,-1.9949776386198004
2.286171518384766,25.445615105646493,-0.05171080856003264,2.4167369149589546,-1.9093655613440317
2.2768104124739925,25.01467077885162,-0.052301479337455686,2.3715333827618528,-1.8290879948323782
2.2673593920503046,24.591747328386063,-0.052709858703517645,2.327616066855418,-1.753680917188086
2.2578492586523526,24.17661865324935,-0.05295829016261623,2.2849247679969578,-1.6827298264241657
2.2483070353360044,23.76906915403393,-0.0530664133523669,2.2434030010632995,-1.6158636367192813
2.238756421826562,23.36889309032079,-0.053051514530322925,2.2029977068605042,-1.5527494185035553
2.229218191011096,22.975893987504833,-0.052928827863743255,2.1636589910945245,-1.4930878538576
2.219710534954263,22.589884088435937,-0.05271179498995521,2.1253398874487535,-1.4366093000148443
2.2102493673866763,22.21068384577485,-0.05241228909434681,2.087996142118925,-1.3830703712513044
2.200848588581013,21.83812145140932,-0.05204080874635755,2.0515860174980536,-1.3322509638600808
2.19152031766275,21.47203239966495,-0.0516066459010048,2.0160701129949685,-1.2839516608219053
2.1822750966712396,21.11225908138575,-0.051118031782444576,1.9814112012183773,-1.23799146266257
2.173122070069624,20.758650406258674,-0.05058226379106269,1.9475740779713402,-1.194205799205553
2.1640691428798027,20.411061451019663,-0.050005816095842884,1.9145254246843626,-1.1524447837832987
2.155123120175657,20.069353131411436,-0.04939443617243816,1.8822336820737064,-1.1125716772055578
2.1462898302911646,19.733391895969405,-0.04875322921081149,1.8506689339488593,-1.0744615335941348
2.137574233779188,19.403049439894875,-0.048086732033375025,1.8198028002125812,-1.0380000042399422
2.1289805198828318,19.078202437437636,-0.04739897792613955,1.7896083382011971,-1.0030822790506129
2.1205121920469168,18.758732291355162,-0.04669355358402424,1.7600599516040554,-0.9696121480416291
2.1121721437962613,18.444524898145495,-0.045973649201036706,1.7311333062811398,-0.937501167768498
2.103962726134937,18.135470427867048,-0.04524210259145657,1.7028052523682857,-0.9066679196739195
2.095885807472232,17.83146311746296,-0.044501438105263406,1.6750537521215914,-0.8770373490916423
2.0879428269530846,17.53240107660133,-0.043753900996378096,1.6478578130075707,-0.8485401751569962
2.0801348419602443,17.23818610512717,-0.04300148781295949,1.621197425594274,-0.8211123631637737
2.072462570459842,16.948723521297918,-0.04224597330262047,1.5950535058418418,-0.7946946520122217
2.064926428779206,16.663922000043506,-0.04148893426000082,1.5694078414294226,-0.7692321303417393
2.057526565333887,16.383693420553787,-0.04073177068798735,1.5442430417896806,-0.7446738557581803
2.050262890758364,16.10795272255297,-0.03997572459560344,1.5195424915527442,-0.7209725122693073
2.0431351048404975,15.836617770671626,-0.039221896714023916,1.4952903071288495,-0.6980841016496285
2.036146787909228,15.569610263170564,-0.038426069188967876,1.4714597762162827,-0.6746067658828243
2.0293006731017273,15.306854515961952,-0.037641873116598626,1.4480485261016223,-0.6521198941441985
2.022594636783556,15.048276315001011,-0.03686964152975078,1.4250425956866126,-0.6305706082677394
2.0160265020923656,14.793803906319944,-0.03610963281680674,1.4024286118808176,-0.6099093853958067
2.009594051574234,14.543367893001236,-0.03536203960687947,1.3801937583270723,-0.5900898110217041
2.003295038309582,14.296901137602575,-0.03462699666702983,1.3583257461024765,-0.5710683526407966
1.99712719569644,14.054338669690864,-0.03390458792343798,1.3368127862498638,-0.5528041520910979
1.9910882460398631,13.815617598167766,-0.03319485270519445,1.315643564006804,-0.5352588348611466
1.9851759080795957,13.580677028092236,-0.03249779129777728,1.294807214610175,-0.5183963348178516
1.979387903573315,13.349457981726534,-0.03181336988311805,1.2742933005643047,-0.5021827329624872
1.9737219630397524,13.121903323551471,-0.03114152493424446,1.2540917902697366,-0.4865861089614646
1.968175830754451,12.897957689014586,-0.030482167124658843,1.2341930379179025,-0.47157640432194087
1.962747269080716,12.67756741679117,-0.029835184805730594,1.2145877645644785,-0.45712529619248565
1.957434062209261,12.460680484353276,-0.029200447099325188,1.1952670403010328,-0.44320608086748103
1.9522340193720413,12.247246446655613,-0.028577806647559174,1.1762222674507978,-0.4297935661620047
1.947144977588643,12.037216377760231,-0.027967102056868184,1.157445164720093,-0.4168639719028381
1.9421648039972765,11.830542815233631,-0.027368160069425277,1.1389277522421197,-0.40439483785198116
1.937291397816813,11.627179707160924,-0.026780797491281472,1.1206623374546132,-0.39236493844255577
1.9325226919812952,11.42708236163186,-0.026204822903359657,1.102641501757183,-0.38075420376404306
1.927856654483922,11.230207398562879,-0.025640038178565545,1.084858087898178,-0.369543646285132
1.9232912894635343,11.036512703728032,-0.025086239825739775,1.0673051880445665,-0.3587152928486812
1.9188246380631147,10.845957384879771,-0.024543220178924376,1.0499761324916899,-0.3482521215149628
1.9144547790866537,10.658501729847963,-0.024010768448420018,1.0328644789728365,-0.33813800286695267
1.9101798294779455,10.474107166512578,-0.02348867164833798,1.015964002531429,-0.32835764542538637
1.9059979446423552,10.292736224551838,-0.022976715413775852,0.9992686859212313,-0.31889654485199953
1.901911459265849,10.114569641520031,-0.022428677658516312,0.9803600144321664,-0.3576309663397472
1.8979196589855807,9.939797350826524,-0.021924658788909996,0.9615543266068108,-0.39754898525407706
1.8940147481705865,9.76840104585321,-0.021463239155469556,0.9428490619855656,-0.4385497404292383
1.8901891881353852,9.600362871941023,-0.021042983457877217,0.9242417592609649,-0.48053376917448964
1.8864356996992644,9.43566540876665,-0.020662443610131934,0.9057300537876146,-0.5234027882126455
1.8827472652591166,9.274291653136228,-0.020320161280397906,0.8873116754393106,-0.5670594754663252
1.8791171304327117,9.116225002133401,-0.020014670124102192,0.8689844468143046,-0.6114072517317469
1.8755388053261735,8.961449236558792,-0.01974449772632293,0.8507462817924664,-0.6563500612537505
1.87200606547677,8.809948504596878,-0.019508167267047707,0.8325951844510346,-0.7017921501813745
1.8685129525198962,8.661707305644889,-0.019304198920440357,0.8145292483488314,-0.7476378418401984
1.8650537746273437,8.516710474236191,-0.019131110996808916,0.7965466561922561,-0.7937913077051346
1.8616231067626166,8.374943163987876,-0.01898742083349191,0.7786456799001512,-0.840156332894662
1.858215790798151,8.23639083149887,-0.018871645438346733,0.7608246810888012,-0.8866360749337547
1.8548269355388785,8.101039220120612,-0.018782301886903285,0.7430821120029523,-0.9331328144470004
1.8514519166966217,7.968874343517193,-0.018717907471505674,0.7254165169239295,-0.9795476963444956
1.848086376860378,7.839882468925783,-0.01867697959787034,0.7078265340917514,-1.0257804599498492
1.8447262255086434,7.7140501000208985,-0.018658035421401053,0.6903108981847348,-1.0717291563906477
1.8413676391116125,7.591363959277594,-0.018659591212277823,0.672868443407556,-1.1172898514256142
1.8380070613733817,7.4718109697186605,-0.018680161434730048,0.6554981072472578,-1.1623563117179012
1.8346412036672795,7.3553782359194315,-0.018718257521961032,0.6381989349664154,-1.206819672378927
1.8312670457211562,7.242053024130211,-0.01877238632385185,0.6209700849138255,-1.2505680834003878
1.8278818366140304,7.131822741360839,-0.018841048199769842,0.603810834745864,-1.2934863323621595
1.8244830961509393,7.02467491325374,-0.018922734723464812,0.5867205886663595,-1.3354554405496637
1.8210686166893315,6.920597160550891,-0.019015925961067673,0.5696988858097337,-1.376352229335354
1.817636465497949,6.8195771739359685,-0.019119087276513087,0.5527454099116113,-1.416048853375611
1.8141849877380571,6.721602687004911,-0.01923066561117651,0.5358600004334896,-1.4544122968482465
1.8107128101672096,6.626661447085855,-0.019349085176016575,0.5190426653337812,-1.4913038286108298
1.8072188456777276,6.534741183592178,-0.019472742484894313,0.5022935957070581,-1.526578411803194
1.8037022987958728,6.445829573549307,-0.019600000646823493,0.48561318254708213,-1.560084063060475
1.8001626722836357,6.359914203886582,-0.019729182822479655,0.46900203592763945,-1.591661156164514
1.7965997750033633,6.276982530028615,-0.019858564736102976,0.45246100693866953,-1.6211416646701178
1.7930137312265249,6.197021830255384,-0.019986366117654992,0.43599121276388886,-1.648348337841879
1.7894049915921164,6.120019155226039,-0.020110740931328603,0.4195940653399543,-1.6730938041916197
1.7857743459480706,6.045961271976843,-0.020229766224737652,0.4032713040955621,-1.6951795971114774
1.7821229383411588,5.974834601608521,-0.020341429407613482,0.38702503333022553,-1.714395097693408
1.7784522844579984,5.906625149771951,-0.02044361373861348,0.37085776485388816,-1.7305163910175543
1.7747642918629019,5.84131842894427,-0.020534081762458967,0.3547724665648154,-1.7433050342792817
1.7710612834287376,5.778899371361732,-0.020610456394921393,0.33877261768560657,-1.752506738545207
1.7673460244164745,5.7193522313448035,-0.020670199296890512,0.32286227139137014,-1.7578499713211937
1.7636217537302343,5.662660475622133,-0.020710586105776602,0.3070461255271981,-1.759044495413735
1.7598922199611908,5.608806660145774,-0.020728677994709024,0.29132960198789315,-1.7557798721363596
1.7561617229411768,5.557772291811016,-0.020721288894335478,0.2757189350649701,-1.7477239757548095
1.7524351616641358,5.509537673484154,-0.020684947517229192,0.26022126856682687,-1.7345215941089218
1.7487180896143444,5.464081730854339,-0.02061585303600902,0.24484476065333763,-1.7157932318850775
1.7450167787868214,5.42138181994531,-0.020509822825357342,0.2295986938914441,-1.691134294304872
1.7413382940335573,5.381413514779776,-0.020362229988688654,0.21449358572560126,-1.660114919138533
1.737690579878405,5.344150375882613,-0.02016792729077995,0.19954129090955502,-1.6222808570085756
1.734082562711888,5.309563702338469,-0.01992115233718588,0.1847550818031681,-1.577155992316582
1.7305242724683292,5.277622273426861,-0.01961540592458149,0.17014968388138357,-1.5242473748078362
1.7270269897747497,5.248292091074511,-0.019243290670743634,0.1557412311447286,-1.4630540265546417
1.7236034275999672,5.221536142347148,-0.018796289049061117,0.14154708804817892,-1.3930813358444758
1.7202679613815905,5.197314213004724,-0.018264446710680685,0.12758546020098022,-1.3138635719541467
1.7170369297185974,5.175582799794075,-0.017635905100355113,0.11387468658400333,-1.224997926726572
1.7139290410219203,5.1562951909434425,-0.01689619152938927,0.10043207842302837,-1.1261943393043197
1.7109659432717148,5.139401808992364,-0.01602711680622659,0.08727216547785042,-1.0173456710952027
1.7081730494219247,5.124850928802395,-0.015005037080332812,0.07440428107737224,-0.8986213278054093
1.7055807686595483,5.1125898732008075,-0.013798082501624084,0.0618296700513881,-0.7705816889204338
1.703226390897206,5.102566699440544,-0.012361670413289793,0.0495389272848756,-0.6342968067880628
1.701157056118486,5.094732129991382,-0.010630938239156396,0.0375118443724799,-0.4914274136031394
1.6994346880644304,5.08904089291638,-0.008506484583681435,0.025724123127538,-0.34419345459636663
1.6981452970837323,5.085450303443505,-0.005820081868521283,0.014171315459942371,-0.19513650374263977
1.6974230268790416,5.083908989173441,-0.0022051426280428107,0.0029543986518841964,-0.04662106206473718
