x,y,v_x,v_y,omega
2.375,32.48,0.0,3.0769230769230766,-5.183673469387755
2.3736780862268594,31.84174468958564,-0.012589654982290758,3.001698927023202,-4.836999136462134
2.369915733372585,31.21894500124934,-0.02324227696318128,2.92972667617962,-4.525143421676812
2.364089643869343,30.610941913243813,-0.03224428973436034,2.8607789238730126,-4.24357956061753
2.3565212035398724,30.017121801056525,-0.03983609435583671,2.794650716005917,-3.9884772831263473
2.34748528877558,29.43691203905126,-0.04622023673265904,2.7311565411870924,-3.7565805230775093
2.337217526837743,28.869777178240966,-0.051567972199122285,2.6701278474823686,-3.5451091905808
2.3259203094012686,28.31521560247717,-0.056024574814922505,2.6114109693157097,-3.3516797567296375
2.3137677951858846,27.772756585663338,-0.059713655807781436,2.554865381292204,-3.174240661915449
2.300910088425214,27.24195768801026,-0.0627406942938445,2.500362215403777,-3.0110194882694357
2.287476742064003,26.722402441174225,-0.06519593771769011,2.4477829925584604,-2.8604795296682304
2.2735797051260955,26.213698281290498,-0.06715679502428308,2.3970185301437072,-2.7212839144184544
2.2593158106143783,25.715474696105105,-0.06868981937302293,2.347967995431456,-2.592265832126454
2.2447688820862868,25.22738155810245,-0.06985235708499159,2.3005380807842974,-2.4724037199835562
2.2300115225784856,24.749087620079113,-0.07069392394168873,2.254642281342753,-2.3608004982121598
2.2151066379944035,24.280279153287335,-0.07125735781147056,2.2102002595313164,-2.256666126781143
2.200108737783984,23.820658711260513,-0.07157978704967194,2.1671372835812575,-2.1593028982403495
2.1850650482515532,23.36994400488436,-0.07169344659252426,2.125383729525005,-2.068092993934152
2.1700164677520393,22.927866876303398,-0.07162636768856262,2.0848746379127228,-1.9824879198824128
2.1549983880884764,22.49417236093862,-0.07140296244060403,2.045549317942287,-1.9019995095028552
2.140041402379196,22.06861782830454,-0.07104452050492552,2.0073509928584845,-1.8261922370716417
2.1251719163439917,21.650972193504707,-0.07056963221130327,1.9702264814256512,-1.7546766314226392
2.110412677225124,21.241015192294164,-0.06999454987315375,1.9341259110557147,-1.6871036162135584
2.095783232300211,20.838536713457675,-0.06933349703077928,1.8990024588155932,-1.6231596329534317
2.0813003270715242,20.44333618298957,-0.06859893371861912,1.8648121170711205,-1.5625624273039933
2.066978251659034,20.055221995195236,-0.06780178449557428,1.8315134809701656,-1.5050573990439067
2.0528291426259004,19.674010986382473,-0.0669516348676017,1.7990675553418516,-1.4504144323901769
2.038863246378952,19.299527947286574,-0.06605690081762014,1.7674375789048062,-1.3984251367938616
2.0250891493758387,18.931605170787286,-0.06512497540250618,1.736588863945542,-1.3489004394140607
2.011513979604707,18.570082031838055,-0.06416235575113025,1.706488649856653,-1.3016684796611702
1.9981435831567174,18.214804596845486,-0.06317475327734103,1.6771059691202213,-1.2565727638367046
1.9849826791663046,17.865625260016408,-0.062167189488496574,1.648411524490042,-1.2134705442633433
1.9720349959321566,17.522402404436455,-0.06114407940815185,1.620377576271423,-1.172231392621764
1.9593033906398243,17.18500008586204,-0.06010930432834421,1.5929778387229976,-1.1327359416736984
1.946789954773347,16.853287737401136,-0.05906627535239321,1.566187384714181,-1.094874773302539
1.9344961070189768,16.527139893430103,-0.058017988974942335,1.5399825578670807,-1.0585474339652292
1.9224226752212499,16.2064359312471,-0.056967075765313895,1.5143408914948602,-1.0236615613214448
1.9105699687438003,15.891059829099383,-0.055915843067539904,1.4892410337214899,-0.9901321080697266
1.8989540028084941,15.580902482347376,-0.054712403935373695,1.4646384591547648,-0.9535205415921023
1.8875888148157525,15.275858781176698,-0.05352748170978601,1.4405396472326564,-0.9186406396963481
1.8764704345791214,14.975824880217822,-0.05236185387717512,1.4169260761852205,-0.8853895055841866
1.8655947464626847,14.680700731547986,-0.051216128184126956,1.3937801016227263,-0.8536715176826376
1.8549575227270814,14.390389905922945,-0.05009076453590522,1.3710849043300535,-0.8233977338597129
1.8445544525566802,14.104799424582769,-0.04898609422982042,1.348824441766864,-0.7944853509202411
1.8343811672928005,13.823839600885698,-0.04790233685474997,1.3269834029671277,-0.7668572136627801
1.8244332623328248,13.547423891085295,-0.04683961514501977,1.3055471665605256,-0.7404413684300347
1.8147063160984298,13.275468753621709,-0.04579796803969432,1.284501761664112,-0.7151706566557594
1.8051959064268104,13.007893516348322,-0.04477736216620372,1.2638338314157587,-0.6909823444116583
1.795897624695718,12.744620251160793,-0.043777701939440285,1.2435305989416614,-0.667817784397588
1.7868070879555227,12.485573655537195,-0.0427988384433707,1.223579835568806,-0.6456221072053959
1.777919949308631,12.230680940535915,-0.04184057724131047,1.2039698311100488,-0.624343939027833
1.7692319067477942,11.979871724832584,-0.04090268524285142,1.1846893660645443,-0.6039351432850604
1.7607387106396324,11.733077934408872,-0.039984896739641035,1.1657276855898444,-0.5843505839073969
1.7524361700175817,11.490233707534937,-0.03908691870846049,1.1470744751142794,-0.56554790824853
1.7443201578290473,11.251275304713658,-0.03820843546805966,1.1287198374693213,-0.5474873478122141
1.7363866152644978,11.016141023279054,-0.03734911276574369,1.1106542714316752,-0.5301315351608147
1.7286315552812355,10.784771116363462,-0.03650860136056404,1.092868651573953,-0.5134453355387666
1.7210510654213693,10.557107715968439,-0.03568654016197135,1.0753542093310349,-0.49739569189058636
1.7136413100119046,10.333094759893022,-0.03488255897578729,1.0581025151967327,-0.4819514820836766
1.7063985318246089,10.112677922290285,-0.03409628090321836,1.0411054619721887,-0.46708338726266035
1.6993190532642795,9.895804547638871,-0.033327324433253334,1.0243552489936534,-0.4527637703660405
1.6923992771460614,9.682423587930877,-0.03257530526406177,1.0078443672729487,-0.43896656392902594
1.6856356871154248,9.472485542890865,-0.031839837884859175,0.9915655854890816,-0.4256671663796663
1.6790310080982869,9.266084453725583,-0.031061867040263196,0.9741590732278901,-0.43996479121566595
1.6725857331428386,9.063326516282679,-0.030321703964005853,0.9568689024188115,-0.4562581482993705
1.6662919705230719,8.864187641892457,-0.02961889241472403,0.9396918060594823,-0.4744320074834163
1.6601419329848004,8.668644414349593,-0.028952893664052827,0.9226246467297023,-0.4943743486102917
1.6541279542450802,8.47667406327599,-0.02832309433328314,0.90566441111415,-0.5159761088687711
1.6482425039139632,8.28825443858841,-0.02772881358211607,0.8888082049580331,-0.5391309385494724
1.6424782009697059,8.103363985981964,-0.027169309696525496,0.8720532484366861,-0.5637349642048016
1.636827825909097,7.921981723344228,-0.02664378611879639,0.8553968719227089,-0.5896865582491587
1.6312843316859158,7.7440872180179845,-0.026151396959120148,0.8388365121367592,-0.6168861140591883
1.6258408535426176,7.569660564833214,-0.025691252024672002,0.822369708670588,-0.6452358256511781
1.6204907178331487,7.3986823648310995,-0.02526242139884151,0.8059941008733695,-0.6746394710234672
1.6152274499282482,7.231133704604435,-0.024863939600210674,0.7897074250948608,-0.7050021982558997
1.6100447812886913,7.066996136179924,-0.024494809347950307,0.7735075122814439,-0.7362303134558502
1.6049366557866178,6.906251657368383,-0.024154004957510394,0.7573922859237029,-0.76823106963098
1.5998972353503613,6.748882692508921,-0.023840475387791354,0.7413597603568896,-0.8009124555524246
1.5949209050040136,6.594872073532507,-0.023553146958376743,0.7254080394184795,-0.8341829836482493
1.5900022773693334,6.44420302126921,-0.02329092575286147,0.7095353154700519,-0.8679514759353409
1.5851361966944941,6.296859126921486,-0.023052699721799297,0.6937398687939818,-0.9021268469579847
1.5803177424715942,6.152824333623325,-0.022837340496295034,0.6780200673789732,-0.936617882652631
1.575542232702804,6.012082918001738,-0.022643704920755632,0.6623743671123317,-0.971333014000189
1.5708052268734944,5.874619471652824,-0.022470636310763563,0.6468013124011427,-1.0061800842588595
1.5661025286897254,5.740418882439531,-0.022316965439417708,0.6312995372492682,-1.0410661084912773
1.5614301886370456,5.609466315512009,-0.02218151125277106,0.615867766822367,-1.0758970240087098
1.556784506417729,5.481747193944056,-0.02206308131214842,0.6005048195390937,-1.1105774302513596
1.5521620333243513,5.357247178870452,-0.021960471958115364,0.5852096097333411,-1.145010316506515
1.5475595746090458,5.235952148999754,-0.02187246818765252,0.5699811509399796,-1.1790967757344617
1.542974191909917,5.117848179365215,-0.021797843232623973,0.5548185598651739,-1.2127357026248717
1.5384032057989854,5.002921519162594,-0.02173535782386633,0.5397210611121659,-1.2458234738431329
1.5338441985197626,4.891158568507635,-0.02168375912111232,0.5246879927445998,-1.2782536082463654
1.52929501698718,4.782545853927317,-0.021641779284438258,0.5097188127822373,-1.3099164046527778
1.5247537761282324,4.67707000237764,-0.021608133657919793,0.49481310673849144,-1.340698554536351
1.520218862648436,4.574717713555884,-0.021581518530616017,0.47997059632585687,-1.3704827267935453
1.5156889393171737,4.475475730246867,-0.02156060843378773,0.46519114947430273,-1.3991471214934297
1.511162949874366,4.379330806409989,-0.021544052926286326,0.4504747918293035,-1.4265649892833856
1.5066401246718246,4.286269672676241,-0.02153047281220119,0.4358217199206945,-1.4526041128889893
1.5021199871753157,4.196278998881343,-0.021518455725977895,0.4212323162212022,-1.4771262469335689
1.4976023614680238,4.109345353211946,-0.021506551010136158,0.406707166344498,-1.499986512132422
1.4930873809130434,4.025455157485737,-0.021493263799200496,0.39224707866700637,-1.5210327398214532
1.4885754981520543,3.9445946380226964,-0.021477048210219604,0.37785310669527494,-1.540104762807873
1.4840674966398655,3.8667497714928984,-0.02145629952491301,0.3635265745409047,-1.557033648751049
1.479564503940544,3.7919062250459064,-0.021429345230529234,0.3492691059066265,-1.5716408727950009
1.4750680070409918,3.7200492899377835,-0.02139443476520636,0.3350826570278765,-1.5837374271252025
1.47057986997291,3.651163807774566,-0.021349727787953465,0.3209695540503772,-1.5931228667197772
1.4661023540751876,3.585234088387569,-0.021293280761783398,0.3069325353495856,-1.5995842931090012
1.4616381412773363,3.5222438182490983,-0.021223031598706327,0.29297479930252596,-1.602895281879446
1.457190360842786,3.462175958233278,-0.021136782063675558,0.279100057990987,-1.6028147655829235
1.452762620081712,3.4050126294357774,-0.02103217756560203,0.2653125972233145,-1.5990858925339668
1.4483590396311379,3.3507349857046407,-0.02090668386843632,0.2516173430732397,-1.591434894999649
1.4439842940123486,3.299323071528761,-0.020757560120034588,0.23801993479229802,-1.5795700193743716
1.4396436583229013,3.2507556640214332,-0.020581827398510853,0.2245268033727325,-1.5631805987910037
1.4353430621198187,3.2050100979874827,-0.020376231678464723,0.21114525409347493,-1.5419363891353906
1.4310891518289353,3.1620620735697713,-0.02013719966328414,0.1978835498847221,-1.5154873481671092
1.4268893634164845,3.1218854468795882,-0.019860785217197575,0.18475099002177228,-1.4834641222887937
1.4227520076534628,3.0844520055404523,-0.019542603002057648,0.1717579751128522,-1.4454796274250605
1.4186863712059918,3.049731233529876,-0.019177744116714163,0.1589160440355069,-1.401132284284952
1.4147028381834466,3.0176900735330427,-0.01876066562181112,0.14623786069624872,-1.350011712882202
1.4108130389765485,2.9882927008300335,-0.018285041110550515,0.13373711742764205,-1.2917080280272595
1.4070300367178754,2.961500331283375,-0.017743551829193002,0.12142830682624906,-1.2258263243598484
1.4033685673011984,2.9372710980865016,-0.01712758547249251,0.10932629504874132,-1.1520084930112044
1.3998453578861842,2.9155600480827957,-0.016426789908596202,0.09744560974845536,-1.069965105767385
1.3964795632046756,2.896319327943882,-0.015628397534341972,0.08579934395549145,-0.9795205166367511
1.3932933818920292,2.879498649262029,-0.014716186395623759,0.07439759587169248,-0.8806740175433293
1.3903129513806634,2.8650461281572,-0.013668866093575094,0.06324546226954517,-0.7736776946380949
1.387569678079885,2.852909563262237,-0.01245754629479073,0.05234087006341907,-0.659125554013257
1.385102258513027,2.843038095608346,-0.011041687675284458,0.041673107592689114,-0.5380359742622305
1.3829598447309062,2.835383899678945,-0.00936225310681888,0.031223996496831025,-0.41188980827038446
1.3812073263271025,2.8299029349619857,-0.007328398357977029,0.020975667474225253,-0.28256587276504175
1.3799355847222459,2.826552332016906,-0.0047834264501839105,0.010934836764643786,-0.15211166332429404
1.37929025490478,2.8252755832183425,-0.0013625718113945418,0.0012246756026413706,-0.022341229470953267
