x,y,v_x,v_y,omega
2.375,32.48,0.0,3.128205128205128,-4.6938775510204085
2.3738966700526487,31.861820782370355,-0.011033299473511672,3.0535870480912837,-4.388992749320775
2.370752318695772,31.258254630541344,-0.020410214095256632,2.982074470198822,-4.113758740929918
2.3658743888419806,30.668701253784157,-0.02836908444265897,2.9134592973730546,-3.864437121860358
2.3595263767636943,30.092600036524907,-0.03511103634020446,2.847552875219439,-3.6378472007815286
2.3519346346474017,29.529426393516076,-0.0408063848227202,2.784183554868865,-3.43127117603673
2.343294013821759,28.978688572982442,-0.045599823433703834,2.7231946504674847,-3.242377342082717
2.3337725662397184,28.43992483666611,-0.04961465238670342,2.6644427126958594,-3.0691575342096495
2.323515476904218,27.912700959599462,-0.05295624096830333,2.607796057970585,-2.909875895525695
2.312648365203099,27.396608003149193,-0.05571487604288535,2.5531335065321157,-2.763026704823799
2.301280066038189,26.891260323221758,-0.05796811560621414,2.5003432927422296,-2.6272994984014555
2.2895049803569565,26.396293782092172,-0.05978274120610882,2.449322118553652,-2.501550095682045
2.2774050678664794,25.911364137542723,-0.06121638369866413,2.399974326940827,-2.384776427924539
2.265051541317291,25.436145587191724,-0.06231888179321847,2.3522111765691465,-2.276098293312018
2.252506311027419,24.970329449287746,-0.06313342110550384,2.305950202470652,-2.1747403362656392
2.2398232196958663,24.513622964017273,-0.06369749221002143,2.2611146502340618,-2.0800176857229373
2.2270491005866773,24.065748201655232,-0.06404369888187215,2.2176329733863547,-1.9913237951120033
2.2142246865073942,23.626441065779062,-0.06420044191095547,2.1754383853753545,-1.9081201124198002
2.2013853923934197,23.195450381345836,-0.0641924992287927,2.1344684589569294,-1.8299272770626132
2.188561990534619,22.77253705875803,-0.06404151935920974,2.0946647669211114,-1.7563175950025278
2.1757811943791223,22.357473326164417,-0.06376644219576057,2.0559725590150246,-1.68690858761561
2.163066164292368,21.9500420231949,-0.063383858671785,2.018340470680123,-1.6213574454416817
2.1504369465344726,21.55003595014189,-0.06290831890716671,1.9817202598499788,-1.5593562468674342
2.137910854963932,21.157257267299045,-0.06235259679823834,1.946066568578469,-1.5006278253677712
2.125502803514876,20.77151693977052,-0.06172791769231981,1.9113367067067586,-1.4449221882162289
2.113225596275693,20.39263422358517,-0.06104415469951116,1.877490455146735,-1.3920134054105773
2.1010901809760743,20.02043618940339,-0.06030999829667877,1.8444898866710788,-1.3416969006065056
2.089105870832781,19.654757280499695,-0.05953310313625475,1.8122992023658842,-1.2937870866372214
2.0772805389834716,19.295438902050233,-0.05872021535683536,1.7808845821287234,-1.248115297140345
2.065620789129732,18.94232903905839,-0.05787728318056545,1.750214047789707,-1.2045279732527527
2.0541321054961412,18.595281900519346,-0.057009553155338906,1.7202573376007202,-1.1628850705402949
2.042818984776319,18.254157587660988,-0.05612165404288044,1.6909857909828714,-1.12305865652172
2.0316850523665733,17.918821784307916,-0.0552176700545799,1.6623722425478202,-1.084931673502245
2.020733164872558,17.58914546760134,-0.054301204885570095,1.6343909245179538,-1.0483968450964778
2.0099655006054173,17.26500463747297,-0.05337543778583788,1.607017376765772,-1.0133557079106488
1.9993836395539868,16.946280063418754,-0.052443172728468115,1.5802283637763388,-0.9797177524667835
1.9889886341227436,16.632857047250127,-0.051506881583963264,1.55400179790993,-0.9473996596657237
1.978781071756203,16.324625200618485,-0.05056874208144231,1.5283166684064975,-0.9163246209669473
1.9687611304251917,16.02147823621479,-0.04963067122867265,1.5031529756304367,-0.8864217320647626
1.9589286278253006,15.723313771641301,-0.0486943547702379,1.478491670104442,-0.857625451207201
1.9492931852421147,15.430034968780259,-0.04766007106162118,1.4542963585059805,-0.8269706575823584
1.939862985209467,15.14154842413355,-0.04664192926485484,1.4305690879610966,-0.7977068822347052
1.9306347472242924,14.857762189651112,-0.04564045058689204,1.407293256863291,-0.7697546158871885
1.9216050986511803,14.578587562277036,-0.04465603514422831,1.3844530168774678,-0.7430397548094771
1.9127705974088447,14.303938937595767,-0.043688977279128696,1.362033229935238,-0.7174931749425117
1.9041277517745177,14.033733671786894,-0.042739479064141876,1.3400194281535005,-0.693050344048013
1.8956730376467816,13.767891951327034,-0.04180766221321955,1.3183977764451102,-0.6696509680963931
1.8874029135664325,13.506336669921396,-0.04089357859027179,1.2971550376112784,-0.6472386685217727
1.8793138337591906,13.24899331218786,-0.03999721948214616,1.276278539724087,-0.6257606873384103
1.8714022594327449,12.995789843653014,-0.0391185237823111,1.2557561456243536,-0.605167617435232
1.8636646685331621,12.746656606653051,-0.03825738521351688,1.2355762243752715,-0.5854131556498212
1.8560975641416075,12.501526221762926,-0.037413658702029236,1.2157276245259592,-0.5664538764749724
1.8486974816711683,12.260333494405188,-0.036587166002364356,1.196199649051435,-0.5482490244738399
1.841460995004979,12.02301532631537,-0.035777700659527054,1.1769820318467414,-0.5307603236773996
1.834384721700493,11.789510631564387,-0.03498503238533376,1.1580649156630853,-0.5139518024134656
1.8274653273703307,11.559760256859771,-0.034208910916288214,1.1394388313830695,-0.4977896321725722
1.8206995293374522,11.33370690586742,-0.03344906941249801,1.1210946785404436,-0.482241979254956
1.8140840996511898,11.111295067313634,-0.03270522745012616,1.1030237069973985,-0.4672788680667079
1.8076158675408036,10.89247094664396,-0.03197709365373596,1.0852174996993353,-0.4528720550436749
1.8012917213744801,10.677182401030691,-0.03126436800949881,1.0676679564333427,-0.4389949122804285
1.7951086101839806,10.465378877535123,-0.030566743895497867,1.0503672785223466,-0.4256223200299412
1.7890635448083114,10.257011354243673,-0.02988390986119295,1.0333079543921426,-0.4127305673187118
1.783153598703748,10.05203228420913,-0.02921555118444231,1.0164827459533052,-0.40029725999299204
1.7773759084621794,9.850395542039365,-0.02856135123124217,0.9998846757443446,-0.3883012355754192
1.7717276740750059,9.65205637298628,-0.027920992640491783,0.9835070147864937,-0.37672248436854494
1.766211592472206,9.457153064602181,-0.027239823387508442,0.965526069054491,-0.40179007319533216
1.760827639274911,9.26583489319379,-0.026599708585441233,0.9476556450293999,-0.42849797858890276
1.7555676964820022,9.078080051207944,-0.025999719343646067,0.9298927748290506,-0.45673719010010827
1.75042383697209,8.893867313045934,-0.02543887575547664,0.9122346067910494,-0.4864011254597937
1.7453883341494132,8.713176012237579,-0.024916152471289026,0.8946784012925033,-0.5173853924261598
1.7404536705252855,8.5359860194121,-0.024430483769989002,0.8772215269622823,-0.5495875557775153
1.7356125453319002,8.362277720988335,-0.023980768163863204,0.859861457275365,-0.5829069084794155
1.7308578812586994,8.192031998508657,-0.023565872568146115,0.8425957675214191,-0.6172442460615908
1.7261828303955196,8.025230208542276,-0.023184636063653057,0.8254221321423958,-0.652501643239298
1.7215807794613713,7.861854163084374,-0.0228358732778294,0.808338322436625,-0.6885822318056133
1.717045354392918,7.7018861103777425,-0.02251837740670305,0.7913422046296962,-0.7253899788054647
1.7125704243625022,7.5453087160832375,-0.02223092289745589,0.7744317383153532,-0.7628294639785497
1.7081501052918941,7.392105044724428,-0.02197226780862567,0.7576049752727498,-0.8008056554262628
1.7037787629248027,7.242258541330177,-0.021741155862286962,0.7408600586697635,-0.8392236824168767
1.6994510155185827,7.0957530131966315,-0.021536318199912845,0.7241952226656863,-0.8779886041928404
1.6951617362134956,6.952572611687007,-0.021356474850960223,0.7076087924305776,-0.917005173583509
1.690906055136347,6.812701813983658,-0.02120033592052302,0.6910991846029261,-0.9561775941550642
1.686679361294332,6.676125404702155,-0.021066602499628356,0.6746649082121134,-0.9954092695459371
1.6824773043144814,6.542828457271185,-0.02095396729887854,0.6583045660975857,-1.034602543539687
1.6782957960842806,6.412796314975154,-0.020861115003131134,0.6420168568627136,-1.073658429316933
1.6741310123497952,6.286014571548062,-0.020786722341721495,0.6258005774081862,-1.1124763262023993
1.6699793943290906,6.162469051197487,-0.020729457865324732,0.609654626097554,-1.1509537220812147
1.6658376504008703,6.042145787926092,-0.020687981416879588,0.5935780066163835,-1.1889858794990473
1.6617027579311818,5.925031004004797,-0.02066094328000292,0.5775698325965646,-1.2264655032823375
1.6575719653047867,5.811111087436256,-0.02064698298395117,0.5616293330888446,-1.2632823873167698
1.6534427942324545,5.700372568229387,-0.020644727739368256,0.545755858979854,-1.2993230379035596
1.6493130424111455,5.592802093284899,-0.020652790473722794,0.5299488904650231,-1.3344702708739553
1.6451807866208337,5.488386399667785,-0.020669767429395806,0.5142080457061272,-1.368602779383317
1.6410443863498205,5.387112286014965,-0.02069423528073588,0.49853309082209063,-1.4015946690292909
1.636902488049853,5.288966581794313,-0.020724747718939254,0.48292395138444577,-1.4333149566480212
1.6327540301334384,5.193936114094381,-0.02075983144520646,0.46738072561486665,-1.463627028845115
1.6285982488386057,5.10200767158171,-0.020797981503120934,0.4519036995118335,-1.492388056025594
1.6244346851012534,5.013167965213821,-0.020837655870403385,0.436493364167069,-1.519448357417179
1.6202631925924236,4.927403585240096,-0.02087726921789433,0.421150435570177,-1.544650712360932
1.6160839470976818,4.844700953958878,-0.020915185729524728,0.4058758772419935,-1.5678296130129001
1.61189745743865,4.765046273626346,-0.020949710860792035,0.3906709260833311,-1.5888104536195224
1.6077045781631316,4.688425468830477,-0.020979081894390683,0.37553712187535354,-1.6074086517854567
1.6035065242607422,4.614824122551017,-0.021001457129503718,0.3604763409192417,-1.623428697772472
1.5993048881962983,4.544227405023765,-0.021014903514933892,0.3454908343532874,-1.636663129037262
1.5951016595943637,4.476619994415415,-0.021017382504413876,0.3305832717302002,-1.6468914292032786
1.590899247956611,4.411985988195578,-0.02100673387311354,0.3157567904681677,-1.6538788538572107
1.5867005088508446,4.350308803969455,-0.02098065718454941,0.3010150517930682,-1.6573751905311833
1.582508774079178,4.291571068415589,-0.02093669053211987,0.28636230374559063,-1.6571134678006738
1.5783278864167705,4.235754492870662,-0.02087218609195193,0.27180345170368564,-1.652808639793612
1.5741622396173922,4.182839734038502,-0.020784281901831278,0.25734413661790906,-1.6441562893124932
1.5700168245166506,4.13280623830688,-0.020669869105585367,0.2429908206982993,-1.630831417758885
1.5658972822418686,4.085632068286063,-0.020525553642234157,0.22875087950986597,-1.612487426814284
1.5618099657813116,4.0412937105197315,-0.02034761096333782,0.21463269815346525,-1.588755450734143
1.5577620115104023,3.999765863987701,-0.020131931745753645,0.20064576716684202,-1.559244276881821
1.5537614227767893,3.961021210211964,-0.01987395559037648,0.186800770590537,-1.5235412067797836
1.5498171684049922,3.925030167777763,-0.01956858812759697,0.17310965375145843,-1.4812143758602194
1.545939300152201,3.8917606373064295,-0.01921009440031362,0.15958565096187158,-1.4318172879365734
1.5421390949897422,3.861177747955985,-0.018791957224275135,0.1462432425425797,-1.3748966561243907
1.5384292310295051,3.833243624171363,-0.01830668237809529,0.13309799530364713,-1.31000510339529
1.5348240106681201,3.807917202621553,-0.017745521235756092,0.12016622019445322,-1.236720881108104
1.5313396522360279,3.7851541449719868,-0.01709806308516426,0.10746435630121944,-1.1546774886437092
1.527994683965983,3.7649069125865253,-0.016351619615284925,0.09500796755341168,-1.0636067797090492
1.5248104943646186,3.747125092364616,-0.015490276398358607,0.08281023466567344,-0.9633994007799541
1.5218121256801718,3.731756080772378,-0.014493410446110298,0.07087988125670842,-0.8541852323434338
1.5190294496427545,3.718746225190632,-0.01333334992806193,0.059218674560764926,-0.7364319234653705
1.5164989516713379,3.7080424441310313,-0.011971629786105286,0.047819136035242224,-0.6110485254165173
1.5142665105248974,3.69959412039508,-0.01035278167830026,0.03666410132428058,-0.4794608143483315
1.5123919357718028,3.693354547951035,-0.008392965852645373,0.0257316231161566,-0.34359779486880493
1.5109572355304888,3.6892800892248516,-0.005954036560496058,0.015012964145688068,-0.20571108485452272
1.5100863393505137,3.6873215362357463,-0.002754925239251849,0.004572565745357981,-0.0679707790476787
