x,y,v_x,v_y,omega
2.375,32.48,0.0,2.0,-2.2448979591836737
2.374687068134381,32.08362089819611,-0.003129318656191934,1.9637910180388987,-2.1452131559087784
2.37378234960689,31.694388070274808,-0.005917866618716752,1.9285372611740872,-2.0517883816374676
2.372350606940287,31.31211475590529,-0.00839956004731349,1.8941958825210947,-1.9640963233843833
2.370450184061801,30.936622505362678,-0.010604668737548317,1.8607266229050456,-1.881663136957235
2.3681336923123224,30.567740682410875,-0.012560248757235529,1.8280916066129727,-1.8040622271680655
2.3654486155821557,30.20530600598803,-0.014290518544430884,1.7962551576154464,-1.730908839584703
2.362437845070559,29.84916212685504,-0.015817186571534993,1.7651836337144917,-1.6618553466662085
2.3591401526723947,29.499159235838206,-0.017159737410108244,1.7348452764538418,-1.5965871296744423
2.3555906107335756,29.15515370069869,-0.018335681978084314,1.7052100749412857,-1.5348189731013073
2.3518209648482875,28.81700772900518,-0.019360776874796475,1.6762496419938169,-1.4762919010971216
2.347859965463069,28.484589054682356,-0.020249216977384646,1.6479371012344475,-1.4207703960079239
2.3437336632794414,28.157770646163627,-0.021013804858892444,1.6202469839528295,-1.368039948011545
2.339465672786266,27.83643043429869,-0.02166610007286322,1.5931551346965067,-1.317904892292568
2.3350774076875167,27.520451058359967,-0.022216550914632646,1.5666386246907678,-1.2701864964644483
2.3305882915058462,27.20971962866121,-0.022674610902069566,1.5406756722967456,-1.2247212662358136
2.3260159462249366,26.90412750445025,-0.023048841907026437,1.5152455698128982,-1.1813594417925921
2.3213763614738308,26.603570085868263,-0.023347005604032932,1.4903286160069797,-1.1399636611634316
2.316688261742756,26.30794777723982,-0.023533991706715177,1.465894470277423,-1.0989009946145998
2.3119680872945256,26.01716460366179,-0.023667752775589246,1.4419372655028764,-1.0597256216080477
2.3072259713313827,25.73112688099038,-0.02375340685583602,1.4184399612112346,-1.0223283811539419
2.3024710704069435,25.44974425500854,-0.02379560238855907,1.3953862986071734,-0.9866076198068657
2.297711653837118,25.17292954962156,-0.02379856330969604,1.3727607552626044,-0.9524685933264054
2.2929551845555953,24.90059862379951,-0.023766129505532,1.3505485029579063,-0.9198229224091546
2.288208392291064,24.63267023666208,-0.023701793139779336,1.3287353684163818,-0.8885880970356411
2.283477339846515,24.36906592015057,-0.023608731305712335,1.3073077966987083,-0.8586870245832846
2.2787674831756184,24.109709858776117,-0.02348983540324998,1.2862528170458347,-0.8300476173901314
2.274083725875885,23.854528775973716,-0.023347737594085698,1.2655580109781808,-0.8026024159235419
2.269430468651772,23.603451826628262,-0.023184834647043594,1.245211482476357,-0.7762882441216162
2.264811654242067,23.356410495372206,-0.02300330945000766,1.2252018300842076,-0.7510458938401416
2.2602308082537315,23.113338500284886,-0.022805150433347295,1.2055181207889838,-0.7268198356604162
2.25569107629818,22.874171701651385,-0.022592169122168618,1.1861498655460543,-0.7035579535988121
2.251195257784917,22.638848015464085,-0.02236601601045784,1.1670869963269237,-0.6812113015119943
2.2467458366909896,22.40730733137343,-0.02212819492882074,1.1483198445795832,-0.6597338792163125
2.2423450095922384,22.179491434815525,-0.021880076058690537,1.129839120999493,-0.6390824265395093
2.2379947112134437,21.955343933063787,-0.021622907729255077,1.111635896517885,-0.6192162337005312
2.233696637728652,21.73481018496983,-0.021357827118666305,1.0937015844216933,-0.6000969665715392
2.229452268019975,21.517837234175026,-0.021085869968100548,1.0760279235263137,-0.581688505517447
2.225262883082592,21.30437374558953,-0.020807979405728587,1.0586069623286827,-0.5639567966344874
2.2211295837452742,21.09436994494927,-0.02052501396744935,1.0414310440738703,-0.5468697143221445
2.2170533068593112,20.887777561274525,-0.020237754892182113,1.024492792673588,-0.5303969342238295
2.213034840093947,20.684549772065193,-0.0199469127614626,1.007785099419756,-0.5145098156622525
2.2090748354632073,20.484641151079156,-0.0196531335459282,0.9913011104406069,-0.49918129277672757
2.2051751527187773,20.28818762764666,-0.019343693898373347,0.9732341238843573,-0.5199354755104527
2.201334981968571,20.095336113532976,-0.019058013603691797,0.9552810172524855,-0.5424444591267944
2.197549575503959,19.906064141867294,-0.01879605104242402,0.9374386994043418,-0.5665966624717809
2.193814203686382,19.720349851879696,-0.018557667133345175,0.9197042004716431,-0.5922830305399601
2.1901241736244055,19.538171965090353,-0.018342633486425605,0.9020746674217742,-0.6193967979717598
2.1864748462853694,19.359509762346228,-0.018150639903931967,0.8845473600194652,-0.6478332576547887
2.182861652167595,19.18434306162671,-0.017981301273812002,0.867119647175731,-0.6774895335030141
2.1792801056506534,19.012652196541588,-0.01783416389560413,0.849789003675484,-0.7082643564928558
2.17572581813355,18.84441799544626,-0.017708711275429768,0.8325530072777899,-0.7400578430337553
2.172194510063694,18.679621761099945,-0.017604369423131563,0.8154093361853507,-0.7727712747425229
2.168682021953252,18.51824525079316,-0.01752051168128611,0.7983557668825105,-0.8063068786754876
2.165184324473862,18.36027065687052,-0.017456463112617154,0.781390172343906,-0.8405676070498521
2.1616975277156767,18.20568058757424,-0.01741150446923715,0.764510520618887,-0.875456915455285
2.1582178896923403,18.054458048132346,-0.017384875764124105,0.7477148738000354,-0.9108785385181741
2.154741824169701,17.906586422013586,-0.017375779462268752,0.7310013873875709,-0.9467362619335664
2.1512659078928764,17.762049452268307,-0.01738338330597613,0.714368310065207,-0.9829336897229565
2.1477868872836945,17.620831222871068,-0.017406822785845755,0.6978139839071611,-1.0193740055090188
2.1443016846785143,17.482916139976293,-0.017445203265954997,0.6813368450406112,-1.0559597265202734
2.140807404175049,17.348288912992935,-0.017497601768697874,0.6649354247929989,-1.0925924489485985
2.1373013371560243,17.216934535377703,-0.017563068421551205,0.6486083513593032,-1.1291725831794486
2.1337809675573975,17.08883826503869,-0.017640627564713386,0.6323543520308533,-1.1655990772975373
2.130243976949422,16.96398560423215,-0.01772927851504654,0.6161722560345381,-1.2017691271384745
2.1266882495001167,16.84236227882474,-0.017827995978004368,0.6000609980395352,-1.2375778710082932
2.123111876892797,16.723954216780978,-0.01793573009519478,0.5840196223980976,-1.272918067026905
2.1195131632721917,16.6087475257214,-0.018051406110852083,0.5680472881976696,-1.3076797508673716
2.1158906302975353,16.496728469380248,-0.01817392363571403,0.5521432752138724,-1.3417498714598555
2.1122430223858095,16.387883442772065,-0.018302155481543615,0.5363069908679389,-1.375011902007085
2.108569312234283,16.282198945854446,-0.01843494603372254,0.5205379783082426,-1.4073454234177933
2.104868706718623,16.179661555448227,-0.018571109122880836,0.5048359257539569,-1.438625677007692
2.1011406532714036,16.08025789514684,-0.018709425349308615,0.48920067725990823,-1.4687230830477886
2.097384846855893,15.98397460291228,-0.018848638805798745,0.4736322450856788,-1.497502721463518
2.093601237661768,15.890798296015781,-0.018987453135448744,0.45813082387931175,-1.5248237707154013
2.08979003966316,15.800715532936163,-0.01912452685063483,0.4426968069168721,-1.550538900638578
2.0859517401953314,15.71371277177709,-0.01925846782765287,0.427330804673864,-1.574493614808418
2.0820871107247516,15.629776324705382,-0.019387826878142576,0.4120336660431968,-1.596525537868143
2.078197219008633,15.548892307845374,-0.01951109028304537,0.3968065025568722,-1.6164636432542399
2.0742834428646217,15.471046585988262,-0.019626671157065703,0.38165071601425543,-1.634127416962963
2.070347485799832,15.396224711390094,-0.01973289949083256,0.36656802996741783,-1.6493259535274492
2.0663913947814097,15.32441185583723,-0.01982801069339004,0.3515605255612079,-1.66185698138096
2.0624175804692575,15.255592735054279,-0.01991013242813048,0.33663068226829357,-1.6715058165004164
2.058428840276532,15.18975152441839,-0.019977269499122815,0.3217814240905858,-1.67804424599252
2.054428384676678,15.12687176482861,-0.02002728649941788,0.30701617180719976,-1.6812293475894773
2.0504198672392984,15.066936257466086,-0.020057887874380818,0.29233890181805205,-1.6808022575677577
2.046407418954338,15.009926946080856,-0.020066594975220304,0.27775421203424144,-1.6764869094129506
2.0423956874997335,14.955824785371462,-0.02005071957082826,0.26326739505969043,-1.6679887801079119
2.038389882229247,14.90460959401258,-0.020007333134034584,0.2488845185291224,-1.654993702368636
2.034395825816258,14.856259890977864,-0.019933230995855308,0.234612511818044,-1.6371668326071962
2.0304200137040183,14.810752714068613,-0.019824890126542732,0.22045925727445376,-1.6141519103674427
2.0264696828126922,14.768063420099068,-0.019678418786717618,0.20643368242097784,-1.5855710119351885
2.0225528913857636,14.72816546716508,-0.019489495482568925,0.19254584691889853,-1.5510250979963796
2.018678612500596,14.69103018107215,-0.019253293369109248,0.1788070140104174,-1.5100957955130438
2.01485684474716,14.656626510668904,-0.018964384165244562,0.16522969002205223,-1.462349054911624
2.0110987451044093,14.624920781018105,-0.018616612262264656,0.15182760648595345,-1.4073416076316794
2.0074167914600154,14.595876459713562,-0.018202924181677058,0.1386156065594842,-1.344631541498608
2.003824986092026,14.569453961065271,-0.017715129498215118,0.125609379923413,-1.2737948329990068
2.000339117683141,14.54561052622196,-0.01714355459063595,0.11282496850971123,-1.1944503205660595
1.9969771095576982,14.524300235093886,-0.01647652666379248,0.1002779427710213,-1.1062962862990244
1.993759498182397,14.505474227193169,-0.01569958708922078,0.08798213623615139,-1.00916225607972
1.9907101122724018,14.48908122821538,-0.01479427201072984,0.07594785354172567,-0.903079137048357
1.9878570650629315,14.475068483303929,-0.01373620008397347,0.06417959557279472,-0.7883679388406021
1.985234241190606,14.463383154892142,-0.012492038639281378,0.05267368854506325,-0.6657395799879695
1.9828835804231881,14.453974092202607,-0.011014569034897968,0.041416938350291845,-0.5363826848516718
1.980858714178704,14.446793517560387,-0.009234093409944188,0.03038880807190944,-0.4019925655894597
1.9792312220716832,14.44179740196244,-0.007040827660263073,0.019572347907575286,-0.2646720558621942
1.9781035847455617,14.438941307835556,-0.004235545600952661,0.008988593361253495,-0.12663603035984014
