x,y,v_x,v_y,omega
2.375,32.48,0.0,3.4871794871794872,-3.4693877551020407
2.3742549424924446,31.859760100387774,-0.008278416750614892,3.404374952956318,-3.2438245411064113
2.3721322469238806,31.25411776458571,-0.0153070895667619,3.3249843337332767,-3.0402464201543085
2.3688405918987727,30.662478470591758,-0.021266855156660068,3.2487855995328663,-2.855881224455119
2.3645586534781153,30.084285905211537,-0.026310238406202308,3.175576238025149,-2.6883690871961603
2.3594397640107174,29.519018650686448,-0.03056631123155107,3.1051710344758185,-2.535692884830272
2.3536157784126313,28.96618724227693,-0.03414463985829366,3.037400170074411,-2.3961217181928944
2.3472002952314015,28.42533154454779,-0.03713850659981701,2.972107582471552,-2.2681647512435688
2.3402913500429294,27.89601840315074,-0.03962755104987351,2.909149544162359,-2.150533325850245
2.332973675462988,27.377839536078447,-0.04167994428280562,2.8483934233075687,-2.0421097257107284
2.3253206037703746,26.87040963412005,-0.043354185635119426,2.7897165984523693,-1.9419213099284587
2.317395673684907,26.37336464490576,-0.044700593092304196,2.7330055039286734,-1.8491190041201582
2.3092539913567864,25.886360218731284,-0.04576254388681216,2.6781547868988356,-1.7629593440421782
2.300943386449393,25.409070297483456,-0.04657751063977965,2.625066560299233,-1.682789428148799
2.2925053968354003,24.941185830584615,-0.04717792951569665,2.5736497385768096,-1.608034262043424
2.283976109492074,24.48241360404173,-0.047591929854592645,2.5238194452329985,-1.5381860775282123
2.2753868803786226,24.032475170508757,-0.04784394918375961,2.475496482911147,-1.4727952879796902
2.2667649521754685,23.591105869811326,-0.04795525307350594,2.4286068581714244,-1.411462804686772
2.2581339855817038,23.158053930692816,-0.047944375746102,2.383081354256493,-1.3538334891000081
2.249514517260735,22.733079645659643,-0.04782749448688416,2.338855146112046,-1.2995905563557528
2.2409243553832265,22.315954611764084,-0.04761874859654327,2.295867452727486,-1.248450778039414
2.2323789219519354,21.90646103099057,-0.047330511751135035,2.2540612225338084,-1.2001603585543263
2.223891549634157,21.504391064627942,-0.04697362511307007,2.2133828481620568,-1.1544913809275892
2.215473739617618,21.109546236632276,-0.04655759729291773,2.173781907345364,-1.1112387353991242
2.2071353859993357,20.721736881527175,-0.04609077624355374,2.13521092715575,-1.0702174584826925
2.198884971377571,20.34078163286275,-0.04558049733161282,2.097625169115606,-1.0312604219723447
2.1907297376149586,19.96650694867028,-0.04503321114185606,2.0609824330229927,-0.9942163210827208
2.182675835152159,19.598746670715336,-0.04445459400036097,2.025242877587502,-0.9589479189456902
2.1747284537564,19.237341614674815,-0.04384964373029283,1.990368856196037,-0.9253305113502218
2.1668919371721254,18.882139188648296,-0.04322276276164764,1.956324766320821,-0.8932505811569924
2.159169883788529,18.532993037666948,-0.04257783038942782,1.9230769112497352,-0.8626046164454555
2.1515652351403354,18.189762712087585,-0.041918265701611994,1.8905933729653785,-0.8332980703217763
2.144080353804928,17.852313357959257,-0.041247082469581905,1.8588438951271788,-0.8052444435632872
2.136717092043513,17.52051542762774,-0.040566937101694275,1.8277997752230253,-0.778364474006495
2.129476852350436,17.19424440900268,-0.03988017059916082,1.7974337650554357,-0.7525854188889455
2.1223606409179645,16.873380572054423,-0.03918884531718926,1.767719978814079,-0.7278404183023318
2.1153691148896874,16.557808731235475,-0.038494777219222134,1.7386338080630839,-0.7040679295641414
2.108502624160642,16.247418022636257,-0.03779956421461428,1.7101518430393512,-0.6812112237164942
2.1017612483834656,15.942101694788082,-0.037104611087346556,1.6822517997181523,-0.6592179365537878
2.0951448297548336,15.64175691211944,-0.03641115145300785,1.6549124521556509,-0.6380396675985535
2.088653002083144,15.346284570155543,-0.03572026712132166,1.628113569665443,-0.6176316213151549
2.082285216575097,15.055589121627087,-0.03503290519030961,1.6018358584285117,-0.5979522855965651
2.076040764724073,14.769578412722883,-0.034349893154407694,1.5760609071737566,-0.5789631431996106
2.0699187986357552,14.488163528783243,-0.03367195227134241,1.5507711366000214,-0.5606284123547757
2.0639183490853004,14.21125864878757,-0.03299970940037877,1.525949752240789,-0.5429148132513396
2.058038341564548,13.938780908040915,-0.03233370749687076,1.5015807004998343,-0.5257913575085552
2.052277610546651,13.670650268510986,-0.03167441492420454,1.47764862761049,-0.5092291580982475
2.0466381293549065,13.40679001368801,-0.030986487206290655,1.4541319815336982,-0.4922213347065837
2.0411212783652095,13.147125980382661,-0.0303118571236748,1.4310239440812735,-0.4759239834680186
2.0357246671243456,12.891585833943815,-0.02965048999703473,1.4083110163503498,-0.46029951781564393
2.030445914604545,12.640099618889273,-0.02900231577853063,1.3859802620334292,-0.44531271426914004
2.0252826551231458,12.392599660303052,-0.028367234014789616,1.3640192778134803,-0.4309305400788777
2.020232543421526,12.149020470395275,-0.027745118225430455,1.3424161656062592,-0.41712199512392284
2.0152932590023673,11.909298659904263,-0.027135819765225232,1.3211595065160862,-0.4038579667485044
2.010462509812815,11.673372854043407,-0.026539171229799752,1.3002383363823116,-0.39111109635525443
2.005738035350948,11.441183612716667,-0.02595498945761243,1.2796421228036794,-0.3788556566924488
2.001117609264041,11.212673354746016,-0.025383078174685447,1.2593607435368754,-0.3670674388783443
1.9965990414992427,10.987786285872055,-0.024823230323074104,1.2393844661738065,-0.3557236483000738
1.9921801800603336,10.766468330305543,-0.024275230109248997,1.2197039290096752,-0.34480280860877377
1.9878589124181103,10.548667065622801,-0.02373885480434342,1.2003101230207784,-0.33428467310786536
1.9836331666165137,10.334331660811984,-0.023213876324509396,1.1811943748772171,-0.3241501428987182
1.9795009121118348,10.123412817290106,-0.022700062616364654,1.1623483309214242,-0.3143811912082036
1.9754601603780941,9.915862712722799,-0.022197178869642828,1.1437639420486498,-0.3049607933766887
1.9715089653079296,9.711634947489689,-0.021704988576631355,1.1254334494303324,-0.2958728620335251
1.967645423435015,9.51068449364865,-0.02122325445575278,1.1073493710256663,-0.2871021870306698
1.963867674001076,9.312967646261576,-0.020751739254679016,1.0895044888307037,-0.2786343797442715
1.960173898887958,9.118441976953193,-0.02029020644663172,1.0718918368180168,-0.2704558213893508
1.9565623224328823,8.92706628958247,-0.01983842083198758,1.0545046895233376,-0.2625536150245098
1.953031211142968,8.738800577913885,-0.01939614905595034,1.037336551238709,-0.2549155409523041
1.949578873323266,8.553605985182692,-0.018963160051850492,1.0203811457745482,-0.24753001524682464
1.9462036586309281,8.371444765454974,-0.01853922541856991,1.0036324067556648,-0.2403860511634592
1.9429039575666887,8.192280246689283,-0.01812411973964619,0.9870844684187043,-0.23347322320700054
1.9396816794614002,8.016298479244014,-0.01767897031911443,0.9682685031954072,-0.27559168909360043
1.9365356449689421,7.843694588041124,-0.017276968485974067,0.9495525101700397,-0.3187719670633692
1.9334582187503258,7.67445079887171,-0.016916656165319986,0.9309340361567687,-0.362916782872683
1.9304420288073278,7.508549770613712,-0.016596565423545276,0.9124107222654431,-0.4079300284541581
1.9274799680412549,7.345974578452175,-0.016315220866154206,0.8939803017516399,-0.4537165491277429
1.9245651954067535,7.1867086974563605,-0.01607114173941698,0.8756405982018672,-0.5001819307343265
1.9216911367125706,7.0307359864530525,-0.01586284375150481,0.8573895240571011,-0.5472322857318936
1.9188514851185658,6.878040672134652,-0.015688840626324335,0.8392250794806595,-0.594774037260411
1.9160402013761184,6.728607333339244,-0.015547645400870672,0.8211453515794442,-0.6427137001391667
1.9132515138573338,6.582420885437916,-0.015437771474513834,0.8031485139908762,-0.6909576577085321
1.9104799184171697,6.439466564762107,-0.015357733416197632,0.7852328268514475,-0.7394119333662876
1.9077201781317386,6.299729913000466,-0.015306047533036294,0.7673966371667946,-0.787981955575868
1.9049673229556563,6.16319676149077,-0.015281232201211768,0.7496383796076141,-0.8365723150390977
1.902216649341384,6.029853215327623,-0.015281807957372056,0.7319565777606923,-0.8850865126280559
1.8994637198640918,5.8996856372008715,-0.015306297345872518,0.714349845869886,-0.9334266965583348
1.8967043628966898,5.772680630872845,-0.015353224514149036,0.6968168911081912,-0.9814933871576924
1.8939346723813466,5.64882502419448,-0.015421114545221068,0.6793565164291886,-1.0291851874383864
1.8911510077461295,5.528105851550965,-0.015508492512745761,0.661967624054315,-1.0763984775166082
1.888349994018371,5.410510335616522,-0.015613882240127554,0.6446492196617403,-1.1230270907366267
1.8855285221900813,5.296025868285163,-0.015735804740870187,0.6274004173533351,-1.1689619691486588
1.8826837498952713,5.184639990629396,-0.015872776312571377,0.610220445488523,-1.2140907957563012
1.8798131024644937,5.0763403717215105,-0.016023306251626603,0.5931086534879841,-1.2582976006899058
1.8769142744283707,4.971114786132205,-0.016185894149739453,0.576064519726526,-1.3014623381752617
1.8739852315494974,4.868951089898019,-0.016359026726630768,0.559087660653303,-1.3434604308516003
1.8710242134709802,4.769837194722278,-0.01654117414578235,0.5421778412993526,-1.3841622776496059
1.868029737080224,4.673761040143155,-0.016730785751510664,0.5253349873575539,-1.4234327210706808
1.865000600698549,4.580710563366555,-0.016926285155988617,0.5085591990490997,-1.4611304693176133
1.8619358892210642,4.490673666419983,-0.01712606459384085,0.4918507670239196,-1.4971074683222068
1.8588349803471709,4.403638180235564,-0.01732847844942016,0.47521019058073094,-1.531208218311137
1.8556975520604406,4.319591825215056,-0.017531835847579603,0.4586381985360405,-1.5632690291694307
1.8525235915377443,4.238522167765932,-0.017734392182383044,0.4421357731208832,-1.5931172085357392
1.8493134056917864,4.1604165722244915,-0.017934339439369586,0.42570417733958854,-1.620570176347169
1.8460676335791728,4.085262147498167,-0.0181297951452247,0.4093449862862483,-1.645434499521922
1.8427872609382985,4.013045687664114,-0.018318789753380492,0.39306012298100634,-1.6675048407416078
1.8394736371585063,3.9437536056536153,-0.018499252244309237,0.3768518993578792,-1.6865628160434905
1.8361284950249699,3.877371859031971,-0.018668993683873803,0.36072306310482727,-1.7023757574090952
1.8327539736337957,3.8138858667518605,-0.018825688440284306,0.3446768511186229,-1.7146953791114687
1.8293526449305118,3.753280415616935,-0.018966852707317378,0.3287170503805341,-1.72325635080571
1.8259275443945602,3.695539555046782,-0.01908981991436588,0.31284806706561985,-1.7277747870200728
1.822482206475818,3.640646478593368,-0.019191712516103028,0.2970750046389976,-1.7279466730111868
1.819020705491163,3.588583390539064,-0.01926940953561964,0.28140375151994157,-1.7234462626300726
1.8155477028168554,3.5393313558340758,-0.019319509067795303,0.26584107853547584,-1.7139245074767753
1.8120685013771862,3.492870131650669,-0.019338284706307603,0.25039474572458964,-1.6990076119935862
1.8085891086494,3.44917797901309,-0.01932163449131814,0.2350736169151871,-1.6782958618498047
1.8051163097085419,3.4082314534160574,-0.019265020407103463,0.2198877786073831,-1.6513629512151855
1.801657752271729,3.370005174242962,-0.019163395557485603,0.20484865664922308,-1.6177561502785376
1.7982220463496479,3.33447157440062,-0.019011114687859286,0.1899691193767973,-1.57699782487069
1.7948188821084377,3.301600634297575,-0.018801821325586044,0.1752635484348124,-1.5285890694845032
1.7914591711144474,3.271359608690698,-0.018528300829862312,0.1607478471971446,-1.4720165758010342
1.7881552186610628,3.243712761835816,-0.018182281985521187,0.14643934007931203,-1.4067643708102868
1.7849209390075296,3.218621136893802,-0.017754158609292588,0.13235649260972981,-1.3323327608846414
1.7817721321792002,3.196042400921243,-0.017232583927699642,0.11851835152982597,-1.248267722735906
1.7787268522874395,3.175930827983432,-0.016603859314087602,0.10494357000140869,-1.1542050038570333
1.7758059160698365,3.1582375093313892,-0.01585098754816727,0.09164885946573764,-1.0499339880328362
1.773033631278819,3.142910905755077,-0.014952176796470866,0.07864673582662796,-0.935486003908138
1.7704388754259994,3.1298978662190287,-0.013878443790413772,0.0659425923516666,-0.8112481030056428
1.7680567403254548,3.1191451882165566,-0.012589723993415932,0.05353160767581218,-0.6780925770480687
1.7659311105022093,3.1106016078713914,-0.01102838515375794,0.0413970628260433,-0.5374897789862939
1.7641188767107108,3.10421963894904,-0.00910754586289161,0.029513702977872234,-0.39153651178313365
1.7626974867143712,3.0999556362607947,-0.006685676318657732,0.017864104669308913,-0.2427995289862169
1.7617819856610044,3.097763437059168,-0.0034865576076398576,0.0064936642376383965,-0.09388084458236623
