x,y,v_x,v_y,omega
2.375,32.48,0.0,3.1794871794871797,-4.448979591836735
2.374145065325855,31.9140636582128,-0.009499274157167373,3.1086943959261193,-4.182614466357732
2.371699489381369,31.360628037370898,-0.017673791892675445,3.0405902800950035,-3.9399808656493174
2.3678858647991636,30.819224036448297,-0.024699814576273245,2.9750097301561347,-3.718324078579699
2.3628973474068915,30.28941100916156,-0.030728156448974135,2.911801684140922,-3.515268618952029
2.35690187225206,29.770774380153057,-0.03588823416026528,2.850827527064684,-3.328758669769473
2.3500457046139243,29.262923526909084,-0.04029140626346234,2.7919597312016955,-3.157008990979059
2.342456441490787,28.76548988924143,-0.04403373954917777,2.7350806873277946,-2.9984642576714693
2.334245557019342,28.278125274946156,-0.04719831013354524,2.6800816937307856,-2.851765229274582
2.325510567859916,27.800500335614814,-0.04985712497118333,2.626862076617485,-2.715720482923703
2.316336880711814,27.332303190848943,-0.0520727322299548,2.575328420781069,-2.589282701429879
2.306799373014997,26.873238182568826,-0.053899575512452266,2.525393893442429,-2.4715287066422618
2.296963748948763,26.42302474389836,-0.055385136334595145,2.476977647340537,-2.3616425861312367
2.286887705597121,25.98139636939051,-0.056570900905871906,2.430004291635562,-2.2589013851069004
2.2766219382617434,25.54809967523856,-0.05749318059831874,2.384403421163896,-2.1626629338905663
2.266211009093074,25.122893539678994,-0.058183810164678114,2.340109196164601,-2.0723554597774245
2.2556940992647903,24.705548315095815,-0.05867074348291803,2.297059965870743,-1.9874686951012461
2.2451056616683704,24.29584510443204,-0.05897856314397091,2.2551979303934138,-1.9075462440562416
2.234475988420143,23.89357509544116,-0.05912891739189058,2.2144688361719167,-1.8321790119050403
2.2238317052474312,23.498538947099334,-0.059140895638235345,2.1748217009595168,-1.760999533589228
2.2131962029688275,23.110546223172832,-0.05903135190180914,2.1362085648904956,-1.6936770660075275
2.202590014738612,22.729414868513796,-0.05881518398947592,2.098584264654337,-1.6299133305502562
2.1920311464323308,22.35497072415645,-0.05850557496920079,2.061906228205083,-1.5694388108339459
2.1815353664653596,21.987047077718454,-0.058114202441593356,2.0261342877726305,-1.5120095257248525
2.1711164604230984,21.625484245988268,-0.057651420250193645,1.9912305092294587,-1.4574042102775917
2.160786455111008,21.270129186907702,-0.0571264165508121,1.9571590361101256,-1.4054218476272977
2.1505558159810287,20.92083513844677,-0.056547351560068015,1.923885946789183,-1.3558795035472593
2.14043362133848,20.577461282120574,-0.05592147780158283,1.8913791235018653,-1.3086104226305595
2.130427716264034,20.23987242912128,-0.05525524524782209,1.8596081320458364,-1.2634623511257363
2.120544848785522,19.907938727234978,-0.054554393402306486,1.8285441111353344,-1.2202960565574026
2.110790790493071,19.58153538688829,-0.05382403206937224,1.7981596704945184,-1.1789840185595564
2.101170443499155,19.260542424824827,-0.053068712307475785,1.7684287968773078,-1.1394092689780135
2.0916879353950266,18.94484442404988,-0.052292488849506276,1.7393267672887658,-1.1014643623704568
2.0823467036401695,18.634330308805495,-0.051498975093350205,1.7108300687599323,-1.065050460639639
2.073149570636615,18.328893133448506,-0.05069139161280946,1.6829163240955187,-1.030076517752836
2.0640988105806906,18.028429884203312,-0.049872609008571996,1.6555642230733132,-0.9964585523911635
2.0551962090472284,17.732841292850317,-0.04904518580767501,1.6287534586266268,-0.9641189979876139
2.0464431161423065,17.442031661491043,-0.048211402024790455,1.602464667587547,-0.9329861209956548
2.037840493957527,17.155908697603266,-0.04737328891720477,1.5766793756099515,-0.9029934994168178
2.029388958969386,16.874383358664865,-0.046532655395471856,1.5513799459278477,-0.8740795546358291
2.021088819949546,16.59736970568401,-0.04569111149164215,1.5265495316372,-0.8461871304905809
2.0129401118841264,16.324784765026997,-0.0448500892352427,1.5021720312185167,-0.8192631142626474
2.004942626341123,16.05654839798342,-0.0440108612425685,1.4782320470434696,-0.7932580949298214
1.9970999508468728,15.792584512856468,-0.04312997758243731,1.45470000992265,-0.7667457167713604
1.9894147353809821,15.532819539287534,-0.04226130537190309,1.4315774741766027,-0.7413429061933595
1.9818847447587173,15.277180987296564,-0.04140525709770523,1.4088508812785985,-0.7169908525445308
1.9745076771863184,15.025598756388167,-0.04056216037339463,1.3865072399258045,-0.693634449705139
1.9672811786480804,14.778005036152294,-0.03973226782925035,1.364534096028344,-0.6712220253617814
1.9602028556108295,14.534334212097047,-0.03891576591798021,1.3429195045855193,-0.6497050927162621
1.9532702862300306,14.294522776386355,-0.03811278275756408,1.3216520033110712,-0.6290381225537688
1.9464810302211952,14.058509243179081,-0.037323395118384776,1.3007205878808643,-0.6091783338070152
1.9398326375421007,13.826234068287988,-0.03654763464933345,1.280114688686825,-0.5900855009409554
1.9333226560152625,13.597639572897034,-0.035785493426644215,1.259824148990433,-0.5717217766499413
1.9269486380058998,13.372669871093905,-0.03503692889960985,1.2398392043776683,-0.5540515285082415
1.920708146258035,13.15127080099165,-0.034301868298885714,1.2201504634251474,-0.5370411883478082
1.9145987589802265,12.9333898592289,-0.03358021256565526,1.200748889494297,-0.5206591132559627
1.9086180742625132,12.71897613865249,-0.03287183985338026,1.1816257835769144,-0.5048754571918868
1.9027637138973816,12.507980268999642,-0.03217660864808147,1.162772768121384,-0.4896620523159141
1.8970333266697348,12.300354360409038,-0.03149436054799427,1.1441817717742302,-0.47499229921085473
1.8914245911739112,12.09605194960146,-0.03082492273893657,1.1258450149766333,-0.46084106525107843
1.8859352182096103,11.89502794858116,-0.030168110197739132,1.1077549963600575,-0.44718459044379094
1.8805629528030834,11.69723859571872,-0.02952372765255886,1.0899044798892916,-0.4340004001287242
1.875305575895034,11.502641409085232,-0.02889157132576845,1.0722864827049947,-0.4212672239780793
1.870160905732304,11.311195141915864,-0.02827143048234232,1.0548942636213328,-0.4089649207886775
1.8651267989965155,11.122859740088568,-0.027663088804197586,1.0377213122374906,-0.39707440860348037
1.860201151699349,10.937596301510965,-0.02706632560876267,1.0207613386247871,-0.385577599740452
1.8553818998710312,10.75536703731489,-0.02648091692810278,1.0040082635538288,-0.374457340343624
1.8506670200658135,10.576135234764468,-0.025906636463202928,0.9874562092286316,-0.36369735410458737
1.846059259535759,10.400089481841725,-0.025290702759624844,0.9686077121351749,-0.4027837733831192
1.8415582277720763,10.227427317141323,-0.02472076128129428,0.9498607845359375,-0.4430018604761701
1.837155786238805,10.058130683516808,-0.024195255755053085,0.9312129224031166,-0.4842508429426702
1.8328440772978503,9.892181965698178,-0.02371262136666671,0.9126617200261187,-0.5264312462471014
1.8286155255298995,9.729563972802282,-0.02327128716612021,0.894204867706042,-0.5694446725211383
1.8244628386493957,9.570259921226537,-0.02286967817281136,0.8758401498022284,-0.6131935797596662
1.8203790080661102,9.414253417862337,-0.022506217197027074,0.8575654431333397,-0.6575810604622413
1.8163573091431284,9.261528443563886,-0.022179326391660845,0.8393787157383317,-0.7025106187013078
1.8123913011987631,9.112069336806915,-0.021887428545729667,0.8212780260058092,-0.7478859445601431
1.8084748272980504,8.965860777469867,-0.021628948128854946,0.8032615221836187,-0.7936106848359834
1.8046020138780423,8.822887770667762,-0.02140231209345841,0.7853274422841994,-0.8395882088463833
1.8007672702501243,8.683135630565712,-0.021205950438964224,0.7674741144052538,-0.885721368108789
1.7969652880220388,8.546589964095158,-0.02103829653976451,0.7496999574897643,-0.9319122485836293
1.7931910404822138,8.413236654491186,-0.02089778723606652,0.7320034825543671,-0.9780619140789355
1.7894397819894112,8.28306184456343,-0.020782862683962754,0.7143832944206859,-1.024070139308429
1.7857070474116243,8.156051919606423,-0.020691965958113973,0.6968380939905234,-1.0698351309739216
1.7819886516596397,8.03219348984711,-0.020623542397269372,0.6793666811129478,-1.1152532351053843
1.7782806893627376,7.911473372317996,-0.020576038679423262,0.6619679580994186,-1.1602186287367384
1.7745795347367188,7.793878572033339,-0.020547901609674228,0.6446409339523396,-1.2046229938208124
1.7708818416978702,7.679396262333157,-0.020537576599754845,0.627384729383005,-1.2483551710915477
1.7671845442806615,7.568013764245055,-0.020543505813675297,0.6101985827070094,-1.2913007913640733
1.7634848574220297,7.459718524696704,-0.020564125948901554,0.593081856719099,-1.3333418815226172
1.7597802781811085,7.354498093392099,-0.020597865616888283,0.5760340466654117,-1.3743564421817642
1.7560685874703421,7.252340098141765,-0.02064314228051669,0.5590547894494126,-1.4142179937184403
1.7523478523821907,7.153232218410714,-0.020698358698943608,0.5421438742289371,-1.4527950870616024
1.748616429205267,7.05716215681737,-0.02076189882243027,0.5253012545859972,-1.4899507752971595
1.744872967234881,6.964117608281537,-0.02083212307074745,0.5085270624788008,-1.5255420418032304
1.741116413495841,6.8740862264788944,-0.020907362918585005,0.49182162421722375,-1.559419180285662
1.7373460185101832,6.787055587212819,-0.020985914699834456,0.4751854787391761,-1.5914251217521216
1.7335613432595496,6.70301314826073,-0.021066032529429162,0.45861939850627687,-1.6213947031702525
1.7297622675115312,6.621946205190675,-0.021145920226330158,0.4421244133832416,-1.6491538723394907
1.7259489997018131,6.543841842573713,-0.021223722103872814,0.4257018379163506,-1.6745188234240178
1.7221220885898436,6.468686879937874,-0.02129751247356691,0.40935330248184587,-1.69729505772992
1.7182824369355783,6.396467811719457,-0.021365283684934473,0.3930807888338732,-1.7172763647860996
1.714431317479277,6.3271707403667,-0.02142493249619261,0.3768866706412001,-1.7342437197858482
1.7105703915462647,6.260781301639771,-0.0214742445372761,0.3607737596580303,-1.747964095226776
1.706701730645172,6.197284581030807,-0.021510876585975947,0.3447453582193561,-1.7581891875335345
1.7028278414830034,6.136665020101471,-0.02153233632700921,0.32880531877326596,-1.7646540641179091
1.6989516948857308,6.078906311409106,-0.02153595919823899,0.31295811114189964,-1.7670757435372353
1.6950767591921905,6.023991280576574,-0.02151888184110012,0.29720889810845247,-1.7651517323411439
1.6912070387867697,5.971901753972773,-0.021478011552463393,0.28156361971155835,-1.7585585585818828
1.687347118560223,5.922618410439302,-0.021409990964723367,0.26602908621588933,-1.746950366339132
1.6835022152496577,5.876120615569487,-0.021311156930446645,0.25061307900428714,-1.7299576716800984
1.679678236827102,5.832386237290617,-0.021177492209063602,0.23532445742761807,-1.707186433642175
1.6758818514113853,5.791391442029976,-0.021004567965563013,0.220173267690632,-1.6782176719319906
1.6721205676199737,5.753110471729947,-0.020787474161233194,0.20517084675412492,-1.6426079773651974
1.6684028289376003,5.71751540367373,-0.02052073342069607,0.19032990942606795,-1.59989142759267
1.6647381256925904,5.6845758978707615,-0.02019819152385741,0.1756645994957849,-1.5495836613036804
1.6611371298250355,5.654258941177485,-0.01981287367119721,0.16119047487396287,-1.4911892073812612
1.6576118601785437,5.626528604149804,-0.019356789067600185,0.14692438098914692,-1.4242136445215845
1.6541758901715253,5.601345836802199,-0.018820655454827636,0.1328841450953657,-1.348182809964393
1.6508446164299515,5.5786683440224465,-0.018193497229324954,0.11908799690189478,-1.2626720791995392
1.6476356179593017,5.558450600987104,-0.01746204133345229,0.10555359237970316,-1.1673495967813774
1.644569153369431,5.5406440924536895,-0.01660978744288745,0.09229650243601384,-1.0620378934136514
1.6416688727649946,5.525197881476696,-0.015615552606405752,0.07932806397501865,-0.946797667774138
1.6389628679894637,5.512059616381734,-0.014451167121715748,0.06665265930233573,-0.8220337190917795
1.6364852624175152,5.501177032231176,-0.01307778367771217,0.05426494237053312,-0.688612772906402
1.6342786798161835,5.4924998223760895,-0.011439800781527731,0.04214850046378202,-0.5479624163921105
1.632398233621989,5.485981323671989,-0.009454045820631432,0.030279262915118618,-0.4020899152480478
1.6309185781414168,5.481578522609755,-0.006986570630172951,0.018640748887501613,-0.253433293023537
1.629949452757257,5.479246247112997,-0.003781489193825976,0.007273423298705952,-0.10446574001070824
