x,y,v_x,v_y,omega
2.375,32.48,0.0,2.2564102564102564,-2.4897959183673475
2.3746800607904377,32.07752125151913,-0.0035548801062484587,2.2155758378215737,-2.378247425528838
2.3737552225117184,31.682294278894407,-0.006721100768410076,2.1758349691198036,-2.2738059283521763
2.372291930626018,31.294126694519157,-0.00953769796159324,2.137138190605191,-2.1758655708253936
2.370349985559964,30.912834742252667,-0.012039469439010842,2.09943905680029,-2.0838825742132716
2.367983259891537,30.53824277644654,-0.014257482432396272,2.062693896601096,-1.9973679445654513
2.365240330177793,30.17018278196376,-0.016219514386979886,2.026861597652041,-1.9158811406662226
2.36216503460554,29.80849393110294,-0.017950436415835002,1.991903411912597,-1.839024562527648
2.3587969660415973,29.453022173845323,-0.01947254762796957,1.9577827798387046,-1.7664387428672574
2.355171908705483,29.10361985827177,-0.020805867217744342,1.9244651709785567,-1.6977981424642241
2.3513222255423307,28.760145378365166,-0.021968390150615514,1.8919179390947993,-1.63280746558719
2.347277202402553,28.422462846729886,-0.02297631140246971,1.8601101901861423,-1.5711984244167116
2.3430633543085424,28.090441790033108,-0.023844222975427837,1.8290126620002611,-1.5127268920128765
2.3387046983840616,27.76395686520979,-0.02458528729657972,1.7985976138144,-1.4571703922796015
2.3342229974195243,27.44288759467902,-0.025211390087166934,1.7688387254163473,-1.40432588285475
2.3296379775300355,27.127118118999928,-0.025733275351600193,1.7397110043513706,-1.3540077931553907
2.32496752291956,26.81653696555302,-0.026160664764795075,1.7111907006142355,-1.30604628513048
2.3202278503827922,26.51103683197209,-0.02650236342151131,1.6832552280628137,-1.2602857087825439
2.315433665846937,26.210514383174207,-0.02676635364354361,1.6558830919136314,-1.2165832283497366
2.310598304970921,25.914870060944285,-0.026959878312194922,1.6290538217521797,-1.1748075983003528
2.305733859572983,25.62400790512676,-0.027089514998225837,1.602747909553662,-1.1348380710746022
2.3008512914436614,25.337835385563118,-0.027161241994236536,1.5769467522645595,-1.0965634208887167
2.2959605349152,25.056263243990426,-0.027180497210886865,1.5516325985431585,-1.0598810699569234
2.29107058939648,24.77920534518463,-0.027152230774894585,1.5267884992990304,-1.0246963052397313
2.2861896029413074,24.50657853669398,-0.027080952060356593,1.5023982617081995,-0.9909215753359487
2.281324947794498,24.23830251656306,-0.02697077179308169,1.478446406413123,-0.9584758584374217
2.2764831197633266,23.9743006987147,-0.026827317442152696,1.4549071252352865,-0.9264033324773936
2.2716694273409916,23.714499062294053,-0.026658153917125154,1.4317777238830425,-0.8956799002338388
2.266888254816947,23.45882505162831,-0.026465985238931553,1.4090446168474156,-0.866233719718675
2.26214352168568,23.207208505164544,-0.02625327177514152,1.386694788305529,-0.8379974937939572
2.2574387244961547,22.95958155565119,-0.026022252552918762,1.364715761842889,-0.8109081366433185
2.2527769748798674,22.71587853559675,-0.025774965405830706,1.3430955720953066,-0.7849064679995609
2.248161034127173,22.47603588767305,-0.025513265179661345,1.3218227381680292,-0.7599369325491847
2.2435933446432474,22.23999207975477,-0.025238840197287907,1.300886238701778,-0.7359473421989956
2.239076058581039,22.007687524309638,-0.02495322716058442,1.2802754884663512,-0.7128886391246723
2.234611063918282,21.779064501874153,-0.02465782464782946,1.259980316372353,-0.6907146777299279
2.230200008218667,21.55406708836859,-0.02435390534789162,1.2399909448006021,-0.669382023830758
2.2258443202932034,21.332641086022413,-0.024042627157259508,1.2202979701569046,-0.6488497695449683
2.2215452299563228,21.114733957697236,-0.023725043252525932,1.2008923445672894,-0.6290793625150863
2.217303786052084,20.900294764408983,-0.023402111239013975,1.181765358635521,-0.6100344482249401
2.2131208729086636,20.689274105864612,-0.023074701465658817,1.1629086251908367,-0.5916807242884692
2.2089972253639356,20.481624063841085,-0.022743604586871337,1.1443140639594382,-0.5739858056952777
2.2049334424911784,20.277298148245883,-0.022409538443765652,1.1259738870983602,-0.5569191000924594
2.2009300001415655,20.07625124570888,-0.022073154329709372,1.1078805855349951,-0.5404516922675318
2.196987262409023,19.878439570565348,-0.021735042698544187,1.0900269160598095,-0.5245562370739874
2.19310549211304,19.683820618098835,-0.021395738367930975,1.072405889123682,-0.5092068601099562
2.189284860386075,19.492353119921166,-0.021055725265014695,1.0550107572948648,-0.494379065522604
2.185525455444102,19.303997001374583,-0.020715440756907656,1.0378350043338418,-0.48004965036690944
2.181827290611594,19.118713340848274,-0.020375279604290884,1.0208723348473645,-0.4661966249980156
2.178190311665667,18.936464330908297,-0.020035597572676474,1.0041166644857096,-0.45279913902202323
2.1746144035582002,18.757213241146108,-0.019696714732509415,0.9875621106497365,-0.4398374123713851
2.1711009940010397,18.581150243651194,-0.0193411692359436,0.9686934170715121,-0.47672353446403115
2.167648431880927,18.408474362684828,-0.01902063209864329,0.9499274825547974,-0.5147804204438569
2.1642505086278963,18.239167330582983,-0.018734070712804033,0.9312617630212626,-0.5539065765002491
2.160901204622519,18.073211328614825,-0.018480418235832675,0.9126938144027165,-0.5940018019166373
2.1575946950216127,17.91058896919271,-0.01825857732979255,0.89422129028745,-0.634966970482894
2.1543253549445796,17.751283278474162,-0.01806742352613037,0.8758419399186717,-0.6767038121068032
2.1510877640859727,17.595277679292188,-0.017905808236168427,0.857553606547667,-0.7191146936631825
2.147876710816454,17.442555974349652,-0.017772561425156576,0.839354226147191,-0.76210239808762
2.1446871958313363,17.293102329611976,-0.017666493965034016,0.8212418264936779,-0.8055699006818667
2.1415144354034252,17.146901257830827,-0.017586399678425384,0.803214526630185,-0.8494201415491053
2.138353864294828,17.003937602128804,-0.01753105708376348,0.7852705367256203,-0.8935557930188927
2.135201138380901,16.864196519572015,-0.01749923084876421,0.7674081583498041,-0.9378790208527534
2.1320521370384045,16.72766346465358,-0.017489672956748897,0.7496257851883446,-0.9822912379412587
2.1289029653494236,16.594324172606267,-0.01750112358748355,0.7319219042262531,-1.0266928491109557
2.1257499561725375,16.464164642456776,-0.017532311711249783,0.7142950974347698,-1.070982985553577
2.122589672133268,16.337171119727454,-0.01758195539174101,0.6967440440021206,-1.115059227269336
2.1194189075869074,16.21333007868322,-0.017648761790048755,0.6792675231560102,-1.1588173117794627
2.116234690608545,16.092628204012147,-0.017731426858422744,0.6618644176336955,-1.2021508272090897
2.1130342850675126,15.975052371817295,-0.017828634708603932,0.6445337178646586,-1.2449508876687154
2.1098151928465625,15.860589629784752,-0.01793905663528542,0.62727452694138,-1.2871057886693773
2.1065751562700337,15.749227176378113,-0.01806134977058914,0.6100860664657141,-1.3285006400921198
2.1033121608100553,15.640952338892706,-0.0181941553402842,0.5929676833721442,-1.369016973995337
2.1000244381456232,15.535752550183162,-0.01833609648673522,0.5759188578450002,-1.4085323242836578
2.0967104696562724,15.433615323855271,-0.018485775617163316,0.5589392124648872,-1.4469197749795144
2.093368990440152,15.334528227686793,-0.018641771228623233,0.5420285227404377,-1.4840474735350073
2.0899989939558035,15.238478855011664,-0.018802634153026,0.5251867292054332,-1.5197781053006367
2.0865997373979526,15.145454793767186,-0.018966883156426747,0.5084139512887708,-1.5539683249353093
2.0831707479303905,15.05544359286355,-0.0191329998164871,0.49171050319606346,-1.5864681402093563
2.0797118299137782,14.968432725488949,-0.019299422590315328,0.47507691207728353,-1.6171202433359098
2.0762230732832103,14.884409548910433,-0.019464539971549254,0.4585139387950987,-1.6457592846916886
2.072704863249945,14.803361260270048,-0.01962668262028622,0.4420226016536181,-1.6722110835948618
2.069157891524247,14.725274847806485,-0.019784114331913762,0.42560420349707523,-1.6962917707528526
2.065583169282223,14.65013703685397,-0.019935021690576458,0.40926036264200133,-1.7178068571616345
2.0619820421294355,14.577934229881485,-0.020077502229286916,0.39299304816338226,-1.7365502247544684
2.05835620734864,14.508652439736647,-0.020209550890661197,0.37680462011261256,-1.752303035143347
2.0547077337591015,14.442277215149666,-0.020329044548655174,0.3606978752982709,-1.7648325546343104
2.051039084561767,14.378793557435618,-0.020433724310614788,0.34467609930227117,-1.7738908967117863
2.04735314359973,14.318185827210481,-0.02052117526757814,0.32874312542146256,-1.7792136879349616
2.0436532455291276,14.260437639814679,-0.020588803294668258,0.3129034011985596,-1.780518670482813
2.0399432104752,14.205531748027322,-0.020633808415640154,0.2971620631053862,-1.7775042656067581
2.036227383846535,14.153449910573258,-0.020653154125082455,0.2815250197175666,-1.7698481387261125
2.032510682105137,14.10417274490181,-0.02064353189044948,0.2659990432985257,-1.7572058313489662
2.028798645452577,14.057679562796928,-0.02060131980466516,0.2505918689779483,-1.7392095610911367
2.025097498611939,14.013948187634583,-0.020522533980196513,0.23531229949255014,-1.7154673441418031
2.0214142211918684,13.972954752645713,-0.0204027706872587,0.22017031149490068,-1.6855626723242376
2.0177566295621956,13.934673480540251,-0.020237136309104457,0.20517715634357322,-1.6490550905231784
2.014133472831913,13.899076446553774,-0.02002016069403848,0.1903454435061599,-1.6054821853462926
2.010554546534437,13.866133329767408,-0.019745687055687473,0.17568918745345705,-1.5543637338519094
2.007030829216258,13.835811161961335,-0.019406727590746183,0.16122378816958752,-1.4952090996381857
2.00357464966543,13.80807409003009,-0.01899526741846139,0.14696589995536571,-1.4275294342477285
2.0001998966230996,13.782883178046703,-0.018501988607429996,0.1329331220822798,-1.350856870920791
1.9969222895099294,13.760196289401978,-0.017915868205571717,0.11914341841465875,-1.2647736783985328
1.9937597396221258,13.739968108621476,-0.01722357499224557,0.10561414581316378,-1.1689551670226335
1.990732849056686,13.722150385307447,-0.016408542401529114,0.0923605576760409,-1.063230650254703
1.987865623512866,13.706692503330352,-0.015449519196473176,0.07939368651388956,-0.9476660669752065
1.9851865219120763,13.693542480528464,-0.014318276367856653,0.06671767795154965,-0.8226680869254731
1.9827300430767867,13.682648450921786,-0.012975932913138434,0.0543270954559805,-0.6890994531068888
1.980539188363499,13.673960502281272,-0.011366897234502113,0.04220566721640322,-0.5483753218714502
1.9786694428506855,13.667432316059081,-0.009408052907870671,0.030329735252378223,-0.4024809276354232
1.9771958225965847,13.66302113313083,-0.006965505471026616,0.01868340839484172,-0.2538255859071017
1.9762284313190963,13.66068194651718,-0.003783286501067564,0.007307553979040102,-0.10485688808325216
