x,y,v_x,v_y,omega
2.375,32.48,0.0,3.641025641025641,-5.795918367346939
2.373394087269655,31.76156438910436,-0.016059127303449713,3.5433304679307014,-5.363212177492673
2.368850126224982,31.06219368543633,-0.029380483143281254,3.450376568749619,-4.979348509128688
2.361870630018908,30.380976315519455,-0.040414478917458196,3.3617971304191525,-4.637243865044667
2.352876062635668,29.717070088662023,-0.049531194914941463,3.2772651381551365,-4.3310247017835675
2.342219328704817,29.069694818501706,-0.05703614439356905,3.1964875634480485,-4.05579255217076
2.330197451032493,28.43812599748268,-0.06318263232967015,3.119200646742215,-3.8074400281973215
2.3170610360526913,27.8216893305336,-0.06818151746834666,3.045166022748566,-3.582505537101639
2.3030219867525927,27.21975597789646,-0.07220897553263815,2.9741675036228017,-3.378057731829185
2.288259818113898,26.631738389280628,-0.07541271085430973,2.9060083825355614,-3.1916029952716096
2.2729268515761,26.057086635637116,-0.07791695452367295,2.8405091538995544,-3.021010907174087
2.2571525054229884,25.495285163154385,-0.07982650700744189,2.7775055709277785,-2.8644538510876947
2.2410468523552063,24.945849908151963,-0.08123002367037649,2.7168469790964025,-2.7203578136462907
2.224703580288331,24.408325722504095,-0.08220269699837789,2.658394877382308,-2.5873620975924414
2.208202465034864,23.882284067851348,-0.08280845553629203,2.6020216691451425,-2.4642861747617757
2.1916114421037367,23.367320943723485,-0.08310177377498022,2.5476095721334664,-2.3501022891326846
2.174988347985605,22.863055020215057,-0.08312916740633772,2.4950496629508203,-2.2439127142003605
2.1583823879420208,22.369125950332723,-0.0829304330295061,2.4442410358725266,-2.1449307958877624
2.1418353766941065,21.885192840797195,-0.0825396794496341,2.3950900594827726,-2.0524650884451723
2.1253827899133695,21.41093286310491,-0.08198618835773729,2.3475097174400608,-1.9659060284744743
2.109054657595999,20.946039989165833,-0.0812951348159684,2.301419021950706,-1.8847147003886227
2.0928763248998883,20.49022383793444,-0.08048819214513858,2.2567424903632363,-1.8084133320600788
2.076869101567546,20.043208621219364,-0.07958404117828576,2.2134096767875446,-1.7365772272416278
2.061050817435283,19.604732178354187,-0.07859880014434631,2.171354751864199,-1.6688278954477207
2.0454362985729313,19.174545090686067,-0.07754638847916688,2.1305161248169937,-1.6048271833379109
2.030037776177761,18.752409867928534,-0.07643883547253626,2.0908361027583267,-1.5442722465331957
2.014865238357544,18.33810019936115,-0.07528654272963343,2.0522605829155274,-1.4868912289900391
1.9999267332986097,17.93140026366632,-0.07409850785970858,2.0147387740327907,-1.4324395399307541
1.985228630959575,17.5321040918932,-0.07288251553064064,1.9782229436983858,-1.3806966369572542
1.970775849307754,17.140014978646704,-0.07164530098756718,1.9426681887665642,-1.3314632392014203
1.9565720501808495,16.754944937129935,-0.07039269028147983,1.9080322264011333,-1.2845589068545684
1.9426198090773654,16.376714194132475,-0.06912972075336014,1.8742752035734602,-1.2398199336974562
1.9289207625278,16.005150721464105,-0.06786074474229487,1.8413595231102282,-1.1970975077397639
1.9154757361526669,15.640089800691829,-0.06658951900903645,1.8092496846125268,-1.1562561021083821
1.9022848560546435,15.281373618354227,-0.0653192819711964,1.7779121387634855,-1.1171720641650604
1.8893476458057425,14.92885088910674,-0.06405282051781416,1.7473151537113571,-1.0797323757015125
1.8766631109642178,14.582376504499347,-0.06279252789743253,1.7174286923625925,-1.0438335611278535
1.8642298127799437,14.241811205308263,-0.06154045394530896,1.6882242995482601,-1.0093807239790906
1.852045932513002,13.907021275539453,-0.06029834872410757,1.6596749981398504,-0.9762866949287459
1.8401093275914002,13.577878256396534,-0.05906770049191064,1.6317551932893344,-0.9444712769118172
1.8284175806645684,13.254258678662076,-0.05784976877640652,1.6044405840552327,-0.9138605749974192
1.8169680424648935,12.936043812081252,-0.05664561322034382,1.5777080817530076,-0.8843864003771332
1.805757869266134,12.623119430462381,-0.055456118767251913,1.5515357344356984,-0.85598573929972
1.7947840556218986,12.315375591321757,-0.05428201767510052,1.525902656970545,-0.8286002790288319
1.7840434629767286,12.012706429001664,-0.05312390877660014,1.5007889662303853,-0.802175983962736
1.7735328446644447,11.715009960282053,-0.051982274346239705,1.4761757209657294,-0.7766627159629091
1.7632598283260406,11.422189666380824,-0.05074788903780222,1.4520272180465794,-0.7489498349128443
1.7532308037798674,11.134152444211956,-0.049542356423928874,1.4283450036421028,-0.7224905949101477
1.7434400375615806,10.850806687686386,-0.04836530575893876,1.40511256161359,-0.6972135412371353
1.7338818754550833,10.572064019150702,-0.04721631530603424,1.382314123743273,-0.6730520643158701
1.7245507517721999,10.29783914406234,-0.04609492152279882,1.3599346271403516,-0.649944018925982
1.715441196917295,10.028049713895065,-0.04500062702625127,1.337959674532419,-0.6278313773415564
1.706547843465326,9.762616196720305,-0.04393290749343708,1.316375497215194,-0.6066599130172124
1.6978654309526644,9.501461754953407,-0.04289121763317989,1.2951689204538006,-0.5863789118221752
1.689388809554644,9.244512129793314,-0.04187499634702324,1.2743273311471293,-0.566940908145859
1.6811129428017244,8.991695531920271,-0.04088367118217351,1.2538386475832894,-0.5483014434848986
1.6730329094668996,8.74294253804904,-0.03991666216607261,1.23369129112903,-0.5304188453745631
1.6651439047402126,8.498185992965194,-0.03897338510079883,1.213874159709421,-0.5132540247512869
1.6574412407915755,8.257360916699628,-0.03805325438557235,1.194376602946233,-0.4967702900312996
1.649920346810316,8.020404416521561,-0.03715568542702104,1.1751883988344385,-0.4809331763661759
1.6425767685986776,7.787255603453495,-0.03628009668936286,1.1562997318462147,-0.46571028869230985
1.635406167786728,7.557855513032788,-0.035425911430133364,1.1377011723608754,-0.4510711573302114
1.628404320727575,7.332147030063965,-0.03459255916139673,1.1193836573273626,-0.4369871050132037
1.6215671171242936,7.110074817123888,-0.03377947687141725,1.101338472073399,-0.4234311243353655
1.6148905584334083,6.8915852465983285,-0.032986110037435845,1.0835572331822059,-0.41037776470699067
1.6083707560840235,6.6766263360437215,-0.03221191345641198,1.0660318723638775,-0.3978030279938013
1.6020039295466542,6.465147686681917,-0.03145635191728193,1.0487546212541665,-0.3856842720948532
1.595786404281387,6.257100424848641,-0.03071890073538926,1.0317179970785864,-0.37400012178457237
1.5897146095911272,6.0524371462283355,-0.029999046167207662,1.0149147891244654,-0.36273038620757864
1.5837850764022812,5.851111862719101,-0.02929628572125507,0.998338045967893,-0.35185598247170663
1.5780004743164908,5.653251469442377,-0.028549735136647506,0.9802658867993501,-0.37565510405225827
1.5723608752655636,5.458994213011568,-0.027846255372625212,0.9623066775087434,-0.4011835933531325
1.56685775955531,5.268317809792123,-0.02718490172991174,0.9444573546856918,-0.42833025550761133
1.5614828017225708,5.081200576845443,-0.026564676597477185,0.926714974781091,-0.45698652905418324
1.5562278805325827,4.897621408407893,-0.02598453530240417,0.909076709594398,-0.48704624221939236
1.5510850878587075,4.717559753232003,-0.025443391436348085,0.8915398421645262,-0.5184053752056319
1.5460467365455077,4.540995592710381,-0.024940121695651723,0.8741017630517004,-0.5509618274972831
1.5411053673490662,4.367909419705189,-0.02447357026876257,0.856759967000226,-0.5846151892112765
1.5362537550420523,4.198282218007694,-0.024042552801375672,0.8395120499747348,-0.6192665155236908
1.5314849137652486,4.032095442353707,-0.023645859966660403,0.8223557065651244,-0.6548181032022979
1.5267921017020827,3.869330998921381,-0.0232822606650003,0.8052887277581294,-0.6911732682658337
1.5221688251480971,3.70997122623794,-0.022950504874856524,0.7883089990762955,-0.7282361237739514
1.517608842043248,3.553998876421499,-0.022649326173632803,0.7714144990880976,-0.7659113567269545
1.51310616503141,3.401397096683077,-0.0223774439447482,0.7546032982961144,-0.8041040030210697
1.5086550641084862,3.252149411012109,-0.022133565284488163,0.7378735584135623,-0.8427192193626859
1.5042500689180796,3.106239701966434,-0.02191638661957834,0.7212235320431809,-0.881662050993021
1.4998859707517438,2.963652192484467,-0.021724595043781953,0.7046515627764965,-0.9208371940123661
1.4955578243094523,2.824371427633224,-0.021556869379131857,0.6881560857359368,-0.9601487510195821
1.491260949275075,2.68838225620091,-0.021411880964641673,0.6717356285872165,-0.999499978696943
1.4869909317613643,2.555669812036694,-0.021288294172464094,0.6553888130549408,-1.0387930258717348
1.4827436256792736,2.4262194950331413,-0.021184766648442363,0.639114356980586,-1.077928660473096
1.47851515408735,2.3000169516381774,-0.02109994927079415,0.6229110769690366,-1.1168059836742594
1.4743019105785473,2.1770480547734934,-0.02103248581723215,0.606777891677817,-1.1553221293653901
1.4701005607641129,2.0572988830244903,-0.020981012327114863,0.5907138258122143,-1.1933719469393889
1.4659080439172834,1.9407556989532857,-0.02094415614118067,0.5747180148998178,-1.2308476651912128
1.4617215748434664,1.8274049263703205,-0.020920534596988435,0.5587897109298215,-1.267638534929482
1.4575386460484374,1.7172331263817426,-0.020908753353301005,0.5429282889559639,-1.3036304476768052
1.4533570302819845,1.6102269720083981,-0.020907404311227402,0.5271332547774916,-1.3387055275923458
1.449174783541472,1.5063732211476157,-0.02091506309389825,0.5114042538303224,-1.3727416934875887
1.4449902486281134,1.4056586876204875,-0.02093028603968702,0.49574108144096923,-1.4056121875264278
1.4408020593585056,1.3080702100144777,-0.020951606656391737,0.4801436946191298,-1.4371850669080868
1.436609145545344,1.2135946179934152,-0.020977531475223424,0.4646122255915056,-1.4673226545337485
1.4324107388744467,1.122218695703289,-0.021006535233749693,0.44914699730975577,-1.4958809443674863
1.4282063798204794,1.0339291418523295,-0.02103705530592427,0.43374854119983985,-1.5227089569383663
1.4239959257614108,0.9487125259864868,-0.021067485284762297,0.4184176174585893,-1.5476480402224868
1.4197795604720538,0.8665552404160053,-0.0210961676088048,0.40315523824622346,-1.5705311110345017
1.4155578052004856,0.7874434471743399,-0.02112138510687685,0.3879626941704144,-1.5911818321116509
1.4113315315581698,0.711363019306539,-0.021141351316281767,0.37284158450758886,-1.6094137203829095
1.4071019764858614,0.6382994756899087,-0.02115419940680106,0.3577938516587254,-1.6250291826177081
1.40287075959361,0.5682379084853508,-0.021157969515713373,0.3428218203868413,-1.637818475940722
1.3986399032154302,0.5011629022040367,-0.021150594266086144,0.32792824242631746,-1.6475585928688845
1.3944118555688507,0.4370584432532638,-0.02112988219970594,0.3131163470813815,-1.654012073991274
1.3901895174684857,0.37590781870229506,-0.021093498803944462,0.2983898984283148,-1.6569257567778402
1.3859762731137382,0.3176935028913661,-0.021038944743533163,0.28375325968094045,-1.65602947714997
1.3817760255578242,0.26239703040958773,-0.020963530815605397,0.2692114651368339,-1.6510347526564155
1.3775932375746058,0.20999885391204032,-0.020864349016579204,0.25477029983861743,-1.6416334942386537
1.3734329787807846,0.16047818527037094,-0.020738238921632766,0.24043638657804833,-1.627496820358483
1.3693009800588614,0.1138128187110965,-0.02058174829760074,0.22621727901472202,-1.6082740866510938
1.3652036965848922,0.0699789349809663,-0.020391086442090953,0.2121215582865991,-1.5835923019896023
1.3611483811333884,0.028950886324913938,-0.020162068072945977,0.19815892827394171,-1.5530561861507948
1.3571431698731578,-0.009299036625307622,-0.01989004452936048,0.18434030122829292,-1.5162492468780853
1.3531971836868288,-0.044800852768631216,-0.01956981733392788,0.1706778602049475,-1.4727364313263496
1.34932064931545,-0.0775871464730642,-0.019195526379860692,0.15718507683935687,-1.4220691603423528
1.345525046632659,-0.10769331930528381,-0.0187605004480503,0.143876651482873,-1.363793910491571
1.3418232915606527,-0.13515781710624708,-0.018257050272011428,0.13076832652679438,-1.2974659955864996
1.3382299693247481,-0.16002229999951822,-0.01767617208703392,0.11787650240595078,-1.222670830407331
1.3347616411604863,-0.1823317063273322,-0.017007109555584383,0.10521756087218816,-1.1390556965461367
1.331437261249138,-0.20213414030601484,-0.016236689557898008,0.09280677891464602,-1.0463756970467342
1.3282787627359973,-0.2194804901592775,-0.015348295573509146,0.08065671961800154,-0.9445576857945013
1.3253119071684898,-0.23442366819899263,-0.014320260101566161,0.06877506077913542,-0.8337843517520113
1.3225675488954076,-0.24701738060276313,-0.013123322629255613,0.05716206325859026,-0.7145951426559651
1.3200835618879712,-0.25731443189800984,-0.011716547445109396,0.04580844969386085,-0.5879880913964843
1.3179078593904632,-0.2653648356955358,-0.010040477529970695,0.03469558828140181,-0.45548448991157475
1.3161033874563235,-0.2712145905282597,-0.008004241811425838,0.023801960045823883,-0.3190912555052364
1.31475751897897,-0.27490730386737994,-0.005454442962108862,0.01312517334538234,-0.18108249215371017
1.3140063353696168,-0.27649581128816436,-0.0020573931314223997,0.0027599008624514167,-0.043558651757941186
