x,y,v_x,v_y,omega
2.375,32.48,0.0,3.4871794871794872,-7.877551020408164
2.3729410515007956,31.791668644817918,-0.02058948499204329,3.39613406464131,-7.311685334059316
2.3671009637298885,31.1211121820678,-0.037811392717026084,3.3094305628598573,-6.807232238796093
2.358099958852902,30.46749647013732,-0.052198656052840194,3.2267265564449543,-6.3555768052723955
2.346460893103366,29.830051903506053,-0.06419200144252131,3.1477191098676984,-5.949538275849685
2.3326259197697286,29.208066144089656,-0.07415773189385397,3.072138484296264,-5.5830960415934605
2.31696997962666,28.600877982467324,-0.08240166953682919,2.999743131927048,-5.2511747446145085
2.2998117939485754,28.00787210292555,-0.08918018724401787,2.930315663490721,-4.9494742415902
2.2814228744857346,27.428474580438866,-0.09470900738439048,2.863659561376109,-4.674333980796021
2.262034946766483,26.862148977163024,-0.0991702698081259,2.799596471382316,-4.422624038567431
2.241846095205225,26.308392935127873,-0.10271824580445507,2.737963948969195,-4.191656991702651
2.221025872220144,25.766735183571278,-0.1054839840463523,2.678613566596757,-3.9791162053988383
2.199719563022812,25.236732895808288,-0.10757910792697128,2.621409311033133,-3.7829971489010084
2.1780517588138455,24.71796934311785,-0.10909893416268994,2.5662262158712545,-3.601559119651621
2.156129360869217,24.210051802866943,-0.11012504528359213,2.512949186637791,-3.4332853347762566
2.134044114308596,23.71260968570437,-0.11072742032262006,2.46147198498796,-3.2768497875755216
2.111874751646062,23.225292852667064,-0.11096620630272065,2.4116963453850793,-3.131089602713427
2.08968881138274,22.747770097833573,-0.11089319633050185,2.3635312029498414,-2.9949818831189985
2.067544185047508,22.27972777601361,-0.11055306702181997,2.3168920152498003,-2.8676242432103556
2.045490436573253,21.820868558090005,-0.1099844177207263,2.271700163986227,-2.748218380814622
2.0235699302141317,21.370910299187067,-0.10922064587048741,2.2278824250431306,-2.6360561643905522
2.0018187969808663,20.929585006947427,-0.10829068646216747,2.185370497353292,-2.530507810557326
1.9802677644994955,20.496637898949267,-0.10721963835153905,2.144100582628293,-2.4310118052882346
1.95894287105267,20.07182653975812,-0.10602929611671544,2.104013009283189,-2.3370662848409633
1.9378660811599329,19.654920049336894,-0.10473860281065718,2.065051894929097,-2.248221642929671
1.9170558172510903,19.24569837557801,-0.10336403627776676,2.0271648426597366,-2.164074171385491
1.8965274196710535,18.843951624606024,-0.10191993952260285,1.9903026670601105,-2.084260574604769
1.8762935453347795,18.449479443255285,-0.10041880384013697,1.9544191464472875,-2.0084532250081253
1.856364513754618,18.062090448776743,-0.09887151196147842,1.9194707983381427,-1.9363560487495317
1.836748607831081,17.68160170138839,-0.09728754727389198,1.8854166755453512,-1.8677009489840002
1.8174523356847427,17.307838215769316,-0.09567517418949058,1.8522181806453968,-1.8022446888849504
1.798480658873435,16.94063250801954,-0.09404159392358587,1.819838896852369,-1.7397661689014157
1.7798371915541127,16.579824174976498,-0.09239307926963844,1.7882444335780587,-1.6800640429423388
1.7615243744873865,16.22525950310172,-0.09073509139762234,1.7574022851697104,-1.622954626655941
1.7435436272240343,15.876791104434979,-0.08907238123590075,1.727281701497725,-1.5682700580466078
1.7258954813397627,15.53427757736306,-0.08740907760681614,1.697853569221458,-1.5158566765902135
1.708579697183114,15.197583190171311,-0.08574876395967038,1.6690903026960218,-1.465573591974047
1.6915953662600818,14.866577585541716,-0.08409454527065195,1.640965743599918,-1.4172914177643205
1.6749410010881554,14.541135504335216,-0.08244910644861199,1.6134550684650857,-1.3708911488270257
1.658614614104187,14.221136527150726,-0.08081476339106985,1.5865347033798078,-1.3262631643065983
1.6426137869980375,13.906464832291473,-0.07919350767042697,1.56018224521272,-1.2833063404917218
1.6269357316618822,13.597008968892755,-0.07758704569112598,1.5343763887744726,-1.2419272600428641
1.6115773437887375,13.292661644075935,-0.07599683304032187,1.5090968593937357,-1.2020395058831326
1.5965352500192909,12.99331952309283,-0.07442410465414409,1.4843243504373045,-1.1635630296134643
1.581821950227192,12.698886805017917,-0.07270889326684522,1.4600028303118164,-1.121875036596928
1.5674480333817182,12.40927104457515,-0.07103027518789164,1.4361547741158796,-1.0820833504500393
1.5534061955230807,12.12437923956864,-0.06938810339848413,1.4127632759492257,-1.0440792817965208
1.5396891726642603,11.844121691519423,-0.067782125189721,1.3898122045429606,-1.007761554877062
1.5262897603151182,11.56841185521629,-0.06621199830169752,1.367286158488359,-0.9730357213264798
1.5132008299828406,11.297166196911796,-0.06467730502107864,1.3451704245565936,-0.939813626504514
1.5004153430315759,11.030304060570106,-0.06317756449156872,1.3234509388602862,-0.9080129231239927
1.4879263622365153,10.767747541621002,-0.06171224345903867,1.3021142506307446,-0.8775566274992541
1.4757270613261322,10.509421367717394,-0.06028076564479158,1.2811474884053262,-0.848372714247274
1.4638107327700596,10.255252786033079,-0.05888251991593438,1.260538328437837,-0.8203937457229524
1.4521707940384112,10.005171456673146,-0.057516867400549086,1.2402749651614744,-0.7935565328662569
1.440800792530669,9.759109351802124,-0.056183147676873324,1.220346083548753,-0.7678018244891059
1.4296944093480195,9.517000660124616,-0.0548806841496221,1.2007408332263236,-0.743074022339796
1.4188454620617987,9.27878169638051,-0.05360878871258372,1.1814488042147357,-0.7193209195574423
1.4082479066120985,9.044390815541618,-0.05236676578442021,1.1624600041741813,-0.6964934603726496
1.3978958384542608,8.813768331419482,-0.05115391579395584,1.1437648370471911,-0.674545519127231
1.3877834930566713,8.586856439414937,-0.04996953818193891,1.1253540829982547,-0.6534336968785099
1.377905245840664,8.363599143159263,-0.04881293397813359,1.1072188795585045,-0.6331171340254313
1.3682556116423021,8.14394218481431,-0.04768340800548623,1.089350703891018,-0.6135573375468562
1.3588292437660652,7.927832978815307,-0.046580270756882564,1.0717413560990345,-0.5947180215791736
1.3496209326919215,7.715220548854852,-0.04550283998455324,1.0543829435055245,-0.5765649601826566
1.3406256044897265,7.506055467920486,-0.04445044203739693,1.0372678658381347,-0.5590658512554438
1.331838318988258,7.300289801210809,-0.04342241297728687,1.0203888012586415,-0.5421901906521303
1.323254267740356,7.097877051766876,-0.04241809950173407,1.0037386931806984,-0.5259091556519534
1.3148687718204792,6.898772108666414,-0.041436859697034215,0.9873107378239218,-0.5101954970006038
1.306686103375596,6.703113877799105,-0.04038982475179709,0.9692715708491798,-0.5316818386606567
1.2987077328007939,6.511052185913961,-0.03939388099622588,0.9513453480022427,-0.5549267309246252
1.2909235744666177,6.322564750894166,-0.03844770234553665,0.933529002195688,-0.5798152991626787
1.2833238116210657,6.13762989172767,-0.03754992610998273,0.9158195894692792,-0.6062354043920685
1.2758989032124504,5.956226504341647,-0.03669915797616949,0.898214284390968,-0.6340773859808674
1.268639589763626,5.778334038314053,-0.035893976512074134,0.8807103758849522,-0.6632338109236832
1.261536898389425,5.603932474378194,-0.035132937229935754,0.8633052634736392,-0.6935992286215102
1.2545821470426362,5.43300230263851,-0.03441457623795274,0.8459964539231924,-0.7250699301148023
1.247766948067974,5.265524501417673,-0.033737413508669094,0.828781558285174,-0.7575437107279823
1.2410832111382049,5.1014805166561885,-0.03309995578902259,0.8116582893296765,-0.7909196350849015
1.2345231456418782,4.940852241786391,-0.0325006991742435,0.7946244593682904,-0.8250978034480785
1.228079262587943,4.7836219980027295,-0.03193813136510758,0.7776779784683229,-0.8599791183196869
1.2217443760888884,4.629772514849606,-0.03141073362543866,0.7608168530629139,-0.8954650502188973
1.2155116044809244,4.4792869110468025,-0.03091698245420027,0.7440391849651217,-0.9314574015179449
1.2093743711371057,4.332148675470517,-0.030455350983987585,0.7273431707977337,-0.9678580671776998
1.2033264050271864,4.188341648205288,-0.03002431011520648,0.710727101854551,-1.0045687911720147
1.197361741076398,4.047850001578507,-0.02962232939267823,0.6941893644132587,-1.041490917328046
1.191474720374249,3.9106582210846987,-0.029247877628809815,0.6777284405248084,-1.0785251332363808
1.1856599902838891,3.7767510861012603,-0.02889942327479055,0.6613429093095754,-1.1155712057993212
1.1799125045025616,3.6461136502906513,-0.028575434538484844,0.6450314487965202,-1.152527706887226
1.1742275231242378,3.5187312215761715,-0.02827437924475335,0.6287928383482699,-1.1892917274604524
1.1686006127566813,3.3945893415690875,-0.027994724430813106,0.6126259617225822,-1.2257585783872822
1.16302764674701,3.273673764313912,-0.027734935665900365,0.596529810829185,-1.261821476045335
1.1575048055723318,3.1559704342059263,-0.027493476080880923,0.5805034902506728,-1.2973712106346447
1.1520285774552925,3.0414654629201436,-0.027268805089511544,0.5645462226071514,-1.3322957949542402
1.146595759268468,2.930145105173743,-0.02705937677873417,0.5486573548568716,-1.3664800912006068
1.1412034577965326,2.8219957331241154,-0.02686363794061762,0.5328363656394028,-1.3998054131362871
1.1358490914311434,2.7170038091817545,-0.026680025713275154,0.5170828737842118,-1.4321491007515872
1.1305303923805963,2.6151558569907216,-0.026506964792196115,0.5013966481261186,-1.4633840643047493
1.1252454094846929,2.5164384302990825,-0.026342864166837773,0.4857776187902725,-1.4933782943810996
1.1199925117350176,2.4208380794067246,-0.026186113329914513,0.470225890133321,-1.5219943343676603
1.1147703926121801,2.3283413148379317,-0.02603507789845909,0.45474175555461915,-1.5490887115091387
1.1095780753647093,2.2389345678402854,-0.025888094576249465,0.4393257144218486,-1.5745113225130487
1.1044149193694455,2.152604147259158,-0.025743465376389624,0.42397849138942945,-1.5981047695341846
1.099280627730762,2.069336192277664,-0.02559945101044381,0.4087010584255273,-1.6197036423330795
1.0941752562960967,1.9891166204447224,-0.025454263336211137,0.3934946599039017,-1.6391337425295271
1.0890992242885222,1.9119310703383938,-0.02530605673953427,0.3783608411593995,-1.6562112462476852
1.084053326783986,1.8377648381275726,-0.02515291830582882,0.3633014809488125,-1.6707418021990057
1.0790387492920634,1.766602807202787,-0.024992856613396213,0.3483188282990534,-1.6825195635536019
1.0740570847355515,1.6984293699471742,-0.024823788951722596,0.3334155442570819,-1.6913261540688873
1.0691103531671897,1.6332283406142096,-0.024643526731895564,0.3185947490725815,-1.6969295722491746
1.064201024613002,1.570982858173732,-0.02444975880998174,0.3038600753321846,-1.6990830423376218
1.0593320454936992,1.5116752778902054,-0.02424003238304591,0.2892157275030681,-1.6975238284645437
1.054506869151979,1.4552870503195727,-0.02401173103415606,0.27466654820324476,-1.6919720394063131
1.0497294911099995,1.4017985863743547,-0.02376204938563933,0.2602180912489502,-1.6821294677511092
1.0450044898063817,1.3511891071429432,-0.02348796365053714,0.2458767010651799,-1.6676785311342301
1.0403370737292403,1.3034364773087255,-0.023186197120875905,0.23164959727700715,-1.648281417924912
1.0357331360921729,1.258517021374221,-0.022853179249797607,0.2175449620680318,-1.6235795900906738
1.03119931852776,1.2164053225709601,-0.02248499639433207,0.20357202596458826,-1.5931938687256193
1.026743085752464,1.177074005500252,-0.022077331358626447,0.18974114474249573,-1.5567254324442048
1.0223728138761397,1.1404935054577976,-0.021625387404616024,0.17606385568203958,-1.5137582086016694
1.0180978961319775,1.106631830411839,-0.021123790037005995,0.1625528947775444,-1.4638633493466962
1.0139288715215762,1.0754543262391358,-0.020566456067006786,0.14922214694948047,-1.4066067798342239
1.0098775845829018,1.0469234627446227,-0.019946413319738086,0.13608648799564366,-1.3415612059425919
1.0059573888058078,1.0209986679908774,-0.019255544451201683,0.12316145954182177,-1.268324484722155
1.0021834131138527,0.9976362522660764,-0.018484212468348724,0.11046269770619564,-1.1865468661493643
0.9985729218322932,0.9767894807244062,-0.017620700347245645,0.09800501771049468,-1.095970183475103
0.9951458160318003,0.9584088734849736,-0.016650357657682188,0.08580105468384541,-0.9964822486468895
0.9919253516872413,0.9424428271379597,-0.015554285787907449,0.07385940878627902,-0.8881886933365999
0.988939193468243,0.9288386455166453,-0.0143072964020756,0.062182407426881886,-0.771500723011781
0.9862209930170993,0.9175440054180761,-0.012874708109360642,0.05076399355882504,-0.6472282955328351
0.9838128052814314,0.9085087020241431,-0.011207169247318459,0.039589040380493726,-0.5166518250677579
0.9817689324505967,0.9016861164842922,-0.009231559061029404,0.028636815018005454,-0.38152330600507234
0.9801626123422429,0.8970330075451365,-0.006831642022508327,0.01789427437356844,-0.24393141125843745
0.9791004592507031,0.8945038835186843,-0.003789888892888435,0.007396965890958968,-0.10597625529831872
