x,y,v_x,v_y,omega
2.375,32.48,0.0,2.717948717948718,-6.040816326530612
2.3738040445591264,31.942321355449195,-0.011959554408737558,2.658837727559313,-5.694064874059851
2.3703759066737735,31.41624550936459,-0.0223218244447881,2.6019207332867387,-5.376791651294229
2.3650147050986177,30.901347437885025,-0.03129019130677127,2.5470599815088755,-5.085704351608988
2.3579817176132467,30.397228408692612,-0.03903968354693768,2.4941303104152577,-4.817950813527387
2.3495056093079802,29.903513622202922,-0.045721399505727685,2.4430175544816417,-4.571051105110278
2.3397868539461824,29.41985014569652,-0.05146615411225009,2.3936172105824167,-4.342841501351046
2.3290014882130143,28.94590509323481,-0.056387503219430424,2.345833314034665,-4.131428014558744
2.317304311425293,28.481364013379007,-0.06058426465778331,2.299577484523355,-3.9351476509451846
2.3048316219973595,28.025929453864833,-0.06414262962155533,2.2547681106183775,-3.752535955410058
2.291703565180561,27.579319677979306,-0.06713793854642681,2.2113296482369047,-3.582299703899483
2.278026153257536,27.14126751180733,-0.0696361806838217,2.1691920134828355,-3.423293832233356
2.2638930086918307,26.71151930503823,-0.07169526497323227,2.1282900542081715,-3.2745018689136396
2.249386872121319,26.289833990849473,-0.07336610073188486,2.088563087679429,-3.1350192794962237
2.234580910096539,25.875982232670673,-0.07469351951591813,2.0499544941085706,-3.004039240732303
2.219539851763641,25.46974564749183,-0.07571706381305936,2.0124113576798353,-2.88084045062763
2.2043209790152165,25.070916096904995,-0.07647166367118474,1.9758841481885452,-2.7647766509074834
2.188974990778102,24.679295038326803,-0.0769882186999604,1.9403264375933635,-2.6552675949556224
2.1735467589167117,24.294692929893856,-0.07729409991394377,1.9056946467360862,-2.5517912400499663
2.15807599057837,23.916928683394914,-0.07741358346947229,1.8719478182533422,-2.4538769799014495
2.1425978095942306,23.545829160336453,-0.07736822637192091,1.8390474123312612,-2.3610997638614943
2.1271432676963427,23.18122870685663,-0.07717719260695943,1.806957122467002,-2.2730749740588245
2.1117397947545755,22.82296872372762,-0.076857536810714,1.7756427088231048,-2.189453952225197
2.0964115959249887,22.470897268134316,-0.07642445148515199,1.7450718471099114,-2.109920084914066
2.081180002492108,22.124868684301134,-0.07589148284365388,1.7152139912218807,-2.034185369873966
2.066063782247406,21.784743260369286,-0.07527071960336838,1.686040248096619,-1.9619873980419593
2.051079414447259,21.45038690921266,-0.07457295839810349,1.657523263469644,-1.893086695398331
2.0362413337128435,21.121670871128664,-0.07380784894604626,1.6296371173703215,-1.8272643771151242
2.021562146652979,20.798471436556564,-0.07298402165260184,1.6023572283506575,-1.7643200733155189
2.007052824493167,20.480669687165175,-0.07210919994551865,1.5756602655632255,-1.7040700915636726
1.9927228745670833,20.168151253817744,-0.0711902993153186,1.5495240679110958,-1.6463457861089263
1.9785804931596391,19.860806090068216,-0.07023351475912275,1.5239275695841963,-1.5909921080642568
1.9646327018745038,19.55852825997225,-0.0692443980922303,1.4988507313754746,-1.5378663142296627
1.9508854694260158,19.261215739110845,-0.06822792639265046,1.4742744772385599,-1.4868368152781888
1.9373574695717262,18.96877466308075,-0.06705207215024543,1.4501362830623559,-1.433707195390867
1.924064764260172,18.681114458248253,-0.06587498096529573,1.4264657652626207,-1.3829908328162157
1.9110073434726393,18.398143258427364,-0.06469922691003063,1.40324623294629,-1.334549595782817
1.8981847143375823,18.119772458993214,-0.06352706444054063,1.3804617613952024,-1.288254759531774
1.8855959615929945,17.845916568103785,-0.06236046300533618,1.3580971474990806,-1.2439862635562473
1.8732398015057885,17.576493066523447,-0.0612011378667236,1.3361378683042817,-1.2016320353550782
1.861114629962203,17.311422275450827,-0.06005057756913222,1.3145700424219482,-1.1610873740496377
1.84921856536171,17.050627231802274,-0.05891006843579896,1.2933803940635598,-1.122254387946691
1.8375494868752003,16.794033570446558,-0.05778071642929592,1.272556219493617,-1.0850414807752582
1.8261050685651368,16.541569412926336,-0.05666346667133907,1.2520853557085931,-1.049362881893777
1.8148828098097687,16.293165262238613,-0.05555912088234288,1.2319561511686627,-1.0151382162652665
1.803880062424474,16.04875390327932,-0.05446835297060396,1.2121574384242884,-0.9822921104411729
1.7930940548299914,15.808270308587517,-0.053391722974221276,1.1926785084937233,-0.9507538311865701
1.7825219135790304,15.571651549052138,-0.05232968953538841,1.1735090868600688,-0.9204569537267098
1.7721606825188823,15.338836709269348,-0.051282621066092736,1.154639310967848,-0.8913390569031195
1.7620073398376577,15.109766807261636,-0.050250805746154516,1.136059709109281,-0.8633414428012882
1.7520588132151806,14.88438471829074,-0.04923446047861564,1.1177611805996719,-0.8364088786556148
1.7423119932759725,14.662635102515804,-0.04823373891346433,1.09973497714968,-0.8104893590543458
1.7327637455207943,14.444464336265856,-0.04724873863831959,1.0819726853498035,-0.7855338866608215
1.7234109208945834,14.229820446711948,-0.046279507623789226,1.0644662101892732,-0.7614962698402449
1.7142503651320466,14.018653049739243,-0.04532605000157718,1.0472077595377884,-0.7383329357357827
1.7052789270073996,13.810913290833046,-0.04438833124489356,1.0301898295241907,-0.7160027574761892
1.6964934656015926,13.606553788805492,-0.043466282813177104,1.0134051907513355,-0.6944668943211713
1.6878908566886293,13.405528582201246,-0.04255980631645701,0.9968468752911261,-0.6736886436619888
1.6794756723928292,13.207974020904803,-0.041592036641543234,0.9786987376732982,-0.6897472932579543
1.6712496859939225,13.014037366112003,-0.040667827347522535,0.9606678102547139,-0.707729582232842
1.663204271760555,12.823695499138683,-0.039786314986153495,0.9427508594784884,-0.7275150564435012
1.6553309831012495,12.636925934854034,-0.038946571606901126,0.924944783367995,-0.7489862740459758
1.6476215647988897,12.453706795873671,-0.03814761141669829,0.9072466064356177,-0.7720285376495416
1.6400679639711506,12.27401678772561,-0.037388396860693625,0.889653475044986,-0.7965296339287969
1.632662339868575,12.097835174899995,-0.03666784416506245,0.872162653211164,-0.8223795796011114
1.6253970726141382,11.92514175769626,-0.03598482837930516,0.8547715188261724,-0.8494703726992042
1.618264770981006,11.755916849783631,-0.03533818795201675,0.8374775603001215,-0.8776957480833687
1.6112582792987187,11.590141256392503,-0.034726728870854796,0.8202783736111493,-0.9069509361448888
1.6043706835721998,11.427796253055355,-0.0341492283943355,0.8031716597603256,-0.937132423651453
1.597595316892754,11.268863564816247,-0.033604438400122706,0.7861552226307428,-0.9681377156767084
1.5909257642155799,11.113325345827853,-0.03309108837161889,0.7692269672532003,-0.9998650975393034
1.5843558665742283,10.961164159254107,-0.032607888041895086,0.7523848984842472,-1.0322133956515396
1.5778797247989105,10.812362957395088,-0.03215352971128422,0.7356271201059262,-1.065081736143708
1.5714917028025537,10.666905061948455,-0.03172669025228418,0.7189518343604087,-1.098369300086891
1.5651864304960506,10.524774144318727,-0.031326032812747366,0.702357341936889,-1.131975074083911
1.5589588063922113,10.38595420588177,-0.030950208225645703,0.6858420424326814,-1.1657975949346309
1.55280399995655,10.250429558106951,-0.03059785613096644,0.6694044353155014,-1.1997346870072845
1.546717453762205,10.11818480243345,-0.03026760581248348,0.6530431214195176,-1.233683190861227
1.5406948855060336,9.989204809790099,-0.029958076749230917,0.6367568050140011,-1.2675386815677285
1.5347322899432663,9.863474699639657,-0.029667878878443694,0.6205442964904109,-1.3011951750634412
1.528825940799073,9.740979818418452,-0.029395612563488018,0.6044045157216369,-1.3345448207452886
1.5229723927170402,9.621705717230686,-0.029139868256839122,0.5883364961560362,-1.36747757837522
1.5171684833069135,9.505638128643184,-0.028899225844430054,0.5723393897189821,-1.3998808772082063
1.5114113353571064,9.392762942410677,-0.02867225365364112,0.5564124726060914,-1.4316392550871277
1.5056983592814654,9.283066179943539,-0.02845750710276714,0.5405551520652859,-1.4626339750644521
1.5000272558746963,9.176533967309052,-0.02825352696492356,0.5247669742796053,-1.492742616914422
1.4943960194568082,9.073152506533148,-0.028058837213957268,0.5090476334794359,-1.521838640693711
1.4888029414940198,8.972908044942024,-0.02787194241392742,0.49339698243181374,-1.5497909192980341
1.4832466147919257,8.875786842251252,-0.027691324607013783,0.47781504447591283,-1.5764632367545632
1.4777259383665067,8.781775135073861,-0.027515439647174584,0.46230202729799347,-1.6017137487968114
1.4722401231099527,8.690859098477453,-0.027342712918366256,0.446858338666099,-1.625394402107143
1.4667886983814689,8.60302480417337,-0.027171534366472582,0.4314846043747517,-1.6473503085075376
1.4613715196685173,8.518258174867626,-0.027000252763040522,0.41618168868270106,-1.6674190703684246
1.455988777481595,8.436544934243152,-0.02682716910618425,0.4009507175620382,-1.685430053641248
1.4506410076660572,8.357870551975559,-0.026650529049194367,0.38579310511388115,-1.701203605278865
1.4453291033381457,8.282220183109892,-0.02646851422991956,0.37071058354278646,-1.7145502124975314
1.4400543286798453,8.209578601043972,-0.026279232353083996,0.35570523711639995,-1.725269602510168
1.4348183348593149,8.139930123275906,-0.026080705852219305,0.34077954056424525,-1.7331497832440625
1.4296231783814806,8.073258528981182,-0.025870858926125725,0.3259364023830197,-1.737966028462869
1.4244713422184514,8.009546967392431,-0.025647502704165975,0.3111792135044767,-1.739479815093412
1.4193657601239043,7.948777855869061,-0.025408318241304895,0.2965119017292272,-1.7374377270564036
1.4143098446026203,7.8909327664751245,-0.025150836971534515,0.2819389922101467,-1.731570349437602
1.4093075190907067,7.835992299849703,-0.024872418147601976,0.26746567404407434,-1.721591190729623
1.40436325501088,7.783935945181053,-0.024570222650663814,0.25309787264241995,-1.7071956910088977
1.3994821145116585,7.734741925225393,-0.024241182341552554,0.23884232691416749,-1.6880604029781863
1.394669799896781,7.68838702560582,-0.023881963807222528,0.22470666928157626,-1.6638424746321878
1.3899327110290915,7.644846408180253,-0.023488924869672974,0.2106995049741011,-1.634179622304687
1.385278012395097,7.604093409218539,-0.023058061470273252,0.19683048464302808,-1.598690868588533
1.3807137121122222,7.566099324680831,-0.02258494135847471,0.1831103607340657,-1.5569784414212255
1.376248756062402,7.5308331873330445,-0.022064619139727112,0.16955101274380416,-1.508631402130638
1.3718931417230629,7.498261544175005,-0.021491524253663425,0.15616541883660484,-1.453231808242906
1.3676580584286506,7.4683482482285015,-0.020859308690458874,0.14296754062843292,-1.3903645393169806
1.3635560641942042,7.441054286786674,-0.020160633654005444,0.12997207378984077,-1.319632333273001
1.3596013145978834,7.41633767941288,-0.01938686230920151,0.11719399994809238,-1.2406780855951025
1.3558098676931731,7.3941534935964235,-0.018527606737899723,0.1046478582164709,-1.1532169797111598
1.3522001022552335,7.374454043115108,-0.017570047641496694,0.09234664659670105,-1.0570813218365345
1.348793307510264,7.357189349852874,-0.01649789980819741,0.08030028602564498,-0.9522805248357655
1.3456145349287474,7.342307953508982,-0.015289826006968713,0.0685136774132851,-0.8390764702582352
1.3426938536915698,7.32975812233353,-0.013916986364806767,0.056984634341247065,-0.7180687072298598
1.3400682367647445,7.319489408741109,-0.01233918290344684,0.04570250158295745,-0.5902724937181583
1.337784472085058,7.311454235457219,-0.010498463893418769,0.034649231255954704,-0.4571550869263178
1.3359039226707765,7.3056086683694765,-0.008307030249396512,0.023806439621490157,-0.3205776491751845
1.334511450795281,7.301910343731418,-0.005617688505558481,0.013176806759095779,-0.18258662630889058
1.3337385177815477,7.300306852788957,-0.0021116416317747905,0.00285810266551491,-0.045036721032066296
