x,y,v_x,v_y,omega
2.375,32.48,0.0,3.230769230769231,-4.938775510204081
2.37392037836697,31.873367972205394,-0.011364438242423251,3.154831061805552,-4.623541968864296
2.370840951604165,31.280869328386594,-0.02105058031341666,3.081996767866036,-4.3384016136353845
2.3660580433026213,30.70193379309092,-0.029295822860727377,3.0120614984042122,-4.079625671511147
2.3598263348259527,30.13602821834481,-0.03630110847262681,2.944839288396934,-3.8440325036667553
2.3523652050731476,29.58265321776986,-0.042237099451635673,2.8801607176551696,-3.628896040755249
2.3438640068122245,29.04134020978575,-0.047249198031764944,2.8178709453354447,-3.4318713689675735
2.334486476201995,28.511648805644132,-0.05146165049696994,2.757828045628982,-3.250933910964117
2.3243744321115307,27.993164490480588,-0.05498091887633865,2.6999015876714942,-3.084329455881387
2.3136508907868105,27.485496555191347,-0.05789846348913446,2.6439714153731506,-2.9305329010853876
2.302422697105445,26.98827624445705,-0.0602930489462954,2.5899265923562456,-2.7882140297113094
2.2907827544970836,26.5011550921676,-0.06223266272066225,2.5376644843748286,-2.6562090008963404
2.278811920400177,26.02380342022856,-0.06377611724677494,2.4870899570887186,-2.5334965016425097
2.2665806219856046,25.555908980530564,-0.06497439238030563,2.4381146713112583,-2.4191777204935994
2.2541502371323263,25.097175722945693,-0.06587176396999424,2.3906564611610617,-2.3124594683649726
2.241574277777329,24.647322674735936,-0.06650675555629204,2.344638783152185,-2.212639901794137
2.228899406388176,24.206082918835797,-0.06691294327689605,2.2999902263229686,-2.119096406692732
2.21616631111674,23.773202660195295,-0.06711963852769372,2.2566440751559624,-2.0312752824799216
2.203410460949801,23.348440370810046,-0.0671524684927162,2.214537918373012,-1.9486829318903265
2.1906627586899585,22.931566005276373,-0.06703387108457214,2.1736132977708773,-1.8708783143105183
2.1779501067319433,22.522360279734176,-0.06678351794716622,2.133815392147009,-1.7974664629234463
2.1652958982285506,22.120614007931373,-0.06641867682539264,2.0950927320930126,-1.72809290033141
2.152720444274327,21.72612748888908,-0.06595452269274837,2.057396942036401,-1.6624388153203096
2.140241346099649,21.33870994128631,-0.06540440546175551,2.0206825064138125,-1.6002168862998538
2.1278738199032494,20.958178980235388,-0.06478008081613462,1.9849065572801134,-1.541167655711828
2.115630980809511,20.584360132597567,-0.0640919096442734,1.9500286810127465,-1.4850563751359172
2.1035240914788904,20.21708638740459,-0.06334903067804677,1.9160107420712367,-1.431670253570596
2.091562780094015,19.856197778315206,-0.0625595102153784,1.8828167220275076,-1.3808160519278998
2.07975523176439,19.50154099535398,-0.06173047220172711,1.8504125723011975,-1.3323179755579093
2.068108356818151,19.152969023459306,-0.0608682114428917,1.8187660792217089,-1.2860158239348451
2.05662793896245,18.810340805614214,-0.05997829230132797,1.787846740200304,-1.2417633627526221
2.0453187658805945,18.473520928551334,-0.059065634876102405,1.757625649935269,-1.199426888804714
2.0341847444821295,18.142379329216517,-0.05813459037089518,1.7280753956944,-1.158883962332741
2.0232290027218722,17.81679102034721,-0.05718900710550067,1.6991699608246031,-1.1200222851601207
2.012453979647312,17.49663583367447,-0.056232288416184564,1.6708846357305553,-1.0827387059957065
2.0018615051140793,17.181798179393788,-0.05526744351257925,1.643195935645079,-1.0469383368913237
1.9914528704206045,16.87216682067195,-0.05429713220820896,1.6160815245847617,-1.0125337670436025
1.98122889095101,16.567634662066457,-0.053323704313837476,1.5895201449467533,-0.9794443620081063
1.971189961775667,16.26809855083203,-0.05234923437398467,1.5634915522577457,-0.9475956379950639
1.9613361070383948,15.97345909017723,-0.05137555233414334,1.5379764546348709,-0.9169187022846995
1.9516670238551928,15.683620463613579,-0.05040427064693205,1.512956456561452,-0.8873497519724571
1.942182121359267,15.398490269611443,-0.04943680825754827,1.4884140066189266,-0.858829624260629
1.9328881686613992,15.117981096897267,-0.04839427277264068,1.4643141272144962,-0.828982827586952
1.9237907019287213,14.842008544254387,-0.0473685349397579,1.4406601111316142,-0.8004450892402182
1.914886493637558,14.570489357752933,-0.046359973388276236,1.4174365888836844,-0.7731439230174108
1.9061722538718313,14.303343139599647,-0.045368866250953016,1.3946288653614438,-0.7470116155203149
1.897644648219182,14.040492223551123,-0.04439540377693263,1.37222288251775,-0.7219848617917914
1.889300313409385,13.781861557183536,-0.0434396994840884,1.3502051845094873,-0.6980044324847352
1.8811358709562758,13.52737859056985,-0.04250180002232485,1.328562885108281,-0.675014869519232
1.8731479390338042,13.276973170949788,-0.041581693898429126,1.3072836372081618,-0.6529642075072362
1.8653331427899533,13.030577443009062,-0.04067931919473838,1.2863556042731614,-0.6318037185103488
1.8576881232786513,12.788125754412896,-0.03979457039791212,1.265767433581206,-0.6114876779496764
1.8502095451690357,12.549554566265066,-0.038927304440148934,1.2455082311327947,-0.5919731497113915
1.842894103373137,12.314802368187578,-0.03807734604299392,1.2255675381039128,-0.5732197886910142
1.8357385287169472,12.083809597738114,-0.03724449244321412,1.2059353087325568,-0.5551896591966676
1.828739592765609,11.85651856390248,-0.03642851757087319,1.1866018895372827,-0.5378470677892849
1.8218941119009298,11.632873374417873,-0.035629175741540904,1.1675579997743655,-0.5211584092782983
1.8151989507383322,11.412819866699785,-0.03484620491737957,1.1487947130476166,-0.5050920247167288
1.808651024960556,11.19630554216105,-0.03407932958552803,1.130303439991691,-0.4896180703516028
1.8022473036367495,10.983279503726028,-0.03332826329664487,1.1120759119558914,-0.47470839658578484
1.7959848110879184,10.77369239635621,-0.032592710901578226,1.0941041656211272,-0.4603364360969938
1.7898606283528857,10.567496350415858,-0.03187237051981726,1.0763805284878305,-0.4464771003401516
1.7838718943028935,10.364644927717666,-0.031166935269577388,1.0588976051773467,-0.43310668373133815
1.7780158064476121,10.165093070098923,-0.030476094786014294,1.0416482644936254,-0.4202027748764158
1.7722896214705868,9.96879705038841,-0.029799536551096486,1.0246256271959828,-0.4077441742656472
1.7666906555279083,9.775714425633247,-0.029136947056044103,1.007823054437331,-0.3957108179080737
1.7612162843401666,9.58580399246327,-0.028488012814922067,0.991234136825584,-0.3840837064266777
1.755869436928943,9.399229680203124,-0.027794591513745942,0.972705992228574,-0.41560898039148825
1.7506500715724296,9.216165492419538,-0.027146096449553285,0.9542854581249451,-0.44856438314978025
1.7455497748559838,9.036591248270657,-0.026541237407769157,0.9359697434422397,-0.4828432666177175
1.7405603812692276,8.860487286828285,-0.025978695084403577,0.917756166477455,-0.5183409355407265
1.7356739783506767,8.68783444661867,-0.02545712511086712,0.8996421515184744,-0.5549544137021252
1.7308829111060855,8.51861404576929,-0.02497516167430595,0.8816252258434004,-0.5925822132592936
1.7261797857748515,8.352807862690334,-0.024531420759734874,0.8637030170929676,-0.6311241062168159
1.7215574730141268,8.190398117220177,-0.02412450303736827,0.8458732510139656,-0.6704808970367264
1.717009110566078,8.031367452164275,-0.023752996415774726,0.8281337495744603,-0.7105541953688381
1.7125281054700947,7.875698915156512,-0.023415478278787386,0.8104824294546061,-0.7512461878587573
1.7081081358785708,7.7233759407709215,-0.023110517421463767,0.792917300920038,-0.7924594079571478
1.7037431525322426,7.574382332810131,-0.022836675697780785,0.7754364670882614,-0.8340965026105525
1.6994273799488895,7.428702246694538,-0.0225925093901468,0.758038123602182,-0.8760599946609688
1.695155317377548,7.286320171873076,-0.022376570308185535,0.7407205587289882,-0.918252039717657
1.6909217395692213,7.1472209141726495,-0.02218740662156746,0.7234821539070927,-0.9605741761894843
1.6867216974144266,7.011389577998436,-0.022023563428902222,0.7063213847688318,-1.0029270670785015
1.6825505184978073,6.878811548291537,-0.02188358306182715,0.6892368226722014,-1.045210232034351
1.6784038076204961,6.7494724721434665,-0.021766005120395913,0.6722271367811847,-1.0873217680533263
1.6742774473419568,6.623358239958829,-0.021669366232647938,0.6552910967413129,-1.1291580570742066
1.6701675985947162,6.500454966047915,-0.021592199527779413,0.6384275760051425,-1.1706134585740293
1.6660707014277611,6.380748968519637,-0.02153303380859197,0.6216355558714821,-1.211579985099414
1.6619834759374879,6.264226748332145,-0.021490392404810668,0.6049141303126456,-1.2519469584816083
1.6579029234490148,6.150874967343228,-0.02146279168437791,0.5882625116759579,-1.2916006442749497
1.6538263280154857,6.040680425184867,-0.021448739194875416,0.5716800373594286,-1.3304238617280615
1.6497512583088088,5.933630034765887,-0.021446731401724282,0.5551661775772161,-1.3682955663445089
1.6456755699821959,5.82971079618294,-0.02145525098367512,0.5387205443485312,-1.4050904018153294
1.6415974085930203,5.728909768792718,-0.021472763639224356,0.5223429018643166,-1.4406782178116493
1.6375152131840571,5.6312140411666824,-0.021497714349862473,0.5060331784097567,-1.4749235498153157
1.6334277206322727,5.536610698613213,-0.021528523037339094,0.489791480047812,-1.5076850568458722
1.629333970887211,5.445086787910178,-0.021563579542258862,0.47361810629993784,-1.5388149126244286
1.6252333132358858,5.356629278842629,-0.0216012378401104,0.45751356809530147,-1.568158145416495
1.621125413748261,5.271225022085126,-0.02163980939804717,0.4414786082994713,-1.5955519215434013
1.6170102640771422,5.18886070290478,-0.021677555561096573,0.425514225177853,-1.6208247673856127
1.6128881918090756,5.109522790089077,-0.02171267883960565,0.40962169919795954,-1.6437957246804877
1.6087598725890482,5.033197479420679,-0.021743312950157353,0.39380262362730245,-1.664273434129187
1.6046263442720536,4.9598706309293945,-0.021767511439256843,0.37805893943885593,-1.6820551429001986
1.600489023389596,4.8895276990490615,-0.021783234691877876,0.3623929750909588,-1.6969256327364304
1.5963497242599232,4.822153654694571,-0.021788335094151443,0.3468074917984233,-1.7086560673096962
1.5922106811184635,4.757732898153606,-0.02178054007910705,0.3313057349485657,-1.717002760614324
1.588074573701271,4.696249161562431,-0.02175743273344852,0.3158914923269621,-1.721705873122885
1.583944556781758,4.637685399612039,-0.021716429577213075,0.3005691597824339,-1.7224880499747597
1.5798242942431717,4.582023667022256,-0.02165475503948537,0.2853438148468668,-1.7190530268460718
1.5757179983715353,4.529244981246428,-0.021569412030370865,0.27022129858290933,-1.7110842461271256
1.5716304751844992,4.479329168860044,-0.02145714783316933,0.25520830548428153,-1.6982435511924534
1.5675671767837382,4.432254694193297,-0.021314414280103937,0.2403124804814885,-1.680170063652005
1.5635342619531198,4.387998469068556,-0.021137320779037027,0.22554252083157408,-1.6564794029916416
1.559538666555529,4.346535643120049,-0.020921578142969584,0.21090827862637598,-1.626763487858476
1.5555881857630758,4.307839375288346,-0.02066243019864422,0.19642085644418084,-1.5905912747408442
1.5516915708789245,4.271880588972326,-0.020354568581894737,0.18209268372444198,-1.5475109588236056
1.5478586446238563,4.238627716391093,-0.019992023576718514,0.167937553972763,-1.4970544049282142
1.5441004405148335,4.208046442535267,-0.019568019676153337,0.1539705918780377,-1.4387449211225423
1.5404293747670978,4.180099466455893,-0.019074777668432963,0.1402081036943355,-1.3721099643055794
1.5368594636834483,4.154746308522533,-0.018503233738403384,0.126667242972618,-1.2967009982828646
1.5334066068633043,4.131943207662744,-0.017842627526271353,0.1133653976567298,-1.2121234939819687
1.530088968560125,4.111643172877169,-0.017079880928248015,0.10031917903350647,-1.1180808383587892
1.5269275089806325,4.093796276827462,-0.01619864096114563,0.08754288464762834,-1.0144362988433178
1.5239467487206702,4.078350298896531,-0.015177782827932937,0.07504635673057425,-0.9012961934828758
1.5211759001286,4.065251821728758,-0.013989044457016096,0.0628323502986347,-0.7791130470525295
1.5186505829371866,4.0544478171643945,-0.012593241768389581,0.05089401353676244,-0.6487965142613918
1.5164154936122651,4.045887546949423,-0.010934014283413254,0.039214093989251075,-0.511798937655279
1.514528743893109,4.039524118999502,-0.008926509076125704,0.027769358115170208,-0.3701134241832411
1.5130696685160454,4.035313986272744,-0.006432179103491961,0.01654782848227644,-0.22610094597141508
1.5121568759357384,4.033209435632674,-0.0031761638471059536,0.005605336150038881,-0.08208018562947891
