x,y,v_x,v_y,omega
2.375,32.48,0.0,3.0256410256410255,-6.163265306122449
2.373893609355964,31.941275674924654,-0.012293229378176266,2.960184808529468,-5.8096719209761245
2.3707221230353355,31.414115974570297,-0.022945507517698326,2.89714519540782,-5.48616184280949
2.3657621142377905,30.898099347561068,-0.03216570134391425,2.8363728824725123,-5.189379345764269
2.359255173728461,30.39282992081066,-0.04013363764863222,2.7777318591987012,-4.916415776339521
2.351412731998308,29.897935253640522,-0.04700460379751488,2.721097776025016,-4.664740994953725
2.342420141546459,29.413064362297014,-0.05291306788969306,2.666356572236184,-4.432146710756074
2.332440146135129,28.937885972562174,-0.057975770013977065,2.6134033137065003,-4.216699399107598
2.321615839538626,28.472086966207694,-0.0622943032804984,2.562141201343274,-4.016700990140045
2.3100731971944652,28.015370993331647,-0.06595727832128583,2.512480719501702,-3.830655896867978
2.2979232490220984,27.567457227571133,-0.06904214581612378,2.4643389000595666,-3.657243243500026
2.285263949586628,27.12807924511703,-0.07161673680021721,2.4176386827637857,-3.495293381112475
2.2721817920679244,26.696984011604115,-0.0737405689631547,2.3723083562686256,-3.3437679548469617
2.2587532046352674,26.27393096348718,-0.07546595806636683,2.32828106725283,-3.201742926104682
2.245045761432438,25.8586911725745,-0.07683896640951579,2.2854943873325397,-3.0683940635948046
2.2311192351474567,25.45104658407497,-0.07790021453472205,2.2438899293289105,-2.9429845051065744
2.217026513841982,25.050789319902933,-0.07868557774833167,2.2034130059159263,-2.824854062454898
2.202814401165971,24.657721040134053,-0.07922678531845516,2.164012324849419,-2.713409998956587
2.1885243161405827,24.271652356464205,-0.07955193718585818,2.1256397159266665,-2.6081190549095243
2.174192906243279,23.892402292327176,-0.07968595056196122,2.0882498855958684,-2.5085005340933146
2.159852585483498,23.51979778500482,-0.07965094676893728,2.0518001957636627,-2.4141202950155733
2.1455320074428714,23.15367322563819,-0.0794665870158034,2.0162504638655525,-2.324585515844222
2.1312564818125486,22.793870033538095,-0.07915036443223152,1.981562781691058,-2.2395401227561265
2.117048341744676,22.440236261612988,-0.07871785854412525,1.9477013508101395,-2.1586607886370657
2.102927268307141,22.09262623009314,-0.07818295742849025,1.9146323327437216,-2.0816534233560686
2.0889105774590195,21.750900186041918,-0.07755805199508206,1.8823237122698735,-2.0082500887429737
2.075013474223185,21.414923986415594,-0.07685420618085517,1.850745172467026,-1.9382062813506111
2.061249278101004,21.084568802668954,-0.07608130628782094,1.8198679802734363,-1.8712985344281992
2.0476296232346467,20.75971084510993,-0.07524819222726185,1.789664881493505,-1.807322297550421
2.034164636360733,20.440231105387525,-0.07436277303844568,1.7601100043109945,-1.7460900582648642
2.020863095202847,20.12601511565631,-0.07343212871584912,1.7311787704803137,-1.6874296751247873
2.007732569609831,19.816952723101426,-0.07246260009543601,1.702847813462804,-1.6311828957165957
1.9947795474533863,19.51293787863257,-0.07145986830950447,1.6750949028578113,-1.5772040368969011
1.9820095470452515,19.21386843866585,-0.0704290251142152,1.6478988745502356,-1.5253588075255786
1.9694272176153067,18.919645979011023,-0.06937463521850386,1.6212395660589052,-1.4755232566039527
1.9570364292022735,18.630175619969485,-0.06830079159297724,1.595097756624854,-1.427582831971745
1.9448403531441234,18.345365861826856,-0.06721116460869202,1.569455111626569,-1.3814315366413832
1.932841534212277,18.065128429994836,-0.06610904574515586,1.5442941309514473,-1.3369711715026793
1.9210419553091564,17.789378129120117,-0.06499738651173975,1.5195981009898902,-1.2941106545556385
1.9094430955400807,17.518032705535404,-0.06387883314465582,1.4953510499513136,-1.2527654080585686
1.8980521222628872,17.25101574375293,-0.06268753660193802,1.4715040809650846,-1.2106008122920084
1.886874657484103,16.988253351839827,-0.06150651649566437,1.4480780514027238,-1.1702184005579852
1.8759087462226685,16.729671029383404,-0.060336941964721884,1.4250588647797413,-1.131522821350053
1.865152238265955,16.475196759371475,-0.05917981310986957,1.402433024241701,-1.0944247884896594
1.8546028169473514,16.224760903171514,-0.05803597931906146,1.3801876002022884,-1.0588406334497729
1.8442580248004086,15.978296101147095,-0.05690615564696929,1.3583102000690344,-1.0246918951587416
1.8341152864205537,15.735737178549979,-0.055790937462531345,1.3367889398989112,-0.9919049437805856
1.8241719288291005,15.497021056353503,-0.054690813553612036,1.3156124178397164,-0.960410635329143
1.8144251996022225,15.262086666717632,-0.053606177856144986,1.294769689225505,-0.9301439942940428
1.8048722829991242,15.030874872798844,-0.05253733995605781,1.27425024320548,-0.9010439217413242
1.795510314298484,14.803328392638726,-0.05148453449550013,1.254043980795833,-0.8730529266049681
1.7863363925298779,14.579391726884317,-0.05044792960012441,1.2341411942531462,-0.8461168781114126
1.7773475917670631,14.359011090110673,-0.04942763443114891,1.2145325476762499,-0.8201847774805415
1.76854097113236,14.142134345532227,-0.04842370595444335,1.1952090587509288,-0.7952085472265316
1.7599135836456743,13.92871094290436,-0.0474361550087305,1.1761620815587035,-0.7711428365428012
1.7514624840377464,13.718691859430137,-0.046464951746025586,1.1573832903771184,-0.7479448413993098
1.7431847356347494,13.512029543499782,-0.0455100305094956,1.138864664404627,-0.7255741381095201
1.735077416410275,13.308677861102016,-0.044571294206888226,1.1205984733483227,-0.703992529240142
1.727137624290825,13.108592044757096,-0.0436486182314442,1.1025772638174758,-0.6831639008407945
1.7193624817920943,12.91172864483121,-0.04274185397667394,1.0847938464701374,-0.6630540900642561
1.711749140055412,12.718045483101136,-0.04185083198646467,1.0672412838640168,-0.6436307623321664
1.7042947823466446,12.527501608446396,-0.04097536477761546,1.049912878966436,-0.6248632972769073
1.6969966270735382,12.340057254554083,-0.04011524936801111,1.032802164281479,-0.6067226827588159
1.6898519303718005,12.155673799528756,-0.03927026954018524,1.0159028915554837,-0.5891814163196647
1.6828579883051593,11.97431372730653,-0.03844019786693913,0.999209022024808,-0.5722134134891723
1.6760190070165977,11.796163150813694,-0.037548483117079194,0.9802418278955772,-0.6050399085754973
1.6693360328657563,11.621417122793716,-0.03670678522560128,0.9613807056597389,-0.6391886746704357
1.6628002094434136,11.45005678994524,-0.03591347502265114,0.9426229926566597,-0.6745517754373697
1.656402974681661,11.282063768588085,-0.03516691121904573,0.923966133533947,-0.7110229471214523
1.650136062779958,11.117420125601878,-0.034465443244320354,0.9054076774239207,-0.748497361578401
1.64399150565009,10.956108359838503,-0.03380741375421473,0.8869452755024672,-0.786871391243361
1.6379616339377416,10.798111383939617,-0.033191160827430996,0.8685766789296065,-0.826042375012076
1.6320390776750653,10.643412506490286,-0.032615019868974825,0.8502997371740827,-0.8659083839888467
1.626216766615714,10.491995414439153,-0.03207732523492911,0.8321123967274178,-0.9063679860297277
1.6204879303013724,10.343844155714226,-0.03157641159108621,0.8140127002162185,-0.9473200079746724
1.6148460979067836,10.198943121961506,-0.031110615015455822,0.7959987859251157,-0.9886632944183998
1.6092850979086903,10.057277031331047,-0.030678273852247095,0.778068887746629,-1.03029646181602
1.6037990576229657,9.918830911231783,-0.030277729322470907,0.7602213355785264,-1.0721176466552498
1.598382402653502,9.783590080972257,-0.029907325893793423,0.7424545561939764,-1.1140242463516046
1.5930298562961904,9.651540134199447,-0.0295654114096675,0.7247670746150294,-1.1559126514354157
1.5877364389415667,9.522666921041768,-0.02925033697504235,0.7071575160258398,-1.197677967498978
1.5824974675204364,9.396956529855267,-0.02896045659307074,0.6896246082686106,-1.239213725257598
1.5773085550380856,9.27439526846355,-0.028694126544159693,0.6721671849726774,-1.2804115769487814
1.5721656102445247,9.154969644772212,-0.028449704495404345,0.6547841893755406,-1.3211609771482697
1.567064837490701,9.038666346627036,-0.028225548324859788,0.6374746789041984,-1.3613488459192142
1.5620027368237563,8.925472220772019,-0.028020014641191936,0.6202378305959754,-1.4008592120306798
1.5569761043783037,8.815374250747844,-0.027831456974948755,0.6030729474504078,-1.4395728337835172
1.5519820331253933,8.7083595335537,-0.027658223612943515,0.5859794658178504,-1.4773667947654803
1.5470179140464513,8.604415254874905,-0.02749865504196945,0.568956963946564,-1.5141140716242072
1.5420814378060772,8.503528662655157,-0.02735108096218734,0.5520051718284157,-1.5496830706984368
1.5371705970053249,8.405687038765215,-0.02721381682394843,0.5351239825042562,-1.5839371300885159
1.5322836891060714,8.310877668488587,-0.027085159834423594,0.5183134650138548,-1.6167339834834453
1.5274193201274866,8.219087807509137,-0.02696338437207507,0.5015738792022688,-1.647925181803817
1.5225764092276184,8.130304646044685,-0.026846736737572357,0.48490569262498545,-1.6773554684839358
1.5177541942969244,8.044515269723888,-0.026733429159028408,0.4683095998282937,-1.7048621040260696
1.512952238706466,7.9617066167506145,-0.026621632957176896,0.45178654431919285,-1.7302741353502757
1.5081704393717381,7.881865430839639,-0.026509470762020895,0.4353377435805241,-1.7534116054859932
1.5034090363141024,7.804978209339573,-0.026395007656153668,0.41896471753131836,-1.774084699380996
1.4986686239259734,7.731031145882707,-0.026276241100835332,0.4026693208783067,-1.7920928221468588
1.4939501641738568,7.660010066817179,-0.026151089478236727,0.3864537798497865,-1.8072236070724514
1.489255002005782,7.591900360584777,-0.02601737905592871,0.3703207338435876,-1.819251852440517
1.484584883267602,7.52668689910934,-0.02587282914607106,0.35427328255017776,-1.8279383888965335
1.479941975477411,7.464353950159062,-0.025715035189384176,0.33831503911955885,-1.8330288833029504
1.4753288918608471,7.404885079546386,-0.02554144943910213,0.32245018991017593,-1.8342525913258414
1.4707487191151118,7.348263041940683,-0.025349358846845547,0.3066835612643098,-1.8313210803955742
1.4662050494502623,7.294469659006619,-0.025135859651484085,0.29102069355861804,-1.8239269585276725
1.4617020175590283,7.243485683568384,-0.02489782802889407,0.27546792242177204,-1.8117426647580352
1.4572443433007924,7.195290648573998,-0.024631885951504298,0.2600324664047219,-1.7944194064799766
1.4528373810667294,7.14986269985156,-0.024334361093640903,0.24472251940014053,-1.7715863718522764
1.4484871770456813,7.107178412097024,-0.02400123914022526,0.22954734453916922,-1.7428504075147602
1.4442005359729988,7.067212588341285,-0.023628106111805453,0.21451736385793757,-1.707796441368395
1.4399850994799777,7.02993804450605,-0.02321007714398516,0.19964423431135322,-1.6659890586700208
1.4358494389713106,6.99532538285488,-0.022741706285647093,0.1849408951460961,-1.616975822755125
1.4318031672072908,6.9633427615785415,-0.022216868870128484,0.1704215634799005,-1.560293189386831
1.4278570747249075,6.933955672969255,-0.0216286031563523,0.15610164328996232,-1.4954762192741107
1.4240233003325646,6.907126750333838,-0.02096889009190127,0.14199749710354556,-1.4220737673952264
1.4203155498570388,6.882815634741597,-0.0202283374139431,0.12812600947691155,-1.3396714220774986
1.4167493852214994,6.860978947461373,-0.01939571409205142,0.11450384919223855,-1.2479251239313827
1.4133426185303153,6.841570432116331,-0.018457249143326533,0.10114632130823711,-1.1466089107884838
1.4101158658067028,6.824541349102859,-0.01739555889681183,0.08806571217477746,-1.0356800884079809
1.4070933465009667,6.8098412144684985,-0.016187988944701186,0.07526911709587,-0.9153631982082969
1.4043040647326028,6.7974189547960435,-0.014804030703785298,0.06275599037586604,-0.7862484192039156
1.4017835908247958,6.787224456430966,-0.013201234938513834,0.050516213680558524,-0.6493877349925841
1.399576818700341,6.779210249147205,-0.01131845533320701,0.038530533916772844,-0.5063517633426571
1.3977424600771753,6.773332559463906,-0.009063307146411539,0.02677712923099848,-0.3591865497426539
1.3963613307358105,6.769549861985521,-0.006282574424308415,0.015252842751069121,-0.21019985417164325
1.3955568801649614,6.767813109775727,-0.002655765251793687,0.004044404024433911,-0.06153959566692924
