x,y,v_x,v_y,omega
2.375,32.48,0.0,2.0,-7.26530612244898
2.373678982389633,32.024647683127796,-0.011487109655364654,1.959585364106086,-6.900195037976955
2.3698733766155673,31.57843455109409,-0.021605114466945734,1.9205288274913523,-6.561774998698907
2.363880291321687,31.141057992058627,-0.030508670697227853,1.8827455989039827,-6.2474132381951994
2.3559635191911434,30.712233966397797,-0.0383328260901115,1.8461589720597809,-5.954795815497307
2.3463577152212047,30.291695270157852,-0.04519590408326636,1.8106992561136275,-5.681881878309806
2.335271968568064,29.8791900241665,-0.05120189290056544,1.7763028829416052,-5.426865568163493
2.3228928705173275,29.47448035204823,-0.056442437975407544,1.7429116572172967,-5.188144101359828
2.309387161054183,29.07734121737125,-0.06099851387802073,1.7104721225825057,-4.964290877615654
2.294904020903792,28.6875593956515,-0.0649418352558175,1.6789350228066062,-4.7540327096166015
2.279577063673715,28.304932561297782,-0.06833605370137101,1.6482548411387903,-4.556230451523582
2.2635260730453126,27.929268473060535,-0.07123777784995643,1.6183894044024871,-4.369862447339889
2.246858522233191,27.560384244339826,-0.0736974466032722,1.5892995409949706,-4.194010331402261
2.229670906717458,27.198105686964176,-0.07576007962049212,1.5609487840106733,-4.027846800745493
2.2120499162197937,26.842266718884648,-0.07746592470702662,1.5333031123330576,-3.870625048335718
2.1940734677891687,26.492708827725423,-0.0788510181679737,1.5063307238341122,-3.7216696013591295
2.175811618493791,26.149280583361044,-0.07994767135705018,1.4800018358561435,-3.58036835303268
2.157374160467045,25.81185232186938,-0.08037805061465471,1.4541569597235584,-3.4378187265968334
2.138858803528983,25.48029990958529,-0.08062505319457901,1.4289074949206975,-3.302607759805046
2.1203054757632023,25.154489264430456,-0.08070823172525307,1.40422854990395,-3.174260371845537
2.101749833533589,24.83429186766722,-0.08064517896703531,1.380096639341582,-3.052338271317937
2.083223688537253,24.519584452482285,-0.08045173404458303,1.3564895796578544,-2.9364366308625143
2.0647553901333633,24.210248715477242,-0.0801421651196727,1.333386394299024,-2.8261811063702513
2.046370168025741,23.906171048955805,-0.0797293314683486,1.3107672276265256,-2.721225160329923
2.0280904397429618,23.607242292132796,-0.07922482751233959,1.288613266486594,-2.621247654196306
2.009936086813452,23.313357499594606,-0.07863911100513524,1.2669066686281165,-2.5259506792100037
1.9919247030610272,23.024415725519184,-0.07798161727682289,1.2456304972451073,-2.4350575989908023
1.9740718180373713,22.740319822319876,-0.07726086118974934,1.2247686610097739,-2.3483112805671587
1.9563910982527253,22.46097625251425,-0.07648452824195483,1.2043058590391165,-2.2654724933803907
1.9388945285567192,22.186294912739758,-0.07565955607114298,1.1842275303043086,-2.1863184582847217
1.9215925757513528,21.916188968944077,-0.0747922074537815,1.1645198070494167,-2.110641530712815
1.9044943362820306,21.650574701872294,-0.07388813575771563,1.1451694718356724,-2.0382480040403905
1.887607669645651,21.389371362056067,-0.07295244368906267,1.1261639178706673,-1.9689570208044194
1.8709393189730892,21.132501033584205,-0.07198973607234488,1.1074911123194342,-1.9025995808421066
1.8544950200836043,20.879888505999837,-0.0710041673144796,1.0891395623272249,-1.839017636651837
1.8382796001679005,20.631461153728264,-0.06999948412642333,1.07109828351255,-1.7780632673572865
1.8222970671322902,20.387148822492176,-0.06897906400931825,1.0533567707142995,-1.719597923603125
1.8065506905265627,20.14688372221815,-0.0679459499535298,1.0359049707989731,-1.6634917365430468
1.7910430748809079,19.910600325980596,-0.06690288174781664,1.0187332573536472,-1.6096228848135818
1.7757762261910386,19.67823527456755,-0.06585232425104622,1.0018324071076197,-1.5578770140333067
1.7607516122141247,19.449727286286958,-0.06479649293950998,0.9851935779410194,-1.5081467039379113
1.7459824526701255,19.22516407912995,-0.06363098135613512,0.9675299625547031,-1.4852845989447192
1.7314788301370938,19.004646539977546,-0.06248747545283522,0.950013856161851,-1.4656868098782208
1.7172355498582546,18.788141289356474,-0.061367135667505325,0.9326404970648571,-1.449180630286444
1.7032471748468012,18.5756160177445,-0.06027090791035176,0.9154053430392686,-1.4355996525822343
1.6895080732276524,18.36703943638534,-0.05919954095181063,0.898304060083831,-1.4247833278287996
1.6760124617346461,18.162381230591937,-0.05815360246563556,0.8813325120327397,-1.416576547436522
1.662754445660792,17.961612015345892,-0.05713349382874855,0.8644867509763238,-1.4108292447561668
1.6497280555368157,17.76470329301278,-0.056139463771044576,0.847763008442053,-1.4073960146805373
1.6369272807926705,17.57162741300325,-0.05517162096065399,0.8311576872930294,-1.4061357494784095
1.6243461006378366,17.38235753321935,-0.054229945603118716,0.8146673543060748,-1.406911289182403
1.6119785123789354,17.19686758313359,-0.05331430012645553,0.7982887333961945,-1.409589084937274
1.5998185573773114,17.01513222835528,-0.0524244390181009,0.7820186994586488,-1.4140388737877907
1.5878603448346968,16.83712683654506,-0.051560017874200365,0.7658542728041355,-1.420133363446567
1.5760980735817582,16.66282744454341,-0.050720601716570335,0.7497926141667349,-1.4277479256325776
1.564526052032147,16.49221072658338,-0.04990567262787667,0.7338310202683276,-1.4367602966109994
1.5531387164535646,16.325253963460888,-0.04911463675109975,0.7179669199272273,-1.4470502835949117
1.5419306476972454,16.161935012538436,-0.048346830695151895,0.7021978707028038,-1.458499475689506
1.5308965865180806,16.00223227845934,-0.04760152738454401,0.6865215560719673,-1.4709909580699976
1.5200314476093264,15.846124684450238,-0.04687794138722995,0.6709357831375865,-1.4844090280855344
1.509330332468412,15.69359164408899,-0.046175233751157556,0.6554384808732753,-1.4986389119731225
1.4987885412037207,15.544613033413505,-0.04549251637659308,0.6400276989135574,-1.5135664808479634
1.4884015833864004,15.399169163244569,-0.044828855947930325,0.6247016069032729,-1.5290779646096473
1.4781651880461655,15.257240751591784,-0.04418327744541731,0.6094584944252799,-1.5450596623673518
1.4680753129057322,15.1188088960068,-0.04355476725400085,0.5942967715311086,-1.5613976479416385
1.458128152944946,14.983855045741613,-0.042942275883272533,0.5792149699053138,-1.577977468945727
1.448320148382804,14.852360973561897,-0.04234472030926536,0.5642117447009292,-1.5946838378855643
1.4386479921634985,14.724308747055854,-0.041760985945565786,0.549285877090745,-1.6114003136460733
1.4291086370312573,14.59968069926789,-0.04118992824783399,0.5344362775872049,-1.6280089716515682
1.419699302278239,14.478459398473206,-0.04063037395232733,0.5196619901926451,-1.6443900609027735
1.4104174802500054,14.360627616894131,-0.04008112194535409,0.5049621974514896,-1.6604216460033236
1.4012609426942695,14.246168298141207,-0.0395409437566983,0.49033622648697234,-1.675979232198112
1.3922277470406712,14.135064523141743,-0.039008583665894984,0.47578355611707346,-1.6909353713589625
1.383316242702434,14.027299474295141,-0.03848275840573325,0.46130382515772195,-1.7051592467762993
1.3745250774948936,13.922856397567866,-0.03796215644244308,0.44689684203597496,-1.7185162345580338
1.3658532042712557,13.82171856221077,-0.03744543680658341,0.4325625958518387,-1.7308674394117927
1.3572998878826026,13.723869217747684,-0.03693122744257302,0.4183012690445593,-1.7420692026120697
1.3488647125773443,13.629291547846261,-0.03641812303793416,0.40411325183736274,-1.7519725800553179
1.3405475899651558,13.53796862063983,-0.03590468228544532,0.38999915865334084,-1.7604227885186579
1.3323487676822714,13.449883335022616,-0.035389424522244084,0.3759598467137296,-1.7672586186107155
1.324268838909117,13.365018362390128,-0.03487082567909863,0.3619964370470283,-1.7723118135038876
1.3163087529081166,13.28335608324231,-0.034347313460035334,0.34811033815139103,-1.7754064134599432
1.3084698267697152,13.204878518010425,-0.0338172616564979,0.33430327256065717,-1.7763580675352646
1.3007537585790063,13.12956725141132,-0.033278983480100915,0.3205773065619771,-1.7749733158582968
1.293162642244993,13.057403349577896,-0.03273072377218757,0.3069348832938844,-1.7710488487594926
1.285698984271038,12.988367269167124,-0.032170649914378624,0.29337885940847913,-1.7643707531494097
1.2783657227907594,12.922438757614565,-0.03159684121847894,0.27991254539640426,-1.7547137623639588
1.271166249251866,12.85959674369819,-0.031007276511028085,0.2665397495285898,-1.7418405338935572
1.264104433206093,12.79981921761182,-0.030399819539173964,0.25326482513549425,-1.7255009909088999
1.2571846507638382,12.74308309985437,-0.02977220169782312,0.24009272058146655,-1.7054317795680967
1.2504118174082863,12.689364098452401,-0.029122001393933058,0.227029030740018,-1.681355916498421
1.2437914260523075,12.638636554402783,-0.02844661909284004,0.2140800479523205,-1.6529827319989792
1.2373295914874776,12.590873275825551,-0.027743246688290677,0.2012528092410152,-1.6200082576640809
1.2310331027565762,12.54604536226105,-0.027008829232591562,0.18855513479812483,-1.5821162665997555
1.2249094855377125,12.504122021978851,-0.026240016148830744,0.17599565026449193,-1.5389802557471064
1.2189670774497627,12.465070387289696,-0.025433097659427598,0.1635837818151181,-1.49026676978006
1.2132151204126007,12.428855335928787,-0.02458392005502412,0.15132970827974176,-1.4356406119586043
1.2076638760309433,12.395439330930444,-0.023687770220258638,0.13924424822758674,-1.3747726752528262
1.2023247727335327,12.364782297389453,-0.022739214974615528,0.12733865212884593,-1.3073513571132755
1.1972105975614376,12.336841562377565,-0.021731873478384605,0.11562426101802711,-1.233098777356477
1.1923357517526434,12.311571894009962,-0.02065809007634677,0.10411198565678942,-1.1517932478231931
1.1877165986116562,12.28892568634889,-0.0195084589757153,0.092811559222086,-1.063299516764355
1.183371946000164,12.26885334574704,-0.018271128950305443,0.08173053296789978,-0.9676079645385229
1.1793237262015144,12.251303935007968,-0.01693078234230009,0.07087303867619345,-0.8648826745103856
1.1755979662917726,12.236226111716224,-0.015467129916324339,0.0602384682085243,-0.7555153899464323
1.1722261897251247,12.22356933406089,-0.013852666315395716,0.04982046792482275,-0.6401769297375453
1.1692474749258395,12.213285166669532,-0.012049201504476912,0.03960707460871078,-0.5198494151779348
1.1667115865688393,12.20532824678422,-0.01000200159987247,0.029583533089651205,-0.3958135669450034
1.1646841389892773,12.199655945702037,-0.007627977352841585,0.019740824146707223,-0.2695609225035893
1.1632567705484875,12.196224411695983,-0.004783922132286667,0.01009860199288228,-0.142608658422672
1.1625769160714217,12.194971729991458,-0.0011278559291559229,0.0007942823942782198,-0.01625068608949301
