x,y,v_x,v_y,omega
2.375,32.48,0.0,2.051282051282051,-6.530612244897959
2.3742870753507184,32.11402573242006,-0.007921384992016525,2.0150986996061393,-6.257488245707282
2.3722214920173452,31.754479136839777,-0.015029540934355514,1.9798634735081357,-6.000425401901971
2.368942768003198,31.401193746061445,-0.021400725889499476,1.945529757362204,-5.758134940007352
2.364577406845431,31.054011176124018,-0.027103286974581683,1.9120543530536633,-5.5294553928286865
2.3592402368499235,30.71278054275253,-0.0321986018643873,1.8793971288517473,-5.313337764431143
2.353035592514055,30.377357936866588,-0.03674189075637713,1.8475207143254,-5.108832699695662
2.3460583596028943,30.04760595150434,-0.04078291936762987,1.8163902341439981,-4.9150793481512745
2.3383949019775,29.723393253693676,-0.04436660980341804,1.7859730748633889,-4.731295666155285
2.3301238855102064,29.404594195772848,-0.04753357316650993,1.7562386798124514,-4.556769945221594
2.321317012139693,29.091088461468132,-0.05032057539475166,1.7271583680177294,-4.390853389679299
2.312039675223792,28.78276074270695,-0.05276094589303672,1.6987051737731784,-4.23295359563522
2.302351545766469,28.479500443706502,-0.05488493696610224,1.670853704009582,-4.082528806769327
2.2923070977688482,28.181201409349534,-0.05672004078524456,1.6435800110678627,-3.9390828418622146
2.2819560798362715,27.887761675256804,-0.05829126957671847,1.6168614788513596,-3.8021606049596057
2.2713439392272425,27.599083237302654,-0.059621403856934325,1.5906767206392016,-3.6713441023657607
2.2605122037259484,27.315071838606293,-0.06073121282411204,1.5650054870981138,-3.546248901735516
2.2494988260339914,27.035636772275602,-0.06163965041985703,1.5398285832429048,-3.4265209778091537
2.238338494789448,26.76069069838907,-0.06236403007506992,1.5151277932741465,-3.311833897129519
2.227062915816535,26.490149473880976,-0.06292018073507362,1.4908858123713231,-3.2018863006572005
2.215698727534903,26.223939628354145,-0.06334857794972487,1.467001360149024,-3.093935267330785
2.2042683427987155,25.96199033344147,-0.06365569689680474,1.4435463611029389,-2.990580430382116
2.192792636248193,25.704225631688068,-0.06385215366455435,1.4205058806015132,-2.891573498572665
2.181290651622185,25.45057219256848,-0.06394767551331701,1.3978656651716788,-2.796682188619778
2.1697797547039888,25.200959193559033,-0.06395117913330375,1.3756121015999665,-2.705689019987137
2.158275772853087,24.955318208296426,-0.06387084143227251,1.3537321790956727,-2.618390213571741
2.1467931223970154,24.713583101296436,-0.06371416363519143,1.3322134542375488,-2.5345946841563887
2.135344925024968,24.47568992875408,-0.06348802938755639,1.311044018455306,-2.454123117603787
2.123943114207319,24.241576844988998,-0.06319875747521111,1.2902124678233904,-2.376807124740998
2.1125985325611327,24.011184014137818,-0.06285214970463326,1.2697078749675026,-2.30248846473894
2.1013210209892574,23.784453526729326,-0.062453534427313204,1.2495197629046222,-2.231018331546605
2.090119500338299,23.56132932080894,-0.0620078061388935,1.2296380806552116,-2.162256697606626
2.0790020462474543,23.341757107306577,-0.061519461537158565,1.2100531804821455,-2.0960717096692103
2.0679759577947374,23.125684299366938,-0.060992632381919695,1.1907557966249727,-2.03233913204487
2.05704782048864,22.913059945383736,-0.06043111546360605,1.171737025410628,-1.970941833101263
2.046223564100936,22.70383466549982,-0.05983839995532817,1.152988306632845,-1.911769311222966
2.0355085157894246,22.497960591353646,-0.059217692394795,1.1345014061024508,-1.8547172568214119
2.024907448917338,22.29539130886926,-0.05857193951728064,1.116268399279609,-1.799687147310934
2.0144246279383218,22.096081803902464,-0.05790384913845817,1.0982816559070214,-1.7465858722605754
2.00406384968192,21.89998841056951,-0.05721590926600295,1.0805338255702321,-1.6953253861941404
1.993828481343879,21.707068762097606,-0.05651040560112136,1.0630178241175836,-1.645822386746444
1.9837214954579987,21.51728174404799,-0.055789437575324966,1.0457268208781387,-1.597998016094994
1.9737455021013934,21.330587449773063,-0.05505493305362151,1.0286542266210812,-1.5517775837761272
1.9639027785625303,21.146947137978735,-0.054308661822636835,1.0117936822047955,-1.50709030916533
1.954195296681117,20.966323192272174,-0.05355224797084578,0.9951390478680734,-1.4638690820551987
1.9446288616997787,20.788921966521492,-0.05274147404402229,0.9759856826950845,-1.4740899485352938
1.9352060111687508,20.614957730308134,-0.051956865189619186,0.9569502752311072,-1.4861164042300639
1.9259220652463533,20.444409526691963,-0.0511980895036871,0.9380297649485383,-1.4998197571574843
1.916772411899414,20.277256937521962,-0.05046472546230478,0.9192212258292762,-1.515073686918916
1.907752522389273,20.113480059572822,-0.04975626909481616,0.9005218624945059,-1.5317539698535398
1.898857965518784,19.95305948133557,-0.04907214057728635,0.8819290068083191,-1.5497382082345357
1.8900844207414553,19.795976260377273,-0.04841169028191961,0.8634401149505287,-1.568905562392833
1.881427690227751,19.64221190118556,-0.047774204314796585,0.8450527649573822,-1.5891364846523106
1.8728837099780247,19.491748333413483,-0.047158909571051774,0.826764654732346,-1.6103124539507694
1.864448560066615,19.344567890439627,-0.04656497833349952,0.8085736005327611,-1.6323157100037173
1.8561184740972068,19.200653288156897,-0.04599153243770261,0.7904775359420064,-1.6550289858428737
1.8478898479456953,19.059987603901433,-0.045437647023536795,0.7724745113408928,-1.678335237528127
1.83975924786344,18.92255425543008,-0.04490235389041212,0.7545626938964127,-1.7021173697902963
1.831723418010963,18.788336979851234,-0.044384644470442616,0.7367403680907375,-1.726257956312256
1.8237792874898346,18.657319812409398,-0.04388347243098345,0.7190059368185552,-1.7506389532976334
1.8159239769386915,18.52948706501794,-0.04339775591505192,0.701357923086549,-1.775141404909269
1.8081548047580698,18.40482330442819,-0.04292637942518747,0.6837949723551073,-1.7996451390839843
1.80046929302801,18.28331332991499,-0.04246819535325518,0.6663158555693206,-1.8240284521460834
1.7928651731822196,18.164942150349688,-0.04202202515552481,0.6489194729340471,-1.848167780549927
1.7853403915030102,18.049694960520945,-0.04158666016902707,0.6316048584964272,-1.8719373579826695
1.777893114502248,17.937557116551474,-0.041160862061660995,0.6143711856087959,-1.895208855953308
1.7705217342552704,17.82851411024468,-0.04074336290475674,0.5972177733556014,-1.9178510058857268
1.7632248737570961,17.722551542179094,-0.040332864852735816,0.580144094039797,-1.9397292006247848
1.7560013923734412,17.619655093350154,-0.039928039410097996,0.5631497818373294,-1.9607050731605598
1.7488503914630305,17.519810495137932,-0.039527526261131554,0.5462346427429047,-1.9806360502836295
1.7417712202526119,17.423003497355914,-0.03912993163240862,0.529398665946211,-1.9993748788137204
1.734763482051998,17.329219834109182,-0.03873382615218983,0.5126420367952284,-2.0167691220091855
1.7278270409035235,17.23844518716063,-0.03833774216419426,0.4959651515220653,-2.0326606237851896
1.7209620287686391,17.15066514647024,-0.03794017044563016,0.4793686339266994,-2.0468849384714365
1.7141688533641681,17.06586516753572,-0.03753955627071478,0.46285335423462015,-2.059270724063543
1.7074482067722272,16.98403052512176,-0.037134294750850914,0.44642045036490313,-2.069639097318041
1.7008010749612805,16.90514626292112,-0.03672272537077923,0.43007135186444173,-2.0778029496816766
1.694228748371585,16.829197138643124,-0.036303125625837776,0.4138078067799652,-2.08356622403095
1.6877328337369262,16.75616756397551,-0.035873703648149506,0.3976319117490952,-2.0867231536654294
1.6813152673366736,16.68604153881494,-0.035432589687992164,0.38154614559055244,-2.087057467138548
1.6749783298987326,16.618802579112835,-0.03497782628912786,0.36555340665506186,-2.0843415655854205
1.668724663406218,16.554433637640134,-0.03450735696103595,0.34965705415273235,-2.078335683582368
1.6625572901004406,16.4929170169437,-0.03401901310315532,0.3338609535854263,-2.0687870507506347
1.6564796340227739,16.434234273757326,-0.03351049887092092,0.3181695262631644,-2.0554290799934813
1.6504955455019852,16.378366114155856,-0.03297937358228773,0.3025878026420736,-2.0379806203941127
1.6446093290775217,16.32529227882202,-0.03242303113397267,0.287121478844997,-2.016145329730139
1.6388257754616031,16.274991417962124,-0.031838675709567575,0.2717769751538327,-1.9896112451048042
1.6331501982968677,16.22744095570144,-0.03122329278749183,0.25656149440933007,-1.9580506628508885
1.6275884766814794,16.182616944274546,-0.03057361405015469,0.24148307700059296,-1.9211204840020832
1.6221471047401348,16.140493909086487,-0.029886074187007845,0.22655064731117044,-1.8784632437283373
1.616833249963338,16.101044686877653,-0.029156756666290824,0.2117740438980864,-1.829709127979749
1.6116548226890592,16.064240260942555,-0.02838132415902866,0.19716402204743647,-1.774479395286998
1.606620560068193,16.030049599844844,-0.027554927183929726,0.1827322123715809,-1.7123917741857837
1.6017401293023776,15.998439509605323,-0.02667208132513082,0.1684910125119724,-1.6430686042339366
1.5970242571187498,15.969374514215787,-0.02572649849295397,0.15445338070510672,-1.5661487332618607
1.5924848957248527,15.942816785812557,-0.0247108503281262,0.14063249044190426,-1.4813044632517214
1.588135440421568,15.918726153985194,-0.023616430819481758,0.1270411965287883,-1.388265106742104
1.583991021448611,15.897060232971292,-0.022432668880037896,0.11369125918123194,-1.2868488606563968
1.5800689036550184,15.877774714052535,-0.021146417715437106,0.10059228436049551,-1.1770044814389642
1.5763890439135655,15.860823873840072,-0.019740912745149768,0.08775038466688637,-1.0588631966442725
1.572974880506335,15.846161338128955,-0.0181942362240785,0.07516667878995756,-0.9327986694018623
1.5698544662151401,15.833741099003877,-0.01647703367808667,0.06283597815535952,-0.7994876927166608
1.5670621209170208,15.823518683157406,-0.01454902518990531,0.05074642013876357,-0.659956028403751
1.564640911765145,15.815452171463058,-0.01235329871982677,0.03888148757622749,-0.5155835905565949
1.562646615821198,15.809502396524039,-0.00980554510180755,0.027227122857320468,-0.36803582810090657
1.5611549822298034,15.805630806615167,-0.006768161469241937,0.015790542796820673,-0.21909174543167192
1.5602795921526473,15.803790219355577,-0.0029583949436029085,0.004660426754181206,-0.07036813382150162
