x,y,v_x,v_y,omega
2.375,32.48,0.0,2.923076923076923,-5.551020408163265
2.3736677732580485,31.873391066078227,-0.01268787373287312,2.854151019035183,-5.1964796016635555
2.3698672734747315,31.280957040968524,-0.023507362298714325,2.7880777915334045,-4.875831674279586
2.3639631402812293,30.70211922269784,-0.032722477639404876,2.7246633348540747,-4.584864382621876
2.3562688391997937,30.136337649379193,-0.04055658027902664,2.6637326015139746,-4.319987291722046
2.347054469200956,29.583107402854353,-0.047199324471809335,2.605126889198798,-4.0781266108208
2.3365532504042594,29.04195539449624,-0.05281228311577832,2.548701761830841,-3.856640053093627
2.324966939838484,28.512437551575587,-0.05753353179637137,2.494325313603944,-3.653247470471372
2.3124703714133363,27.99413633943005,-0.06148140558598521,2.441876706829758,-3.4659740121038567
2.2992152764959495,27.486658567503007,-0.06475759362722053,2.3912449305706356,-3.293103295119442
2.2853335106490023,26.98963343719981,-0.06744970015323157,2.342327738983623,-3.1331386315543712
2.270939787960846,26.502710797196123,-0.06963337306730322,2.2950307372419805,-2.9847707760183537
2.256134005372597,26.025559577871626,-0.07137408015411795,2.2492665896580126,-2.8468509803384414
2.241003224297301,25.557866381330022,-0.07272859675346321,2.204954329785797,-2.71836838944761
2.2256233647486288,25.099334207296195,-0.07374625609102961,2.16201875625066,-2.598431005492642
2.210060657485706,24.64968129827081,-0.0744700035558565,2.120389901133957,-2.4862495979266797
2.194372891830728,24.208640089835434,-0.07493728839631608,2.0800025601553274,-2.3811240561166116
2.1786104904388615,23.77595625406008,-0.07518082009765001,2.04079587580044,-2.28243177510498
2.1628174370954327,23.351387825664837,-0.07522921174452601,2.0027129660590357,-2.1896177401608767
2.147032079349863,22.934704401999923,-0.07510752868947393,1.9657005926544249,-2.1021860358326285
2.1312878242858693,22.525686409090255,-0.07483775763427253,1.9297088636281112,-2.0196925535821815
2.1156137428285238,22.124124426985347,-0.0744392086261645,1.8946909659424385,-1.941738711201114
2.1000350955860303,21.729818568497436,-0.07392886034996296,1.8606029244185995,-1.8679660289878863
2.0845737912260898,21.34257790612748,-0.07332165736375619,1.827403383866691,-1.7980514335896627
2.069248786719981,20.96221994259175,-0.07263076650394287,1.7950534117116796,-1.7317031816420625
2.0540764373930247,20.58857012088886,-0.07186779851469269,1.763516318792069,-1.6686573127913105
2.0390708035500325,20.221461370302013,-0.0710429999899923,1.7327574963207646,-1.6086745560791968
2.024243919459984,19.860733685125904,-0.07016541991523305,1.7027442672612154,-1.5515376255872702
2.009606029653795,19.50623373325098,-0.06924305442942091,1.6734457505951887,-1.4970488511320639
1.995165796786926,19.15781449203789,-0.06828297287409558,1.6448327371485505,-1.445028098046182
1.9809304847233702,18.815334909177885,-0.06729142773119935,1.6168775758038514,-1.395310936967216
1.966906119991932,18.47865958646635,-0.06627395066344884,1.5895540690679422,-1.3477470303273391
1.9530976343351254,18.1476584846205,-0.06523543654423287,1.5628373770829964,-1.30219870708538
1.9395089907036276,17.822206647453093,-0.0641802170890805,1.5367039292732414,-1.258539701328396
1.9261432947350676,17.502183943873863,-0.0631121254686336,1.511131342909918,-1.2166540338204528
1.9130028934867582,17.187474826332988,-0.06203455308669367,1.486098347955549,-1.1764350184983088
1.9001073831299833,16.87797146079069,-0.06077983126354417,1.4615527524473013,-1.1329699472328174
1.8874739639880984,16.57356994219129,-0.05953844627821596,1.4375093294517434,-1.0915595469884478
1.8750996843375218,16.274166754654587,-0.058311836108228585,1.4139495994692344,-1.0520817781018532
1.8629813153284753,15.979662170871787,-0.05710120207316489,1.390855960366954,-1.0144232265998918
1.8511153976725923,15.689960073363498,-0.05590753750667364,1.368211634950102,-0.9784783979829342
1.8394982826648731,15.404967786354298,-0.05473165304303369,1.3460006222803604,-0.9441490765316118
1.8281261682075904,15.124595917509854,-0.05357419893108682,1.324207652428615,-0.9113437433566385
1.816995130422606,14.848758208845062,-0.05243568473543061,1.3028181443789109,-0.8799770471842044
1.8061011513677891,14.577371396168406,-0.051316496739016323,1.2818181668273487,-0.849969322546214
1.7954401433114149,14.310355076478967,-0.05021691332169229,1.2611944016435033,-0.8212461506382465
1.7850079699643726,14.047631582779154,-0.04913711855489841,1.2409341097833007,-0.7937379586296281
1.7748004650227027,13.789125865808455,-0.048077214222911224,1.2210250994614429,-0.7673796536688863
1.7648134483315083,13.534765382242096,-0.04703723045513047,1.2014556964086431,-0.7421102882322461
1.755042739944928,13.284479988933477,-0.046017135131348676,1.1822147160543837,-0.717872753819746
1.7454841723248953,13.038201842811336,-0.045016842202296056,1.1632914374898158,-0.6946135003189956
1.7361336008933401,12.795865306071718,-0.04403621905060964,1.1446755790779584,-0.6722822786358198
1.726986913127774,12.557406856331617,-0.043075093002401844,1.1263572755896665,-0.6508319044385062
1.7180400363684383,12.322765001435524,-0.04213325708650984,1.1083270567540793,-0.6302180410820188
1.709288944486015,12.091880198628587,-0.041210475127044774,1.0905758271215151,-0.610398999973738
1.7007296635419697,11.864694777830586,-0.04030648624481482,1.0730948471451762,-0.5913355568159867
1.6923582765586538,11.6411528687638,-0.03942100883438439,1.055875715395642,-0.5729907823153615
1.6841709275030852,11.421200331705208,-0.03855374407579374,1.0389103518290532,-0.5553298860869449
1.6761638245766448,11.204784691649358,-0.03770437903316164,1.0221909820361785,-0.5383200726047797
1.6683332428925897,10.991855075683006,-0.036872589386409665,1.005710122405287,-0.5219304081602458
1.6606755266141238,10.782362153386067,-0.03605804183707657,0.9894605661369755,-0.5061316978886888
1.6531939892563878,10.576403928420689,-0.035194694903266974,0.972046338295191,-0.5187539928343391
1.6458896313808453,10.374090398906823,-0.03437061819713703,0.9547491808844717,-0.5334119166891479
1.6387542594276328,10.175397326544608,-0.033585305166792145,0.9375657939937649,-0.5499880173394247
1.631779794779809,9.980301152134345,-0.03283816766962398,0.9204930099135112,-0.568368142509905
1.6249582900763286,9.788778968403186,-0.032128543792095614,0.9035277875260971,-0.5884411803956592
1.6182819439509777,9.600808493963019,-0.03145570502076919,0.886667207142146,-0.6100988090833158
1.6117431143285674,9.416368048307987,-0.030818862811709563,0.8699084657629255,-0.6332352537318762
1.605334330400186,9.235436527763937,-0.030217174601447138,0.8532488727518246,-0.6577470505167204
1.59904830339064,9.057993382305447,-0.029649749298992,0.8366858459004604,-0.6835328163667702
1.5928779362232781,8.884018593158757,-0.029115652294930492,0.820216907877533,-0.71049302354431
1.5868163321801707,8.713492651111252,-0.028613910020378407,0.803839683051094,-0.7385297781297554
1.580856802649055,8.546396535449755,-0.02814351408548622,0.7875518946774456,-0.7675466014796763
1.5749928740425307,8.382711693451114,-0.027703425024267044,0.7713513624524864,-0.7974482137255682
1.5692182939696617,8.222420020349084,-0.02729257566972353,0.7552360004239875,-0.8281403183730736
1.5635270367353817,8.06550383970163,-0.026909874180562992,0.7392038152660567,-0.8595293870463718
1.557913308238913,7.9119458840820975,-0.026554206738187317,0.7232529049199662,-0.8915224433999882
1.5523715503387425,7.761729276016595,-0.02622443993010333,0.7073814576086224,-0.9240268451899724
1.546896444748575,7.614837509087984,-0.025919422833396655,0.6915877512352837,-0.9569500634578162
1.5414829165260788,7.471254429124301,-0.025637988809424177,0.6758701531807436,-0.99019945773312
1.536126137214159,7.330964215386022,-0.025378957018382182,0.6602271205171392,-1.0236820461042817
1.5308215276929422,7.193951361662329,-0.025141133659873194,0.644657200660894,-1.05730426893973
1.5255647607996408,7.060200657181262,-0.024923312942997152,0.6291590324921199,-1.0909717449647185
1.520351763773012,6.929697167232405,-0.024724277786802046,0.6137313479731796,-1.1245890183096794
1.5151787205792409,6.802426213393183,-0.02454280024911408,0.598372974305141,-1.1580592950447899
1.5100420741768104,6.678373353241042,-0.024377641678792854,0.5830828366676376,-1.1912841676009196
1.5049385287792922,6.557524359423432,-0.02422755258328503,0.5678599615953244,-1.224163325348742
1.4998650521770538,6.439865197945377,-0.02409127219993836,0.5527034810528114,-1.2565942494648368
1.4948188781816971,6.325382005520449,-0.023967527755840063,0.5376126372798342,-1.2884718900556442
1.4897975092606586,6.214061065814651,-0.02385503339690683,0.52258678848966,-1.3196883233370595
1.4847987194339187,6.105888784394001,-0.02375248876251935,0.5076254155165286,-1.3501323864797288
1.4798205575102594,6.0008516621649015,-0.023658577177094943,0.49272812952250744,-1.3796892875290712
1.4748613507470865,5.898936267071509,-0.023571963424551465,0.47789468089074144,-1.408240187597276
1.4699197090256262,5.80012920378563,-0.023491291065545098,0.4631249694509492,-1.435661752306488
1.4649945296424352,5.704417081091819,-0.02341517925056108,0.44841905620441314,-1.461825669245258
1.4600850028288272,5.61178647663267,-0.023342218974277004,0.43377717673987104,-1.486598127995191
1.4551906181221927,5.522223898636305,-0.023270968707955163,0.4191997565588378,-1.5098392591081973
1.4503111717274964,5.435715744198923,-0.023199949336771452,0.40468742855907197,-1.5314025282915076
1.4454467750237745,5.352248253639619,-0.02312763831772305,0.3902410529580981,-1.55113408202362
1.4405978643895319,5.271807460381687,-0.023052462960776746,0.37586173997456856,-1.5688720409318095
1.4357652125429639,5.19437913574394,-0.022972792720824725,0.3615508756230169,-1.5844457375859988
1.4309499416184006,5.119948727946873,-0.02288693037025513,0.34731015101572466,-1.5976748960128078
1.4261535382299457,5.048501294552075,-0.022793101900742012,0.3331415956013982,-1.6083687513626252
1.4213778708077742,4.980021427459949,-0.022689444977083254,0.31904761479981425,-1.6163251099938933
1.4166252095331227,4.914493169492669,-0.022573995733885244,0.3050310325076257,-1.6213293530911532
1.4118982492462329,4.851899921490432,-0.022444673665065615,0.29109513894223643,-1.6231533912636962
1.4072001357596275,4.792224338756174,-0.022299264302603157,0.2772437442411776,-1.6215545840357046
1.4025344960804513,4.735448215608475,-0.022135399308598445,0.2634812381178788,-1.6162746476784904
1.3979054731351406,4.681552356762662,-0.021950533503885972,0.24981265565177357,-1.6070385888045968
1.3933177657049902,4.630516434284523,-0.021741918211830198,0.2362437489019218,-1.5935537214874007
1.3887766744340357,4.582318828993891,-0.021506570082973377,0.2227810633898006,-1.5755088551797993
1.3842881549795716,4.536936455503987,-0.021241234245258405,0.2094320174664426,-1.5525737833732238
1.3798588796700197,4.49434457066841,-0.020942340131424514,0.1962049809676124,-1.524399264432954
1.3754963094618433,4.454516566222594,-0.020605947565495414,0.18310934708777243,-1.4906177743228033
1.3712087786226876,4.417423748072604,-0.020227679474080593,0.1701555876740264,-1.4508454369217068
1.3670055955347842,4.383035107321671,-0.01980263564880997,0.15735527662057,-1.4046857158068862
1.362897164509818,4.3513170921801105,-0.019325278874677394,0.14472105806094418,-1.3517356996078982
1.3588951358561114,4.322233395970475,-0.018789279732051502,0.13226652488795457,-1.291596150337977
1.3550125951599814,4.295744785234493,-0.018187298326330252,0.12000595831187692,-1.2238869229918738
1.3512643086642306,4.271809004176411,-0.017510668299867988,0.10795386128890466,-1.1482698912005367
1.3476670510534088,4.250380807611041,-0.016748927993672565,0.09612420123844184,-1.0644820415051033
1.3442400569100954,4.231412193035144,-0.015889111466454338,0.0845292709129511,-0.9723816737655274
1.341005660686726,4.214852918537854,-0.014914662089444471,0.07317810525172867,-0.8720100709598245
1.3379902271055284,4.200651394226433,-0.013803752969580727,0.06207450723799851,-0.7636683851971121
1.3352255331381961,4.18875599310304,-0.012526665766915985,0.05121502727050403,-0.6480028650068458
1.3327508646512636,4.179116691770563,-0.011041605537203679,0.04058784256260116,-0.5260787203670422
1.3306163010925605,4.171686637575611,-0.009287571212348952,0.030174578341716406,-0.3994039969738549
1.3288882365116863,4.166422589906119,-0.007170186700737708,0.01995920898679176,-0.2698473342598815
1.3276603494094723,4.16328160031226,-0.0045239761774905985,0.009954977621396322,-0.13939454920187605
1.3270863188292001,4.162203503551929,-0.0009429817298631455,0.0003126105722431119,-0.009761468492093195
