x,y,v_x,v_y,omega
2.375,32.48,0.0,3.7435897435897436,-7.142857142857143
2.3733699560652983,31.814657386827534,-0.018111599274462136,3.6491059583265257,-6.646702192916128
2.36873881372618,31.165935483001704,-0.033345537826857445,3.558915195293805,-6.202517043379386
2.361584856893051,30.533090116838313,-0.04614287143013109,3.47269998429943,-5.80326910899977
2.3523136041753068,29.915431234396433,-0.05687104765591253,3.390176487277007,-5.443052402675277
2.341269833511261,29.312317284720546,-0.06583751527793082,3.3110896202328517,-5.1168812252872025
2.3287474086598348,28.72315040078339,-0.07330053862680252,3.235209090179978,-4.820526307309897
2.3149973532584793,28.14737223014475,-0.07947785472159363,3.162326139138244,-4.550383686062133
2.3002345178816856,27.584460301894403,-0.08455364946500142,3.092250841421169,-4.30336905790293
2.2846431102702214,27.033924840654908,-0.08868421288460249,3.024809839017665,-4.0768321195713515
2.2683813017520342,26.495305956647798,-0.09200254842858488,2.9598444277279956,-3.8684867125703035
2.251585079035586,25.96817115471704,-0.0946221484208435,2.897208927058183,-3.67635354743099
2.234371476617865,25.452113115909828,-0.09664010066494272,2.836769281910856,-3.498713005736577
2.2168412985609085,24.94674771355696,-0.09813965552346564,2.7784018553432586,-3.334066062930243
2.199081417564403,24.451712232362965,-0.09919235554881327,2.721992380145573,-3.1811017907377988
2.181166722778294,23.966663764238085,-0.09985980874129341,2.6674350434642053,-3.0386702177537894
2.1631617746734135,23.491277758795025,-0.10019517020181688,2.6146316836808774,-2.9057595744062317
2.1451222147779054,23.02524670982644,-0.10024438419271786,2.5634910826367094,-2.781477141684619
2.1270959696281344,22.568278961849018,-0.1000472285825197,2.5139283393346883,-2.6650330746392505
2.1091242814423383,22.120097623079108,-0.0996381957041018,2.465864313664281,-2.555726691377655
2.0912425924691833,21.680439573093842,-0.09904723733095513,2.4192251306164247,-2.452934813332644
2.073481305431874,21.249054555007838,-0.09830039641692316,2.3739417370058624,-2.356101818430846
2.055866438778245,20.825704343319682,-0.097420344178955,2.3299495039736473,-2.264731129621927
2.0384201923982803,20.41016197970091,-0.09642683782065471,2.287187869568277,-2.178377910236891
2.0211614369562945,20.00221106995051,-0.09533711153474182,2.245600016547279,-2.0966427772988836
2.004106137904883,19.60164513614974,-0.09416621125872189,2.2051325812389977,-2.019166376129518
1.9872677235213858,19.20826701874855,-0.09292728189124472,2.165735389885397,-1.9456246858751125
1.9706574048705658,18.821888323915267,-0.09163181422897727,2.1273612193732734,-1.8757249470953299
1.9542844543975177,18.442328912001297,-0.09028985769378015,2.089965579670867,-1.8092021202380797
1.9381564488506,18.06941642342391,-0.08891020393863677,2.053506515633438,-1.7458157984032725
1.9222794813913024,17.70298583866466,-0.08750054560911515,2.0179444261359993,-1.6853475098582158
1.9066583470387333,17.34287906942555,-0.08606761386387483,1.9832418987429976,-1.6275983557758633
1.8912967049981892,16.98894457828804,-0.08461729769772548,1.949363558340445,-1.572386936998229
1.8761972209174607,16.641037024486643,-0.0831547476437053,1.9162759283417579,-1.5195475305825965
1.861361691685914,16.29901693364437,-0.08168446604014792,1.8839473032390064,-1.4689284827114006
1.846791155027375,15.962750389525922,-0.08021038572139384,1.8523476314104352,-1.4203907894355268
1.8324859858280276,15.632108746049528,-0.07873593871579994,1.821448407216148,-1.3738068408360782
1.8184459808763254,15.306968357963324,-0.07726411630311412,1.7912225715194714,-1.3290593076627824
1.804670433466141,14.987210328738819,-0.07579752158782191,1.7616444198639396,-1.2860401524456415
1.79115819912106,14.672720274365538,-0.07433841557974642,1.7326895176169572,-1.2446497495685602
1.7779077535319079,14.363388101848383,-0.07288875763305287,1.7043346214625517,-1.2047961009122456
1.764917243657112,14.05910780131478,-0.07145024097579203,1.676557606688577,-1.1663941354788165
1.7521845328128156,13.759777250733567,-0.0700243239608345,1.6493373997693654,-1.1293650829520576
1.7397072404738985,13.465298032332853,-0.06861225758268986,1.6226539157941275,-1.093635912466471
1.727482777415672,13.175575259881217,-0.06721510973093661,1.5964880003351705,-1.0591388289896588
1.7155083767469805,12.890517416066047,-0.06583378658785993,1.570821375388948,-1.0258108206948404
1.7037811213169332,12.610036199265853,-0.06446905152377583,1.5456365890576658,-0.9935932515375323
1.6922979679180592,12.334046379070347,-0.06312154179704581,1.5209169686701633,-0.9624314939727562
1.6810557686570022,12.062465659953865,-0.06179178332581018,1.4966465770685229,-0.9322745973735487
1.6700586414517224,11.795216729425174,-0.06039851895507392,1.4727859843613715,-0.9009102296281275
1.659309590926198,11.532224833555553,-0.059035375772977794,1.4493461919677562,-0.8708682140228561
1.6488032275122793,11.273415493243533,-0.05770199549278461,1.4263131448324726,-0.8420779753628004
1.6385342304031623,11.018716705753889,-0.05639797238629238,1.4036733828302277,-0.8144734173487918
1.6284973553785007,10.768058840497016,-0.05512286122106061,1.3814140089127946,-0.7879925927608121
1.6186874412894632,10.521374540359151,-0.053876184212686966,1.359522659285703,-0.762577401187416
1.6090994153704368,10.278598628231695,-0.05265743710982887,1.3379874754638266,-0.7381733117332662
1.5997282975241758,10.039668018413831,-0.051466094515292785,1.3167970780679885,-0.7147291084006818
1.5905692037097423,9.80452163258645,-0.05030161453396989,1.2959405422362293,-0.6921966560753487
1.5816173485472156,9.573100320077145,-0.04916344282743727,1.275407374533838,-0.6705306852546143
1.572868047239655,9.345346782156085,-0.048051016145459126,1.255187491255723,-0.6496885938421969
1.564316716900903,9.121205500120972,-0.04696376539623149,1.235271198023307,-0.6296302644983968
1.5559588773673543,8.900622666946138,-0.04590111830986183,1.2156491705859536,-0.6103178961823762
1.5477901515625856,8.683546122286437,-0.04486250174312642,1.1963124367440583,-0.5917158486548486
1.5398062654755942,8.469925290640905,-0.04384734366788828,1.1772523593174236,-0.5737904988273875
1.5320030478062314,8.259711122494377,-0.04285507488058527,1.1584606200884546,-0.5565101079501295
1.5243764293250546,8.052856038267453,-0.04188513046582549,1.1399292046551204,-0.5398446987242856
1.516922441989235,7.849313874916472,-0.040936951043279365,1.1216503881335569,-0.5237659415108233
1.5096372178512096,7.649039835035527,-0.04000998382366925,1.1036167216547128,-0.508247048883001
1.502516987792379,7.45199043832228,-0.039103683496671045,1.0858210196035711,-0.4932626778390908
1.495558080110297,7.258123475278165,-0.03821751297090885,1.0682563475532714,-0.47878883905343494
1.4887569189843641,7.067397963021875,-0.03735094398389941,1.0509160108499374,-0.46480281259969125
1.4821100228420157,6.879774103102733,-0.036503457597750574,1.033793543807205,-0.45128306963038645
1.4756140026447038,6.6952132412075684,-0.03567454459460451,1.0168826994723827,-0.4382091995422849
1.46926556011061,6.513677828661457,-0.03486370578421282,1.0001774399288716,-0.4255618421981129
1.463061485888916,6.3351313856286815,-0.034070452234612345,0.9836719271019616,-0.41332262481230075
1.4570058078313783,6.15976567199619,-0.033214859515803274,0.9648360021479251,-0.4518948384597388
1.451099331391691,5.987781298104849,-0.03241265648072502,0.9461014855336419,-0.4916017566256976
1.4453326176423047,5.819160234896138,-0.03166194073467689,0.9274658834520422,-0.5323410132592621
1.4396965694885213,5.653884893243607,-0.030960816529581107,0.9089268015760731,-0.5740115839990358
1.434182430325261,5.491938106254203,-0.03030739639553285,0.8904819427506246,-0.616513558091064
1.4287817824234557,5.333303111952343,-0.02969980251341633,0.872129105047813,-0.659747911014084
1.4234865450913978,5.177963536281112,-0.0291361678427824,0.8538661801880719,-0.70361627678301
1.418288972654027,5.0259033763542575,-0.02861463701689403,0.8356911523325332,-0.7480207188739119
1.4131816522911944,4.877106983891341,-0.02813336701458016,0.81760209725542,-0.7928634986772656
1.4081575017744177,4.731559048766574,-0.027690527616272363,0.7995971819086658,-0.838046840340353
1.4032097671405155,4.589244582599264,-0.027284301649308663,0.781674664394778,-0.8834726908037335
1.3983320203398053,4.450148902310602,-0.02691288502524913,0.763832894368137,-0.9290424737699224
1.393518156896275,4.31425761356741,-0.02657448656953112,0.7460703138895407,-0.9746568362639297
1.388762393617303,4.181556594028596,-0.026267327641269093,0.7283854587639443,-1.0202153863541568
1.384059266391138,4.0520319763041,-0.025989641538342555,0.710776960397105,-1.0656164204972427
1.3794036281114799,3.925670130529163,-0.025739672680081038,0.6932435482133257,-1.110756638850615
1.3747906467701598,3.8024576464484205,-0.025515675556808306,0.675784052683824,-1.1555308467604832
1.3702158037611485,3.682381314894755,-0.02531591343220643,0.6583974090235759,-1.1998316404795117
1.3656748924419728,3.5654281085364765,-0.025138656780856167,0.6410826616239608,-1.2435490749961144
1.3611640170021544,3.4515851617533784,-0.024982181439349674,0.6238389692993561,-1.2865703116650071
1.3566795916925634,3.3408397494869995,-0.02484476644499484,0.6066656114382047,-1.3287792431152583
1.3522183404746995,3.2331792648928683,-0.024724691531269435,0.5895619951632575,-1.3700560926769318
1.3477772971549467,3.1285911956021977,-0.024620234243760745,0.5725276636219534,-1.4102769853103592
1.3433538060759254,3.0270630983770346,-0.024529666634254575,0.5555623055465448,-1.4493134867439903
1.3389455234452992,2.9285825719158005,-0.024451251483815477,0.5386657662449573,-1.4870321072298829
1.3345504193919346,2.8331372275350475,-0.024383237998011845,0.5218380602078555,-1.523293766014687
1.3301667808503261,2.740714657417257,-0.024323856908748873,0.5050793855453624,-1.5579532123061186
1.3257932153868799,2.6513024000732877,-0.024271314907319836,0.48839014049873647,-1.5908583982027864
1.321428656096234,2.5648879026206437,-0.024223788322079234,0.4717709423084043,-1.621849798768093
1.3170723677125258,2.4814584794244574,-0.024179415941345945,0.4552226487603402,-1.6507596741959432
1.3127239540997326,2.4010012665860074,-0.02413629086746679,0.43874638277797545,-1.6774112688806773
1.3083833673072676,2.3235031716931154,-0.024092451271033453,0.4223435604763674,-1.7016179422301838
1.3040509184023654,2.2489508181668754,-0.024045869894547073,0.406015923148509,-1.7231822263434993
1.299727290320005,2.1773304834497225,-0.023994442131679363,0.38976557370875664,-1.7418948063493263
1.2954135530048894,2.108628030180423,-0.02393597248071686,0.37359501817235574,-1.7575334204687911
1.2911111811592602,2.0428288293931196,-0.023868159137384364,0.35750721279768904,-1.7698616790132198
1.286822074956313,1.9799176746617846,-0.02378857645091639,0.34150561755047604,-1.778627804974662
1.2825485841334023,1.9198786859924972,-0.023694654914759063,0.32559425655271096,-1.7835633042213346
1.2782935359445577,1.8626952021509169,-0.023583658294624867,0.3097777861315136,-1.7843815814551112
1.2740602675316939,1.808349660013608,-0.02345265740386263,0.2940615709497031,-1.780776530307529
1.2698526633737555,1.7568234594696754,-0.02329849990656433,0.27845176842732056,-1.7724211441125655
1.2656751986013834,1.7080968124059623,-0.023117775342013456,0.2629554211694748,-1.7589662207173635
1.261532989134809,1.6621485744358822,-0.022906774286590745,0.24758055627587072,-1.7400392741289072
1.2574318498358479,1.618956058358112,-0.0226614401463113,0.23233628903270176,-1.7152438235753553
1.2533783621953802,1.5784948289784424,-0.02237731141443932,0.21723292629697016,-1.6841593149396292
1.2493799535614676,1.5407384800799804,-0.022049451184590483,0.20228206146372762,-1.6463420522535104
1.2454449906419407,1.5056583962582408,-0.021672359032375632,0.18749664766672128,-1.6013276944166241
1.2415828911399291,1.4732235054491625,-0.021239857656642262,0.17289102798969821,-1.5486361265611739
1.2378042591506084,1.443400032837019,-0.02074494222469906,0.15848088992301873,-1.4877798741308523
1.23412105277333,1.416151274197187,-0.020179573078396,0.14428309496401942,-1.4182777204488095
1.230546796949391,1.3914374175326607,-0.019534380520924648,0.1303153124196217,-1.3396758344395892
1.2270968619175113,1.3692154569964252,-0.018798230944406323,0.11659536020522512,-1.2515794888031526
1.2237888396408634,1.3494392627980467,-0.017957572129458782,0.10314013088787147,-1.1536992000673547
1.2206430698608632,1.332059893123784,-0.0169954254260995,0.08996397660392601,-1.0459154060112625
1.2176833983751048,1.317026251552054,-0.015889813304549277,0.07707648530417605,-0.9283645635357447
1.2149382996930387,1.3042861865586666,-0.014611283162852089,0.0644797924001385,-0.8015447159276506
1.2124425778082206,1.293788056930694,-0.013118960001793982,0.05216609235510589,-0.6664268548031613
1.2102400081023117,1.2854825723701993,-0.011354036730528202,0.04011706942816765,-0.5245367544908435
1.2083876280399148,1.2793242352221164,-0.00922796396276912,0.0283088988838487,-0.3779430695717188
1.2069634822332695,1.2752706631854664,-0.006595878333289529,0.016730790412245303,-0.22906815472433759
1.2060847425148924,1.273274777418763,-0.0031678963153458327,0.005445718106681282,-0.0802594789378265
