x,y,v_x,v_y,omega
2.375,32.48,0.0,2.3076923076923075,-4.938775510204081
2.374279398665507,32.04571459892303,-0.007585277205190487,2.2637329668020776,-4.702580716555792
2.3722000216207393,31.619657006530673,-0.014302902213416034,2.2210837952227527,-4.482659638555994
2.368917944054577,31.201584729692836,-0.020245282693555043,2.1796770135965478,-4.27751508844757
2.3645727047136407,30.79126767469253,-0.025494078789984838,2.1394498811435176,-4.085816083269755
2.359289215004151,30.388487239126256,-0.03012160236253844,2.100344177448861,-3.9063764804832295
2.3531794216976247,29.993035495674484,-0.03419201139037182,2.0623057536224403,-3.7381367363184594
2.3463437589517175,29.60471445563611,-0.03776233330338673,2.025284141518323,-3.5801482732419685
2.338872419536992,29.223335402068237,-0.04088334474635274,1.9892322118276977,-3.4315600372644717
2.3308464704056866,28.848718283958245,-0.04360033032002202,1.9541058735406391,-3.2916069009433255
2.322338833831468,28.480691164153807,-0.045953738882277786,1.9198638086113475,-3.159599628154595
2.313415152120936,28.119089714846027,-0.04797975280753679,1.8864672367337074,-3.0349161652762393
2.3041345512167837,27.763756755286582,-0.049710783025643884,1.8538797059972612,-2.9169940628112223
2.294550316275777,27.414541827157063,-0.05117590056389818,1.8220669058924424,-2.8053238635918314
2.284710490430305,27.071300803625547,-0.05240121359896671,1.79099649970245,-2.699443320017905
2.274658406365178,26.73389552864433,-0.053410197612895303,1.7606379737840725,-2.5989323244406113
2.264433159009385,26.402193483480765,-0.05422398507966095,1.7309625016218488,-2.5034084547108204
2.254070026513616,26.076067477845424,-0.054861620138960766,1.7019428208554308,-2.4125230517779848
2.2436008457244174,25.755395363298693,-0.05534028290523704,1.6735531217417374,-2.3259577586161613
2.2330543475470446,25.440059766888727,-0.05567548738289805,1.64576894573158,-2.2434214601188387
2.222456456888639,25.12994784320704,-0.05588125638979113,1.6185670930229892,-2.1646475723049714
2.211830561272536,24.8249510432497,-0.0559702764112964,1.5919255381069206,-2.089391636506408
2.201197751697807,24.524964898646743,-0.0559540349016353,1.5658233524505523,-2.0174291803977575
2.190577038872706,24.22988881997449,-0.05584294220469038,1.5402406335731578,-1.9485538129756401
2.1799855475657632,23.939625907998057,-0.05564643997365787,1.5151584398629638,-1.8825755250521001
2.169438691484973,23.654082776807574,-0.05537309771887346,1.490558730563179,-1.8193191706253529
2.1589563726233405,23.373173490391203,-0.05496710082462533,1.466381126451246,-1.755890647297819
2.148555617505048,23.09681510926895,-0.054514531999506184,1.4426544643093253,-1.6952644426557286
2.1382447623700904,22.824923450684125,-0.05402078521057194,1.4193629944782733,-1.6372842292231187
2.128031167195801,22.55741725710411,-0.053490742939842226,1.3964916747850593,-1.5818040548656653
2.1179213082417587,22.29421806565538,-0.05292882499744523,1.3740261299384509,-1.5286875435053173
2.107920861787801,22.035250085005046,-0.05233903241263715,1.3519526137492492,-1.4778071657737233
2.0980347799498675,21.78044007917444,-0.0517249869340297,1.3302579739413336,-1.4290435727552708
2.0882673593633068,21.52971725781249,-0.051089966608716786,1.308929619342353,-1.382284986712827
2.0786223034391544,21.283013172494982,-0.05043693785604232,1.287955489262979,-1.3374266433432611
2.0691027788244067,21.040261618650305,-0.04976858440446237,1.2673240248915112,-1.2943702806870159
2.0597114666312306,20.801398542743684,-0.04908733341844168,1.2470241425465893,-1.2530236703261828
2.050450608941425,20.566361954380483,-0.04839537910583051,1.2270452086450323,-1.213300186957206
2.041322051040287,20.335091843015014,-0.04769470406404078,1.207377016254612,-1.175118412824798
2.032327279787676,20.107530098975086,-0.046987098595020725,1.188009763113045,-1.1384017738592103
2.0234674584927164,19.883620438533892,-0.04627417819403161,1.1689340310047953,-1.1030782046751517
2.014743458621745,19.663308332780762,-0.045557399395140113,1.1501407663965753,-1.0690798398721293
2.006155888636211,19.44654094006021,-0.044838074136795435,1.1316212622408062,-1.0363427293269372
1.9977051202278286,19.233267041765266,-0.04411738279354653,1.1133671408638683,-1.0048065753930422
1.9893913121920046,19.02343698128623,-0.04339638600460079,1.0953703378628183,-0.9744144901218489
1.9812144321570195,18.817002605929922,-0.04267603541629387,1.0776230869404497,-0.9451127708000129
1.9731742763653464,18.61391721163723,-0.04195718344342511,1.0601179056142047,-0.9168506922575239
1.9652704876845757,18.414135490338623,-0.04124059214363411,1.0428475817395517,-0.8895803145452931
1.957502572008438,18.21761347979802,-0.04052694128939481,1.025805160793097,-0.8632563047103103
1.9498699131931492,18.024308515805508,-0.03981683571364568,1.0089839338649302,-0.8378357715127108
1.942371786660596,17.83417918658855,-0.03911081199743871,0.992377426313568,-0.8132781120337362
1.9350123548140572,17.647398674954417,-0.038356891650338946,0.9737332224667845,-0.8338979959431689
1.9277926893348678,17.464149753692453,-0.03763958707797052,0.9552027908170458,-0.8562048864465128
1.9207059066394732,17.284411092359832,-0.036958125505132125,0.9367831179473937,-0.8800811691283692
1.9137452760172873,17.108161921303783,-0.036311670517877766,0.9184713142215946,-0.9054115931669223
1.9069042311452655,16.935382008524584,-0.03569932813498231,0.9002646097699617,-0.932083015121536
1.9001763804991736,16.766051637260503,-0.03512015235019507,0.8821603509045822,-0.9599841471703017
1.8935555167588185,16.6001515842137,-0.034573150179858306,0.8641559969564672,-0.9890053087402112
1.8870356252982556,16.437663098337474,-0.03405728624711973,0.8462491175301287,-1.019038180472396
1.880610891846356,16.278567880105566,-0.03357148693077191,0.8284373901741671,-1.0499755594568314
1.8742757093980829,16.122848061184403,-0.03311464410368174,0.8107185984696474,-1.0817111146548402
1.868024684452367,15.970486184428353,-0.03268561848280303,0.7930906305414098,-1.1141391414033521
1.8618526426485629,15.821465184116821,-0.03228324260987016,0.7755514780010312,-1.1471543138618236
1.8557546338701179,15.675768366349995,-0.03190632347902392,0.7580992353339941,-1.180651434220558
1.849725936881255,15.53337938951723,-0.03155364482479633,0.7407320997477734,-1.2145251774373858
1.8437620635601997,15.394282244748492,-0.031223969081051357,0.7234483715020923,-1.2486698302076775
1.8378587627907312,15.258461236254771,-0.03091603901861522,0.7062464547475948,-1.2829790227998505
1.8320120240726545,15.125900961457802,-0.030628579066402536,0.6891248589047151,-1.3173454523041968
1.8262180809111532,14.996586290802888,-0.03036029631782112,0.6720822006206868,-1.3516605957462995
1.8204734140449572,14.870502347140718,-0.030109881221083844,0.6551172063495366,-1.3858144114068252
1.8147747545738246,14.747634484554784,-0.02987600794873299,0.6382287156076576,-1.4196950265664052
1.8091190870470708,14.627968266500257,-0.029657334438149652,0.6214156849663014,-1.453188409757153
1.8035036525767985,14.5114894431075,-0.02945250209103224,0.6046771928522127,-1.4861780254507588
1.7979259520421558,14.398183927488851,-0.029260135115733495,0.5880124452388192,-1.518544468947134
1.792383749454432,14.28803777087047,-0.029078839491887564,0.5714207823230866,-1.550165079047826
1.7868750755571745,14.18103713635151,-0.02890720153187351,0.554901686297539,-1.5809135259063594
1.7813982317408603,14.077168271070633,-0.028743786008276078,0.538454790343273,-1.6106593712459347
1.7759517943580734,13.976417476534138,-0.028587133810534054,0.5220798889882693,-1.639267597928055
1.770534619532778,13.878771076830617,-0.028435759087313103,0.505776949996179,-1.6665981056506711
1.7651458485662328,13.784215384423426,-0.028288145823686932,0.489546127974237,-1.6925051693621422
1.7597849140525699,13.692736663173928,-0.028142743793817787,0.47338777991521286,-1.716836856813674
1.7544515468292268,13.604321088204827,-0.02799796382032195,0.4573024829174252,-1.7394344015613574
1.7491457839015325,13.51895470216359,-0.02785217226066983,0.44129105435876864,-1.7601315277034522
1.7438679774970591,13.436623367390172,-0.027703684628521668,0.42535457483508726,-1.7787537227479324
1.7386188054242209,13.35731271343095,-0.027550758243462425,0.40949441420936233,-1.795117455319414
1.7333992829314542,13.281008079271366,-0.027391583785658955,0.3937122611546693,-1.809029335033007
1.728210776288696,13.20769444958388,-0.02722427561179535,0.3780101566083309,-1.8202852129272347
1.723055018342476,13.137356384205678,-0.027046860664206307,0.3623905315832516,-1.8286692225606738
1.717934126330762,13.069977939974379,-0.026857265774889585,0.3468562497988533,-1.833952764524369
1.7128506222850122,13.005542583962562,-0.026653303127738157,0.33141065558868466,-1.8358934411127839
1.7078074563966,12.944033097069159,-0.026432653592390765,0.3160576274997572,-1.8342339538116792
1.7028080337855875,12.885431466856431,-0.026192847576160555,0.3008016378973773,-1.8287009849308828
1.6978562451857773,12.829718768480198,-0.02593124294815806,0.28564781869455164,-1.8190040973156707
1.69295650215712,12.776875032570558,-0.025644999458761652,0.27060203298585894,-1.804834704298267
1.6881137775642647,12.726879099015331,-0.025331048887081712,0.2556709518059989,-1.785865188302014
1.6833336522327516,12.679708455831374,-0.02498605986568771,0.24086213434093595,-1.7617482841949972
1.678622368934794,12.635339062758547,-0.02460639590228749,0.22618410853094303,-1.732116897421564
1.6739868952006975,12.5937451599941,-0.02418806445662301,0.21164644688429332,-1.6965846038456547
1.6694349969568392,12.554899063772176,-0.0237266538997817,0.19725982913597115,-1.6547471873506268
1.6649753257480937,12.518770952529085,-0.023217253560695792,0.1830360786860212,-1.6061857248404259
1.6606175234578107,12.485328650522888,-0.02265434949491627,0.16898815295816969,-1.5504719418371862
1.6563723502258383,12.45453742045611,-0.022031684525845092,0.15513005827107268,-1.4871768527663387
1.6522518440577953,12.426359783459361,-0.021342064611446113,0.14147664695786843,-1.4158840828377914
1.6482695250075423,12.400755394352949,-0.02057708328595505,0.12804323837278142,-1.3362097420625831
1.6444406637240507,12.377681012847535,-0.019726719698167992,0.11484498800000652,-1.2478312394612168
1.6407826450072067,12.35709062691905,-0.0187787404791358,0.1018959165103788,-1.1505278302776891
1.637315473972583,12.338935800523242,-0.017717796727428736,0.08920751923496928,-1.044235592785628
1.6340624987608592,12.323166326866545,-0.016524047606506418,0.07678694030920588,-0.9291181169143006
1.631051464774745,12.309731254052409,-0.015171046984170242,0.06463487878694794,-0.8056499900465336
1.628316081848109,12.298580279637818,-0.013622457506733387,0.05274379926137774,-0.6747011440760349
1.6258984065877669,12.289665329009583,-0.011826755760026945,0.041097786298970276,-0.5375948698067325
1.6238526180420374,12.282941749689694,-0.009707860510809267,0.029676732857740223,-0.3960935134082614
1.622251606371935,12.278367761209989,-0.007144893911321734,0.018470514297060262,-0.2522547819053249
1.6212013580370601,12.27589849366872,-0.003910351718939669,0.00752177561102964,-0.10811652215993306
