x,y,v_x,v_y,omega
2.375,32.48,0.0,3.6923076923076925,-5.3061224489795915
2.3736543682997726,31.787580302180324,-0.014164544212919631,3.596320705794144,-4.923624512863068
2.3698398617273897,31.112973683534573,-0.025988156549006165,3.5048015957400644,-4.582734422038327
2.3639658487733572,30.455362621579887,-0.03584355875659794,3.4174201090460787,-4.277628191986622
2.3563769880918746,29.813989121626715,-0.044039185259008136,3.333879890461019,-4.003442123920499
2.3473642855850625,29.188148717218258,-0.05083136744427759,3.2539138401543024,-3.7560929890125525
2.3371740774323437,28.577185274902405,-0.05643398153170825,3.177280289486252,-3.532135737662178
2.3260153660108775,27.98048646471156,-0.06102613869425394,3.103759817785824,-3.3286501042560537
2.3140658394244302,27.39747978713082,-0.0647583516894013,3.033152577800924,-3.1431496484054064
2.3014768328314115,26.827629069426692,-0.06775750718448283,2.9652760296109117,-2.973508350483804
2.288377434569194,26.270431361032394,-0.07013089557569833,2.899963006118544,-2.81790103811707
2.274877897704828,25.725414170662695,-0.07196949247026331,2.8370600504046064,-2.6747547808304404
2.261072484867414,25.19213299796217,-0.07335064266040756,2.7764259780219804,-2.5427090351938917
2.2470418486838803,24.670169120489156,-0.07434026453468211,2.717930626957136,-2.420582810652102
2.232855030119364,24.15912760321971,-0.07499466772338322,2.661453765352818,-2.3073474980721507
2.2185711412324784,23.658635502898086,-0.0753620574017293,2.6068841327695345,-2.202104288557292
2.2042407863324587,23.168340243741397,-0.07548378365111301,2.55411859519561,-2.104065330797805
2.1899072655426584,22.687908144434736,-0.07539538255730861,2.50306139750607,-2.01253794694746
2.175607596779609,22.217023079186355,-0.07512744652742213,2.4536234998453135,-1.9269113614004398
2.161373385724477,21.755385257970854,-0.074706354052914,2.4057219866336474,-1.8466455026010986
2.147231568166865,21.30271011306445,-0.07415488339563601,2.3592795386969034,-1.7712615216842484
2.1332050448852993,20.858727280642235,-0.07349273009453011,2.314223960484306,-1.7003337382607344
2.1193132257961604,20.423179667619657,-0.0727369445279806,2.270487755542862,-1.6334827767960278
2.1055724972976106,19.995822595124082,-0.07190230282517443,2.2280077444105304,-1.5703696996618328
2.0919966244346626,19.576423011012984,-0.07100162204796673,2.186724719916817,-1.5106909772937964
2.0785970976188173,19.16475876474169,-0.07004602864513781,2.1465831355704985,-1.454174163683263
2.0653834320734616,18.760617938649453,-0.06904518762176687,2.1075308232951615,-1.4005741680076185
2.052363426882801,18.363798230396313,-0.06800749859571208,2.06951873726421,-1.3496700316106474
2.039543389448167,17.97410638186085,-0.06694026387411683,2.032500721003794,-1.3012621346057172
2.0269283302612253,17.591357650313178,-0.06584983283053708,1.9964332952875186,-1.255169768741323
2.0145221321569324,17.21537531811901,-0.06474172616201848,1.9612754646510986,-1.2112290233566634
2.0023276975839965,16.845990237618572,-0.06362074302678145,1.9269885406166596,-1.1692909396753302
1.9903470769059421,16.4830404081655,-0.06249105358431576,1.8935359799419613,-1.1292198956663115
1.9785815803045093,16.126370582612534,-0.06135627906234627,1.8608832364050616,-1.090892189506778
1.967031875484853,15.775831900797634,-0.06021956114456085,1.8289976248044217,-1.054194794522693
1.9556980730673792,15.431281547821019,-0.059083622197269994,1.7978481960020447,-1.0190242625325459
1.9445798012844893,15.092582435114046,-0.0579508176226248,1.7674056219661045,-0.9852857559153971
1.9336762713742246,14.759602902488442,-0.056823181432793114,1.7376420898823464,-0.9528921915799428
1.9229863348702785,14.432216439521877,-0.05570246597716627,1.7085312045025662,-0.921763482418635
1.9125085338237382,14.1103014247855,-0.054590176617993175,1.6800478979855917,-0.8918258638654876
1.9022411448517504,13.793740881553383,-0.053487602034509786,1.6521683465630044,-0.8630112948999343
1.8921822177883516,13.482422248754073,-0.052395840738109725,1.6248698934297254,-0.8352569243029784
1.8823296096098767,13.17623716603288,-0.051315824298466955,1.5981309773196883,-0.8085046142178981
1.872681014219038,12.875081271890895,-0.050248337710361635,1.5719310662801496,-0.7827005141307805
1.8632339885957825,12.57885401395475,-0.04919403727127592,1.5462505962055841,-0.7577946792949947
1.8539859757575603,12.287458470510458,-0.04815346628895806,1.5210709137343206,-0.7337407284024228
1.8449343249151111,12.00080118250657,-0.04712706889471852,1.4963742231487178,-0.7104955359728483
1.836084185214403,11.718793354334736,-0.04603229637589238,1.4721292312916496,-0.685742759279839
1.8274397064138777,11.441349262710037,-0.04496221731384948,1.4483348910735883,-0.6620779186448861
1.8189962250107135,11.16838476260941,-0.043916534298402754,1.424975636301457,-0.6394406579268032
1.8107491380998764,10.899818601580243,-0.04289490686830322,1.4020365850581864,-0.6177746032074278
1.8026939108459414,10.635572293326707,-0.04189695896259346,1.3795035018211592,-0.5970270581600539
1.7948260826305455,10.375569998256793,-0.04092228540999302,1.35736276207267,-0.577148725835558
1.787141272046871,10.119738410534751,-0.039970457576055475,1.3356013192120018,-0.5580934543105253
1.7796351808912487,9.86800665121806,-0.03904102827259975,1.3142066735952531,-0.5398180039139981
1.7723035972833852,9.620306167089833,-0.03813353602070049,1.2931668435439856,-0.5222818339901555
1.7651423980304495,9.376570634826315,-0.037247508747044585,1.2724703381772449,-0.5054469073672517
1.7581475503360493,9.136735870165772,-0.03638246698348221,1.2521061319337252,-0.4892775108919448
1.7513151129426814,8.900739741769186,-0.03553792663091693,1.2320636406619043,-0.4737400905556976
1.7446412367853386,8.668522089485535,-0.03471340134111377,1.2123326991660073,-0.4588030998888274
1.738122165224409,8.44002464675481,-0.033908404563406915,1.192903540104771,-0.4444368604302657
1.73175423391762,8.215190966900774,-0.03312245129753003,1.1737667741482591,-0.43061343319911327
1.7255338703834222,7.993966353082666,-0.03235505958876072,1.1549133713055137,-0.41730650019935517
1.7194575933017588,7.776297791691086,-0.031605751797171004,1.1363346433426957,-0.40449125508311873
1.7135220115924796,7.562133888987855,-0.030874055668924906,1.1180222272176241,-0.3921443021819178
1.7077238233066838,7.351424810803259,-0.030159505234191017,1.099968069462339,-0.3802435631905757
1.7020598143618737,7.144122225116536,-0.029461641553281126,1.0821644114505344,-0.3687681908559465
1.6965268571479593,6.940179247357044,-0.0287800133300316,1.0646037754914772,-0.3576984890830532
1.6911219090277352,6.739550388274196,-0.028114177409166736,1.047278951696405,-0.3470158389255865
1.6858420107524883,6.542191504234136,-0.027463699172382196,1.0301829855673925,-0.33670262997655737
1.6806842848107297,6.348059749810311,-0.02682815284612753,1.0133091662623548,-0.3267421967188542
1.6756459337257583,6.15711353254353,-0.026207121732519184,0.9966510154932177,-0.31711875943506207
1.6707296138632146,5.969511649163561,-0.025543613662678752,0.9781056516643657,-0.34960443614954456
1.6659350723114368,5.785423154924803,-0.024925244777086693,0.9596679719015201,-0.38351829937221815
1.6612538552752352,5.604827855481322,-0.02435072402503511,0.9413351801351253,-0.4187546558831878
1.6566777569594269,5.427706077433729,-0.02381873193084001,0.9231045887868962,-0.45520977368107934
1.6521988245883799,5.254038648039238,-0.023327924606497956,0.9049736153656485,-0.4927816508370662
1.647809362701465,5.083806875533167,-0.02287693736102906,0.8869397794351136,-0.5313697875445882
1.643501936798538,4.91699252999172,-0.02246438793293694,0.8690006999485194,-0.5708749603895473
1.6392693764048218,4.753577824666607,-0.02208887936933965,0.851154092947402,-0.6111989978571661
1.6351047776203418,4.593545397722238,-0.02174900257255625,0.833397769624896,-0.652244556075358
1.6310015052153854,4.436878294305988,-0.02144333853224673,0.8157296347566709,-0.693914893770033
1.6269531943302575,4.283559948881056,-0.02117046025857445,0.7981476855057812,-0.736113645374797
1.6229537518349129,4.133574167749959,-0.02092893442926415,0.7806500106110237,-0.7787445911954536
1.6189973574018528,3.986905111694572,-0.020717322760839516,0.7632347899719981,-0.821711423477944
1.6150784643439602,3.8435372786556705,-0.020534183111714607,0.7459002946480049,-0.8649175071661045
1.6111918002677426,3.7034554863713467,-0.020378070322154666,0.7286448872922566,-0.9082656340620225
1.6073323675917666,3.566644854889052,-0.020247536793382877,0.7114670230476998,-0.9516577690158521
1.6034954439798956,3.4330907888605893,-0.020141132805257634,0.6943652509361313,-0.994994786672606
1.5996765827393467,3.302778959522712,-0.020057406568943385,0.67733821577835,-1.0381761971894718
1.5958716132345554,3.1756952862582253,-0.01999490400780776,0.660384660689927,-1.0810998592072782
1.5920766413694598,3.051825917623212,-0.01995216825635441,0.6435034302049362,-1.1236616782124706
1.5882880501930932,2.9311572117153055,-0.019927738863296518,0.6266934740888257,-1.1657552882598814
1.5845025006864004,2.813675715745255,-0.019920150680835493,0.6099538519117005,-1.207271714840231
1.5807169327920327,2.699368144659484,-0.019927932417772548,0.5932837384648402,-1.2480990164683134
1.5769285667535724,2.5882213586442546,-0.01994960482917853,0.5766824301165265,-1.2881219023370027
1.5731349048363596,2.480222339322431,-0.019983678509902077,0.560149352218477,-1.3272213231278176
1.5693337335088726,2.375358164430967,-0.020028651253119565,0.5436840676916759,-1.3652740317906757
1.5655231261716358,2.27361598074091,-0.020083004928321456,0.527286286940514,-1.4021521108046382
1.5617014465300254,2.1749829749511704,-0.02014520182547267,0.5109558792672629,-1.4377224621105338
1.557867352718278,2.079446342252165,-0.020213680403445573,0.49469288598544187,-1.471846255570518
1.5540198022947014,1.9869932522147522,-0.02028685037104619,0.4784975354610063,-1.504378331467756
1.550158058242756,1.8976108116131876,-0.02036308701785237,0.46237026034492895,-1.5351665522259492
1.5462816961296137,1.8112860237369155,-0.020440724699434292,0.44631171730003766,-1.5640510982257967
1.5423906125932967,1.7280057436843386,-0.020518049367059994,0.43032280956919394,-1.5908637023578667
1.5384850353519668,1.6477566290610604,-0.020593290015359512,0.4144047127810952,-1.6154268178299334
1.5345655349547997,1.5705250854246913,-0.02066460890218775,0.3985589044438283,-1.6375527138173998
1.5306330385237046,1.4962972057273163,-0.02073009037249842,0.3827871976337954,-1.6570424939195223
1.5266888457696148,1.4250587029046677,-0.020787728091605485,0.3670917794466977,-1.673685033225107
1.5227346476070598,1.3567948346479923,-0.020835410461605298,0.3514752548340889,-1.6872558313377746
1.5187725477373626,1.291490319271535,-0.020870903956259998,0.33594069649704744,-1.6975157813109814
1.5148050876256534,1.2291292414583062,-0.020891834061732933,0.32049170153694,-1.704209858604666
1.5108352753621093,1.1696949465346123,-0.02089566344925641,0.30513245555458807,-1.7070657406401957
1.5068666189765676,1.113169921799436,-0.020879666924866584,0.2898678048156843,-1.7057923773816137
1.5029031648725792,1.0595356633346782,-0.02084090259080016,0.2747033369185925,-1.7000785481937302
1.4989495421692474,1.008772526673308,-0.02077617849690351,0.2596454700432151,-1.6895914623408665
1.4950110138979888,0.9608595597480694,-0.02068201383213425,0.24470155022247156,-1.6739754932889757
1.4910935362144915,0.9157743167517225,-0.020554593362574057,0.22987995500224373,-1.6528511854198256
1.4872038270823635,0.873492652016914,-0.020389713291403423,0.21519020010100043,-1.6258147430808205
1.4833494463112575,0.8339884939329956,-0.020182715878134534,0.20064304288760298,-1.5924383165061597
1.479538889466026,0.7972336005054821,-0.019928408808514243,0.1862505721388624,-1.552271551892425
1.475781699133115,0.7631973007996535,-0.019620963116862202,0.17202626686987643,-1.5048450943563967
1.4720885985496828,0.7318462307278857,-0.01925377986663626,0.15798499704348123,-1.4496770497901004
1.4684716550261303,0.7031440781871545,-0.01881930985496744,0.14414292443789298,-1.3862838572776572
1.4649444845164126,0.6770513624007428,-0.018308800773641772,0.13051724173487625,-1.3141976283181724
1.4615225150917908,0.6535252865621572,-0.01771193001185068,0.11712566182918331,-1.2329927783914905
1.4582233375524658,0.6325197223245382,-0.017016254612623627,0.10398554067205114,-1.1423256329422948
1.4550671885405473,0.6139854086793832,-0.016206366565463787,0.09111249769798632,-1.0419913401516607
1.4520776393756771,0.5978704714877274,-0.015262572012117972,0.07851842010893548,-0.9320020905708065
1.449282608957409,0.5841213786692521,-0.014158800811758031,0.0662088727171035,-0.8126876278526164
1.4467158930511275,0.5726844052605706,-0.01285926135962583,0.05418032105849234,-0.6848102692566325
1.4444195318710649,0.5635075237700526,-0.011312961588401576,0.04241843147326449,-0.5496682195138587
1.4424476097607928,0.5565422397758724,-0.009444113256567372,0.030900347412839584,-0.4091319455449248
1.4408728521818868,0.5517440331351438,-0.007132282310863849,0.019607090910607916,-0.2655298363582972
1.4398005287986408,0.5490678110791443,-0.004155332249619245,0.008563667573590292,-0.12129971809389253
