x,y,v_x,v_y,omega
2.375,32.48,0.0,3.333333333333333,-4.571428571428571
2.3740731756540168,31.886907263871624,-0.01029804828870174,3.2565859569819104,-4.2859407338971645
2.371427007052643,31.307354298374644,-0.019103825059895888,3.182891437428985,-4.027091868841524
2.3673114817275853,30.740809147844658,-0.02662423410741367,3.1120546795708566,-3.791654072504292
2.361942144707785,30.186773421948338,-0.033035066112588024,3.0438978303882838,-3.576862430818888
2.355505235249279,29.644779374679622,-0.03848615009303433,2.978258250375213,-3.380339366445008
2.3481619807738654,29.114387320829778,-0.04310556630045119,2.914986792400836,-3.20003279698416
2.340052200061321,28.59518333977346,-0.04700310828337409,2.8539463304471404,-3.034165319781851
2.331297337653574,28.086777225631284,-0.05027314069159185,2.7950104933548157,-2.881192254078335
2.3220030278602364,27.588800650087613,-0.05299696812327354,2.7380625682415394,-2.739766838415746
2.312261268160109,27.1009055098518,-0.05524480632258223,2.6829945454897226,-2.608711238859021
2.302152267028079,26.622762435310666,-0.05707742847775142,2.6297062827450866,-2.4869922995433322
2.2917460194232775,26.154059440594352,-0.058547544908936176,2.578104769658405,-2.373701181512482
2.281103653703322,25.694500698264182,-0.05970096309056487,2.5281034784546015,-2.268036203575772
2.2702785860853845,25.243805424278314,-0.06057756599763212,2.479621788055045,-2.169288330959288
2.259317512576578,24.801706860911285,-0.06121213965577481,2.432584471578603,-2.0768288620617055
2.248261263248481,24.367951346983546,-0.06163507510085752,2.3869212387295993,-1.9900989468223245
2.2371455396031226,23.942297466163318,-0.06187296540312384,2.3425663259396385,-1.9086006367589308
2.2260015523898256,23.524515265287533,-0.061949114744621614,2.299458128235732,-1.8318892202192911
2.214856574441322,23.114385535652165,-0.0618839735720861,2.257538867712805,-1.7595666395696836
2.2037344207904574,22.711699151076807,-0.06169551143751841,2.2167542942355896,-1.6912758220510542
2.192655866415469,22.316256457280282,-0.06139953717346295,2.17705341461472,-1.6266957845294232
2.18163901037011,21.92786670773322,-0.061009974441635084,2.138388247019303,-1.565537395652214
2.170699593726814,21.54634754169745,-0.060539099372770265,2.100713597822592,-1.5075396980189562
2.1598512776497976,21.171524500633463,-0.05999774592740825,2.0639868584439203,-1.4524667086915826
2.1491058869826083,20.80323057956803,-0.05939548370803179,2.028167820060902,-1.4001046293480426
2.138473623950205,20.441305810372786,-0.058740772207556,1.993218504330705,-1.350259408134838
2.1279632559141684,20.0855968742193,-0.05804109485952028,1.9591030084857939,-1.3027546042090163
2.117582280560317,19.735956740752798,-0.05730307573883254,1.925787363364232,-1.2574295134073568
2.1073370714240993,19.39224433177079,-0.056532581330249305,1.893239403102513,-1.2141375197055708
2.0972330062565687,19.054324207408783,-0.05573480942009305,1.8614286453642532,-1.172744642348352
2.0872745803910977,18.722066273026613,-0.054914366862917355,1.8303261811042812,-1.1331282529167304
2.0774655069787196,18.395345505159238,-0.05407533771906019,1.7999045729776626,-1.0951759402948067
2.067808805710117,18.07404169504731,-0.053221343043189075,1.7701377615993066,-1.0587845046199802
2.058306881428304,17.758039208398408,-0.052355593421399685,1.7410009789440481,-1.023859063944696
2.048961593852404,17.44722676015084,-0.05148093519971177,1.7124706682511288,-0.9903122595820892
2.039774319475044,17.14149720312064,-0.050599891215398304,1.6845244098622258,-0.9580635480174451
2.0307460065598915,16.84074732950986,-0.0497146967307461,1.6571408524797773,-0.9270385688957259
2.0218772240485112,16.54487768434218,-0.048827331173477,1.6302996493833422,-0.8971685799869727
2.0131682050843063,16.25379238997085,-0.04793954620657679,1.6039813991869663,-0.8683899512231209
2.004618885773467,15.967398980875558,-0.04705289058053206,1.5781675907607289,-0.8406437109224776
1.996228939726714,15.6856082480293,-0.04616873216116545,1.5528405519754633,-0.8138751381975381
1.9879978088594696,15.408334092174965,-0.04528827747487986,1.5279834019615952,-0.7880333962995102
1.9799247308705288,15.135493385404274,-0.04441258906890902,1.5035800066016194,-0.763071202306991
1.9720087637691814,14.867005840480012,-0.04354260094606132,1.4796149370013125,-0.7389445291319021
1.964253072658461,14.602795116965375,-0.04263174472860863,1.4560597687168682,-0.7142389993139899
1.9566599528924167,14.342787405967556,-0.041736252671886374,1.4329147979255539,-0.6905674134371038
1.949226623845575,14.08691009445095,-0.040856292293018716,1.4101664411478665,-0.6678749711538301
1.9419502806189732,13.835092963263588,-0.039991965780335655,1.3878016831561555,-0.6461103240988599
1.9348281050594778,13.58726808755641,-0.03914331821405909,1.3658080469236036,-0.6252253236128877
1.9278572753830827,13.343369742441801,-0.0383103448569957,1.3441735654609392,-0.6051747893726005
1.921034974560046,13.103334313564051,-0.03749299762119247,1.3228867554029606,-0.5859162969932645
1.9143583976017826,12.867100212278128,-0.036691190803954346,1.3019365922184218,-0.5674099828674598
1.90782475787362,12.63460779515502,-0.035904806175630626,1.2813124869272277,-0.549618364678649
1.9014312925435384,12.405799287551922,-0.03513369749194328,1.2610042642183228,-0.5325061761841411
1.8951752672646975,12.180618711003952,-0.034377694495178,1.2410021418702362,-0.5160402150009027
1.8890539801786292,11.959011814211067,-0.033636606461135914,1.221296711384047,-0.5001892022515891
1.8830647653163273,11.740926007409396,-0.032910225342217936,1.2018789197456416,-0.48492365303886065
1.8772049954659134,11.526310299930632,-0.03219832855127119,1.1827400522406128,-0.47021575681503625
1.8714720845679798,11.315115240766382,-0.0315006814257682,1.1638717162510615,-0.4560392668027706
1.865863489692992,11.107292861966577,-0.03081703940742998,1.1452658259689663,-0.4423693977018778
1.860376712649161,10.902796624712455,-0.030147149968468276,1.1269145879657227,-0.42918273098870924
1.8550093012639057,10.701581367914962,-0.02949075431214624,1.1088104875619722,-0.4164571271785291
1.849758850377307,10.503603259199245,-0.02884758887228383,1.0909462759459876,-0.40417164447890797
1.844623002581776,10.308819748144767,-0.028217386633615584,1.0733149579926733,-0.3923064633139909
1.8395994487384255,10.11718952165894,-0.02759987829250118,1.055909780738726,-0.38084281624620125
1.8346859282973185,9.92867246136991,-0.026994793275355956,1.0387242224727034,-0.36976292286406837
1.8298802294458114,9.743229602931216,-0.026401860630276896,1.0217519824016852,-0.3590499292429044
1.825180189106577,9.56082309713776,-0.02582080980566069,1.0049869708589285,-0.34868785161942917
1.820583692804537,9.381416172758712,-0.025251371328119443,0.9884233000194002,-0.3386615239525374
1.8160934535780733,9.20519632246302,-0.02464017563258579,0.9695750365994028,-0.3782478508495983
1.8117090554009305,9.032360032976186,-0.024075359668999024,0.9508281799209916,-0.4189589973832523
1.8074222917262945,8.862889276049906,-0.023555347826958634,0.9321802303710143,-0.46069465383154884
1.8032252402664197,8.696766464566753,-0.02307855728276078,0.9136287861084411,-0.5033558018960714
1.7991102640809002,8.533974435148103,-0.0226434003341225,0.8951715407654565,-0.5468444944431053
1.7950700122713,8.374496431144376,-0.022248286439214414,0.8768062814981611,-0.5910636356736038
1.7910974203339172,8.218316085944505,-0.02189162397615096,0.8585308873892827,-0.6359167607367942
1.7871857102197628,8.065417406540732,-0.021571821736674504,0.8403433282081888,-0.6813078137725
1.7833283901485775,7.915784757283703,-0.02128729016538491,0.8222416635365881,-0.7271409233289047
1.7795192542218792,7.769402843760961,-0.021036442353486208,0.8042240422716539,-0.7733201740549627
1.7757523818786394,7.626256696729538,-0.020817694793620962,0.7862887025219432,-0.8197493735092609
1.7720221372362213,7.486331656030167,-0.020629467899915235,0.7684339719154976,-0.8663318128590373
1.7683231683586937,7.3496133544068165,-0.02047018629483369,0.7506582683439492,-0.9129700201633613
1.7646504064945954,7.216087701150435,-0.020338278861815263,0.7329601011714066,-0.9595655048421146
1.7609990653266419,7.08574086548019,-0.0202321785598916,0.7153380729424492,-1.0060184918262305
1.7573646402768324,6.958559259568684,-0.020150321993546588,0.697790881629822,-1.0522276437633726
1.7537429079119007,6.834529521109744,-0.020091148727915713,0.6803173234695122,-1.0980897695154734
1.750129925496148,6.71363849531798,-0.020053100336003674,0.6629162964389572,-1.143499517028846
1.7465220307414295,6.595873216238573,-0.02003461916086825,0.6455868044433247,-1.1883490484823984
1.7429158418075055,6.481220887232993,-0.02003414677162131,0.6283279622853333,-1.2325276954233044
1.7393082576101782,6.36966886049176,-0.02005012208757162,0.6111390015061315,-1.2759215913809019
1.735696458499714,6.261204615408335,-0.02008097913980722,0.5940192771986048,-1.3184132792073948
1.7320779073780797,6.155815735628526,-0.020125144433907245,0.5769682759103899,-1.359881290127382
1.7284503513306209,6.053489884567092,-0.020181033871191863,0.5599856247721856,-1.4001996911872838
1.724811823856116,5.9542147791568745,-0.020247049178859878,0.5430711020080043,-1.4392375974815306
1.7211606477887922,5.857978161565416,-0.02032157379140524,0.5262246490082151,-1.4768586451978358
1.7174954390170623,5.764767768579016,-0.020402968116706503,0.5094463841740126,-1.5129204211746488
1.7138151111166602,5.674571298313719,-0.0204895641099833,0.4927366187737521,-1.5472738443096072
1.710118881030712,5.587376373866174,-0.02057965906721733,0.47609587508786205,-1.5797624938140653
1.7064062759463856,5.503170503463853,-0.02067150853640932,0.45952490716017164,-1.6102218789997438
1.7026771415374178,5.421941036612662,-0.02076331822990122,0.4430247245197384,-1.6384786450459845
1.698931651764405,5.343675115669907,-0.020853234803574996,0.4265966192886627,-1.664349709084969
1.6951703204507111,5.268359622190648,-0.020939335348578867,0.4102421971475324,-1.687641321038935
1.6913940148817455,5.195981117305276,-0.021019615417704935,0.39396341268994367,-1.7081480440675743
1.6876039717098812,5.126525775284897,-0.021091975380786596,0.37776260975870896,-1.725651650410607
1.6838018154872865,5.059979309339287,-0.021154204870266813,0.36164256741473255,-1.7399199300959145
1.679989580195579,4.99632688857054,-0.02120396503759473,0.3456065522380002,-1.7507054128009893
1.6761697341960422,4.935553044877295,-0.02123876829059181,0.32965837768695594,-1.7577440076496342
1.6723452090893463,4.877641568474875,-0.021255955117141196,0.31380247122883714,-1.7607535726922168
1.668519433052472,4.822575390576038,-0.021252667514796687,0.29804394986935817,-1.759432436418724
1.664696369317579,4.770336451682024,-0.021225818428458925,0.28238870450857284,-1.753457909589752
1.6608805605801598,4.720905553892031,-0.021172056431754332,0.26684349315800604,-1.7424848494305294
1.6570771802833644,4.674262195695398,-0.021087724643748133,0.2514160423601432,-1.7261443734602882
1.6532920919400467,4.630384387934431,-0.020968812504229065,0.23611515498395738,-1.7040428722470016
1.6495319179532522,4.589248450125524,-0.020810898460152227,0.22095082067056,-1.6757615469305667
1.64580411982767,4.5508287872685,-0.02060908071298278,0.2059343221852617,-1.6408568096185834
1.6421170923083332,4.515097648910949,-0.020357891724092317,0.1910783262319845,-1.5988620485962868
1.6384802749704233,4.482024874940677,-0.020051189808243764,0.1763969401043808,-1.5492914976226984
1.6349042863349448,4.451577636897767,-0.01968201725262578,0.16190570481683864,-1.4916472881582807
1.6314010880655898,4.423720190282346,-0.019242407962431034,0.14762147979894058,-1.4254312391531259
1.6279841908215025,4.398413663357523,-0.018723116971872095,0.1335621526990739,-1.3501635816297317
1.6246689199056172,4.375615922382554,-0.018113226537964166,0.11974608035615382,-1.2654116259406207
1.6214727696025024,4.355281572779699,-0.017399554607757307,0.1061911374533351,-1.1708322642809692
1.6184158926849364,4.337362179564547,-0.01656574447630792,0.09291323160392757,-1.0662328226888658
1.6155218001737464,4.321806813082727,-0.015590838981360319,0.07992417374964561,-0.9516542619920814
1.612818392809488,4.308563031910314,-0.014447020621511649,0.06722895038829038,-0.8274771939470537
1.6103395220197512,4.297578367229914,-0.013095988153341436,0.05482287939392701,-0.6945413121663664
1.6081274135125936,4.288802200950929,-0.011482995259521291,0.042690079261451644,-0.5542486214919152
1.6062365776812437,4.282187510840032,-0.009526291755474287,0.030806477526286527,-0.40859006885752347
1.6047406839828935,4.2776910456127375,-0.007094749337308566,0.019154247221432115,-0.2600070125089264
1.6037474926541582,4.27526799061393,-0.003940709870858785,0.0077685860986568545,-0.11100441541035683
