x,y,v_x,v_y,omega
2.375,32.48,0.0,3.7948717948717947,-3.224489795918368
2.3737376898900373,31.620774639668884,-0.010976609651850286,3.676653077572652,-2.938970318272044
2.370205661059928,30.78796506749941,-0.01973668452301234,3.565169289118436,-2.69187773549811
2.364863982086486,29.980089808406056,-0.026712697854743266,3.4598329638672523,-2.476638802763729
2.3580836964112146,29.1957946320093,-0.032246308017181285,3.3601250917567125,-2.2879918355381847
2.35016532338155,28.433837974158163,-0.036609109632077905,3.265584976514039,-2.1216925484004965
2.341353177792847,27.693078477253938,-0.04001824331316508,3.1758019530879293,-1.9742925624443857
2.3318465325015336,26.972464269233456,-0.04264823748086518,3.090408551437999,-1.842971063255859
2.3218083780435257,26.271023683574562,-0.04464006215398764,3.0090748021176,-1.7254057398790903
2.3113723392200005,25.587857184028437,-0.046108101528837195,2.9315034548052368,-1.6196730340345171
2.3006481681137574,24.922130304201332,-0.04714556026458259,2.8574259349956854,-1.5241704551894268
2.2897261302495955,24.273067447786328,-0.047828682032476096,2.7865989033956353,-1.437555646137514
2.2786805248019677,23.639946423051395,-0.04822006099037651,2.7188013116907412,-1.3586982635060192
2.2675725233594597,23.02209360712779,-0.04837125590099711,2.6538318702536556,-1.2866417343799608
2.2564524694840817,22.41887965314052,-0.04832486475446167,2.591506860070411,-1.2205726770225291
2.2453617493899642,21.829715667314282,-0.048116179542211666,2.5316582340708145,-1.159796308206135
2.23433431981004,21.25404979463548,-0.047774512457132046,2.474131963136132,-1.1037165560058606
2.223397960565801,20.69136416102228,-0.047324263579727854,2.4187865900221355,-1.0518198930269211
2.2125753050779773,20.14117212767971,-0.04678578414047725,2.365491960782802,-1.003662127881646
2.2018846910064647,19.60301581972592,-0.04617607735093846,2.3141281083806104,-0.958857561580976
2.1913408646097827,19.076463896522718,-0.045509369576728596,2.264584267299409,-0.9170700442757859
2.180955565689157,18.56110953562883,-0.044797577559149836,2.216758001343072,-0.8780055665961461
2.170738014695996,18.056568606074315,-0.044050691946596054,2.1705544295657577,-0.8414060961092767
2.160695319406629,17.562478009854942,-0.04327709317833238,2.125885537559236,-0.8070444286232836
2.1508328152560363,17.078494173266037,-0.04248381247899666,2.082669563213833,-0.7747198702707144
2.1411543507833457,16.604291672017155,-0.04167674815309639,2.0408304476460337,-0.7442546025543
2.1316625275304966,16.139561976057674,-0.04086084534993844,2.0002973433059674,-0.7154906111145284
2.1223589020395117,15.684012301752837,-0.040040245876016824,1.961004172388276,-0.6882870816158126
2.113244156226341,15.237364560523346,-0.039218413368944716,1.9228892296072866,-0.6625181841620074
2.104318241302588,14.799354394336444,-0.03839823814195385,1.8858948241918614,-0.6380711820504311
2.0955804995176854,14.36973028954182,-0.03758212520502471,1.8499669566309396,-0.6148448122310474
2.087029767261755,13.948252761507373,-0.036772068324807575,1.8150550262772869,-0.5927478941527018
2.078664462470665,13.534693603348284,-0.03596971246727539,1.7811115664104364,-0.5716981312160858
2.0704826587838476,13.128835192775988,-0.035176406548529576,1.748092003783444,-0.5516210751759467
2.0624821485015614,12.730469851735968,-0.03439324808004408,1.7159544400428197,-0.5324492288269989
2.054660496055179,12.339399254067569,-0.03362112101893484,1.684659452725872,-0.5141212663924954
2.047015083428465,11.955433876915688,-0.032860727909013863,1.654169913812228,-0.4965813543880378
2.039543148739262,11.578392492062363,-0.032112617214491386,1.6244508240427662,-0.4797785584959706
2.0322418190009017,11.208101693733585,-0.031377206597335436,1.5954691614248646,-0.46366632426916027
2.02510813792421,10.844395459779676,-0.030654802765201144,1.5671937425221591,-0.4482020213761928
2.018139089488547,10.48711474343201,-0.029945618414479017,1.539595095283641,-0.4333465426745636
2.011331617899421,10.136107093109423,-0.029249786708354146,1.5126453423040673,-0.4190639507118082
2.004682644457109,9.79122629798874,-0.02856737365957658,1.4863180935279678,-0.40532116535323065
1.9982001335210153,9.452332669992735,-0.027802286654280993,1.4605830194807703,-0.38928518939201656
1.9918911009835254,9.119292076252389,-0.027058865845632787,1.4354221434787655,-0.3740640796494992
1.9857506160265963,8.791975041515773,-0.026336655518965933,1.4108129411874657,-0.3596059550724679
1.9797738557814524,8.470257140062301,-0.025635172699677255,1.3867340279731621,-0.345862863639742
1.9739561107765757,8.15401874184797,-0.02495391429925109,1.3631650869340743,-0.33279043807403286
1.968292788871762,7.843144774583216,-0.02429236313391093,1.3400868023246506,-0.3203475857051354
1.9627794179184805,7.537524500556724,-0.02364999298158151,1.317480797905696,-0.3084962087112679
1.9574116473514989,7.237051307120701,-0.02302627281825851,1.2953295797988555,-0.2972009514238176
1.9521852488866807,6.941622509845381,-0.022420670354074176,1.2736164834648112,-0.28642897177855764
1.9470961164742153,6.651139167433914,-0.021832654971709883,1.25232562446097,-0.27614973434224
1.9421402656346625,6.365505907564202,-0.02126170015483618,1.231441852666962,-0.26633482264465735
1.9373138322864798,6.084630762892534,-0.020707285481536962,1.2109507096953644,-0.25695776880904064
1.9326130711577156,5.808425016515983,-0.02016889824684607,1.1908383892311507,-0.24799389870329921
1.928034353860859,5.536803056246725,-0.019646034769297934,1.1710917000667491,-0.23942019103563417
1.9235741666981097,5.269682237102678,-0.019138201428522874,1.151698031620611,-0.2312151489943137
1.9192291082542972,5.006982751465507,-0.01864491547419562,1.1326453217460881,-0.22335868318618607
1.9149958868260613,4.748627506399448,-0.018165705640898717,1.1139220266544403,-0.21583200476464892
1.9108713177285253,4.494542007663206,-0.017700112598544482,1.0955170927911395,-0.20861752775771766
1.9068523205143573,4.244654249982599,-0.01724768926378636,1.0774199305185002,-0.20169877971263156
1.9029359161346844,3.9988946131839,-0.016808000994238993,1.0596203894701848,-0.19506031986689756
1.8991192240666608,3.7571957638175633,-0.016380625684227185,1.0421087354544698,-0.18868766413835913
1.8953994594284904,3.519492561929056,-0.015965153778123086,1.0248756287934253,-0.18256721630012968
1.8917739300992762,3.285721972658447,-0.0155611882150443,1.0079121039944738,-0.17668620477120947
1.8882400338581233,3.055822982373268,-0.015168344316719668,0.9912095506592479,-0.17103262451132886
1.884798445766983,2.829833548734289,-0.014758508649717967,0.9739159592449175,-0.18244624947472485
1.881448271804255,2.6078071534840355,-0.01437343885226627,0.9567483472790131,-0.19611812991620797
1.8781837618170432,2.38971525094216,-0.014013604514793053,0.9397029791720636,-0.21192449671854927
1.8749990744285947,2.175530137269792,-0.013679329297801546,0.9227762701528607,-0.22974551577948069
1.8718883091520866,1.965224916596629,-0.013370803541399141,0.905964779178992,-0.24946500375997355
1.8688455357203009,1.7587734687184593,-0.013088095865432428,0.8892652023703093,-0.2709701550005881
1.8658648208545783,1.5561504182480874,-0.012831163836502828,0.8726743669372637,-0.2941512784679816
1.8629402526796222,1.3573311051087025,-0.01259986377181238,0.8561892255791345,-0.31890154363987655
1.8600659629753105,1.1622915562641367,-0.01239395974394139,0.8398068513301308,-0.34511673427537704
1.8572361474425545,0.9710084585852385,-0.012213131845239719,0.8235244328341962,-0.37269500904870423
1.8544450841473223,0.7834591327556133,-0.012056983765475374,0.8073392700321028,-0.40153666804833565
1.8516871502951489,0.5996215081235015,-0.011925049731685736,0.7912487702471378,-0.4315439241602467
1.8489568374777055,0.419474098409367,-0.011816800854778611,0.7752504446583734,-0.4626206783634452
1.846248765523227,0.24299597818103535,-0.011731650923295546,0.7593419051532097,-0.49467229796816403
1.8435576950737511,0.07016676000974797,-0.011668961680843214,0.7435208615536191,-0.5276053968217522
1.8408785390041555,-0.09903342777845126,-0.011628047619986539,0.727785119213341,-0.5613276164942168
1.8382063727908449,-0.264623962841398,-0.011608180321846864,0.7121325769862012,-0.5957474074341499
1.835536443931601,-0.4266237501352279,-0.011608592367227744,0.6965612255688223,-0.6307738090559812
1.8328641805125667,-0.5850512428914314,-0.011628480841767647,0.6810691462242765,-0.6663162276805569
1.830185199013512,-0.7399244633453534,-0.011667010454360898,0.6656545098967802,-0.7022842112023004
1.8274953114385013,-0.8912610233075924,-0.011723316284862062,0.6503155767313802,-0.7385872192968642
1.8247905318557482,-1.0390781446736383,-0.01179650617386058,0.6350506960168223,-0.775134387912325
1.822067082427889,-1.1833926799716394,-0.01188566276404545,0.6198583065744856,-0.8118342867035633
1.8193213990121002,-1.3242211330541807,-0.011989845199335618,0.604736937621501,-0.8485946679723111
1.8165501364084604,-1.461579680046988,-0.012108090484489171,0.5896852101420628,-0.8853222055631365
1.813750173334752,-1.5954841906761956,-0.012239414504278272,0.574701838807591,-0.9219222220368836
1.8109186172065503,-1.7259502501058748,-0.012382812697477652,0.5597856344939608,-0.9582984022962245
1.8080528088030074,-1.8529931814297314,-0.01253726037680786,0.5449355074526312,-0.9943524916712986
1.8051503269012974,-1.9766280689750602,-0.012701712681539443,0.5301504712023765,-1.0299839762851581
1.8022089929662877,-2.0968697825935934,-0.012875104144632823,0.5154296472196535,-1.0650897433071516
1.7992268759867918,-2.2137330031335054,-0.013056347850984201,0.5007722705186839,-1.099563718465803
1.7962022975558178,-2.3272322493093043,-0.013244334157483639,0.48617769622737567,-1.1332964779298331
1.7931338372997145,-2.4373819062129485,-0.013437928939069083,0.4716454072825811,-1.1661748313758693
1.7900203387701898,-2.544196255740097,-0.013635971317667028,0.45717502338826543,-1.1980813727441977
1.7868609159240454,-2.6476895092411326,-0.013837270822717603,0.4427663114033599,-1.2288939948411648
1.7836549603283178,-2.747875842748094,-0.014040603922739939,0.428419197352856,-1.2584853635823723
1.780402149243656,-2.84476943517663,-0.01424470985692911,0.41413378028656805,-1.2867223472919767
1.7771024547564624,-2.938384509957814,-0.014448285683884081,0.39991034824545624,-1.3134653960927587
1.7737561541509503,-3.0287353806191746,-0.014649980451003195,0.38574939663596197,-1.3385678660595626
1.7703638417362413,-3.1158365009085784,-0.014848388372553492,0.3716516493588719,-1.36187528249711
1.7669264423714441,-3.1997025201403133,-0.015042040886554463,0.3576180830910247,-1.3832245364909521
1.7634452269638965,-3.2803483445409753,-0.015229397439946018,0.34364995517557556,-1.4024430088412283
1.75992183025315,-3.357789205484629,-0.015408834827415122,0.32974883563878055,-1.419347615733387
1.756358271236695,-3.4320407356334925,-0.015578634880890601,0.3159166439165328,-1.4337437711922592
1.7527569766440108,-3.503119054141834,-0.015736970272885613,0.30215569093860134,-1.445424262749176
1.7491208079247094,-3.5710408622365506,-0.01588188815582214,0.28846872727630024,-1.4541680391860334
1.7454530922863043,-3.6358235506547416,-0.01601129130856768,0.27485899809925585,-1.4597389132373064
1.7417576584002161,-3.69748532059063,-0.016122916396547757,0.261330305691047,-1.4618841885178107
1.7380388774949709,-3.7560453199695516,-0.016214308866454825,0.24788708021261793,-1.4603332298652372
1.734301710679103,-3.8115237970054494,-0.016282793880222177,0.2345344592299567,-1.4547960114684595
1.7305517634921244,-3.863942273075871,-0.01632544252828818,0.2212783761650155,-1.444961700156428
1.7267953488845085,-3.9133237369095113,-0.016339032320543758,0.2081256571709702,-1.4304973658486009
1.7230395601001844,-3.95969286183567,-0.01632000058662344,0.1950841247956325,-1.4110469630492646
1.7192923553156527,-4.003076247251222,-0.016264388844085716,0.18216270490480618,-1.386230804723086
1.7155626564419142,-4.043502684296648,-0.016167775275380793,0.16937153027279472,-1.355645865105253
1.7118604653252474,-4.081003443657721,-0.016025190956504638,0.15672202938868354,-1.3188674185682954
1.7081970018704271,-4.115612579907584,-0.015831012998455598,0.14422698147970592,-1.2754527722944369
1.70458487066078,-4.14736724111728,-0.015578823607171033,0.13190050730026776,-1.22494821414227
1.7010382659836334,-4.176307963522909,-0.015261217063669582,0.11975794840083474,-1.1669008132895515
1.6975732306703475,-4.202478917454641,-0.014869524790990057,0.1078155640490003,-1.1008774158530468
1.6942079933173024,-4.225928050980734,-0.01439340871374863,0.09608994487354007,-1.0264940703201257
1.6909634237526205,-4.2467070508769,-0.013820239674788343,0.08459701074530189,-0.9434600764640976
1.6878636721331142,-4.264871008350241,-0.013134122233964124,0.07335044554462232,-0.8516414375665884
1.6849370994331796,-4.2804776487603675,-0.012314336026336485,0.062359471065193094,-0.7511475619477056
1.6822176774627453,-4.293585987372943,-0.011332811542657407,0.051626082087640635,-0.6424401380096517
1.679747156759546,-4.304254368810824,-0.010149977180815927,0.04114245215481244,-0.5264499969500752
1.677578529830809,-4.312538156050444,-0.008707648286460711,0.03089048036359475,-0.40466215979478204
1.6757818775203348,-4.318488069255359,-0.006915415282881302,0.020847895331329407,-0.27909396992374724
1.6744556460463875,-4.322151899976539,-0.004617032316660816,0.011011502244159784,-0.1520680662976472
1.6737573681888032,-4.323589119991503,-0.0014549490536377866,0.0014860631033461191,-0.025722649368283418
