x,y,v_x,v_y,omega
2.375,32.48,0.0,3.4871794871794872,-5.673469387755102
2.3737963822847785,31.85979242529819,-0.013373530169129106,3.404015787285069,-5.304284253604824
2.370366118282225,31.254240526311065,-0.02474051430368269,3.3243386459051694,-4.9711326282996735
2.365044372442106,30.662737989484437,-0.03438999503097395,3.247911763279604,-4.6694567013193184
2.358118352828143,30.0847190078811,-0.04256577845750771,3.174521365646345,-4.39538121706539
2.3498347501826995,29.519654487832497,-0.0494742509363073,3.103973301560378,-4.145596830809568
2.3404059043249124,28.96704873462525,-0.05529070303910496,3.036090622964567,-3.9172657981192125
2.33001493825372,28.426436538900766,-0.060164475529701895,2.970711551751921,-3.7079452580678693
2.318820050254265,27.897380601186484,-0.06422316890868404,2.9076877561845675,-3.5155244774285968
2.3069581157262418,27.379469244029963,-0.06757610362490668,2.8468828788878824,-3.3381732471553422
2.2945477204644273,26.87231437053766,-0.07031717706192174,2.7881712710266275,-3.174299242349314
2.2816917236261127,26.37554963542018,-0.07252723225268404,2.7314368969453082,-3.0225126275641667
2.2684794300794797,25.888828800414693,-0.0742760293765744,2.676572380893447,-2.881596549717234
2.254988437100973,25.411824250557267,-0.07562389260683178,2.6234781730779684,-2.750482439036673
2.2412862086240595,24.94422565148333,-0.07662309046998474,2.5720618166324645,-2.628229254710729
2.2274314207900474,24.485738730942625,-0.07731899657459256,2.522237300486472,-2.5140059811260005
2.2134751149206497,24.036084170177745,-0.07775106864093713,2.473924485789962,-2.4070768138306713
2.1994616878421986,23.594996592846332,-0.07795367667518677,2.4270485956702053,-2.3067885798888637
2.1854297444488813,23.162223640854283,-0.07795680547278262,2.3815397597970156,-2.2125600213209577
2.1714128332677003,22.737525127878286,-0.07778665209589883,2.337332606602947,-2.123872637571598
2.157440082401091,22.320672262543308,-0.07746613531086735,2.294365897119023,-2.0402628370201836
2.1435367504322267,21.91144693422575,-0.07701533100984811,2.252582195298297,-1.9613151912242852
2.1297247045702625,21.509641055308336,-0.07645184523420102,2.2119275704507486,-1.8866566210141624
2.116022836398358,21.115055954444543,-0.07579113445362502,2.1723513280358437,-1.8159513724101364
2.1024474239942372,20.72750181601925,-0.07504678114771789,2.1338057655785194,-1.7488966639243984
2.089012447863489,20.346797161535278,-0.07423073141615023,2.0962459509100397,-1.6852189061659826
2.07572986701305,19.97276836912615,-0.07335350025539224,2.0596295203024906,-1.6246704106073326
2.0626098605584406,19.605249227805004,-0.07242434924027046,2.0239164943769414,-1.5670265175406377
2.049661039472575,19.244080523417352,-0.07145144060267913,1.9890691099302733,-1.5120830841683934
2.036890632421178,18.889109653578927,-0.0704419710795074,1.9550516660522426,-1.459654282849125
2.0243046490694008,18.540190269155325,-0.06940228838468705,1.9218303830988746,-1.4095706670885277
2.011908023769264,18.19718194008339,-0.06833799272794336,1.889373273255952,-1.3616774691968905
1.9997047421341028,17.859949843548925,-0.06725402544051512,1.857650021571413,-1.3158330988430165
1.9876979526627214,17.528364472725976,-0.06615474646372174,1.8266318764613831,-1.2719078161996664
1.9758900652829925,17.20230136445207,-0.06504400219993187,1.7962915488042235,-1.229782557139938
1.9642828384341755,16.881640844364743,-0.06392518500914679,1.7666031188327562,-1.1893478911258346
1.952877456092725,16.566267788159106,-0.06280128545141456,1.7375419501187568,-1.150503095126305
1.9416745959622828,16.256071397746844,-0.061674938220166134,1.7090846100175061,-1.1131553291918233
1.9306744898902861,15.950944991204807,-0.06054846257979589,1.6812087960051294,-1.0772189012618503
1.9198769774373257,15.650785805498458,-0.05942389800865345,1.6538932673987607,-1.042614610444599
1.90928155340778,15.355494811052544,-0.05830303565296606,1.627117782000298,-1.0092691594305383
1.8988874100486193,15.064976537320064,-0.05718744611548632,1.6008630372494954,-0.9771146279195345
1.8886934745352821,14.779138908571518,-0.05607850403270296,1.575110615512121,-0.9460879999877316
1.8786984422872375,14.497893089190622,-0.05497740983446133,1.5498429331645045,-0.9161307392203711
1.8689008065895885,14.221153337820738,-0.05388520902830474,1.5250431931675643,-0.8871884062126784
1.8592988849394558,13.948836869758996,-0.052802809306501754,1.5006953408517918,-0.8592103137110916
1.8498908424856757,13.680863727042926,-0.05173099573550102,1.4767840226600903,-0.8321492152469955
1.8406799564322718,13.417158302868106,-0.050612182635654174,1.4532762459490003,-0.8043572349159801
1.8316685333263698,13.15764748524948,-0.04951474076325457,1.430177283146842,-0.7777263090508637
1.8228527297069865,12.902258905947424,-0.04843863278544824,1.4074735979871145,-0.75219499310835
1.8142287141060893,12.650922582270304,-0.04738376278007601,1.385152220647545,-0.7277057077039913
1.8057926768656025,12.403570817813456,-0.04634998433644698,1.3632007177618934,-0.704204456490139
1.7975408385813822,12.160138108426167,-0.04533710771044203,1.3416071643190786,-0.6816405673874508
1.7894694573345475,11.920561053079428,-0.04434490614327942,1.3203601173113557,-0.6599664550122525
1.7815748348520328,11.684778269330973,-0.0433731214402177,1.2994485910048097,-0.63913740236175
1.773853321721949,11.452730313106109,-0.04242146889404687,1.278862033715892,-0.6191113600143844
1.7663013217749455,11.224359602532829,-0.0414896416282129,1.2585903059872168,-0.5998487612764456
1.758915295730098,10.999610345588177,-0.04057731442564831,1.2386236600644507,-0.5813123518609709
1.7516917641926382,10.778428471329821,-0.03968414710168218,1.2189527205839683,-0.5634670328231735
1.7446273100809493,10.560761564502336,-0.03880978747263949,1.199568466388083,-0.5462797156001248
1.7377185805514905,10.346558803322203,-0.03795387396579233,1.1804622133911618,-0.52971918811285
1.730962288482571,10.13577090025867,-0.037116037911091006,1.161625598425868,-0.5137559909878795
1.7243552135710285,9.928350045639963,-0.03629590555049205,1.143050564004194,-0.4983623030439452
1.717894203089787,9.724249853925624,-0.035493099796634626,1.1247293439328896,-0.4835118352690546
1.7115761723488774,9.523425312496194,-0.03470724176902933,1.1066544497274378,-0.46917973258464163
1.705398104897717,9.325832732821166,-0.03393795213275529,1.088818657772862,-0.4553424827577595
1.6993570525022013,9.131429703875096,-0.03318485226186118,1.0712149971834657,-0.4419778318801407
1.6934501349263869,8.940175047680047,-0.03244756524718906,1.0538367383170877,-0.4290647058850871
1.6876745395451866,8.752028776860268,-0.0317257167661477,1.0366773819026645,-0.4165831376201868
1.6820275208115314,8.566952054102174,-0.031018935830019936,1.019730648742835,-0.40451419903632363
1.6765063995987894,8.384907153419277,-0.030326855422667442,1.0029904699560332,-0.39283993809182793
1.6711085624368822,8.205857423127984,-0.029649113042969404,0.9864509777250053,-0.38154332000534275
1.6658373440257683,8.029992383866706,-0.028919980413852152,0.9676050140669967,-0.42043700822910984
1.6606929064246971,7.857510478699471,-0.028240437375826533,0.9488605989022916,-0.4604658411942326
1.655666478506675,7.688393654055563,-0.027608761713308585,0.9302152304744649,-0.5015283369934084
1.650749599254718,7.522624297784354,-0.02702322997510213,0.9116665058723078,-0.543524337958992
1.6459341178008826,7.360185221571683,-0.026482119511959095,0.893212118712938,-0.5863547863702538
1.641212193123775,7.201059643741157,-0.025983710233680277,0.8748498571817799,-0.6299215007516611
1.6365762934536414,7.045231172375939,-0.025526286101138128,0.8565776024317677,-0.6741269517559813
1.6320191954315773,6.892683788695841,-0.025108136366242106,0.8383933273470887,-0.7188740365974831
1.6275339830672675,6.743401830623409,-0.024727556570532952,0.8202950956799401,-0.7640658509632979
1.623114046537951,6.597369976470716,-0.024382849310761383,0.8022810615721934,-0.8096054572845277
1.6187530808700115,6.454573228676239,-0.024072324777454523,0.7843494694775706,-0.8553956481922617
1.6144450845437341,6.314996897517894,-0.023794301070074127,0.7664986545040247,-0.9013387039165236
1.6101843580613366,6.1786265847244835,-0.02354710428989633,0.7487270432005321,-0.9473361423074046
1.6059655025184214,6.045448166902858,-0.023329068409163628,0.73103315481754,-0.9932884600662538
1.6017834182194857,5.915447778692442,-0.023138534912343335,0.7134156030759542,-1.039094863669676
1.5976333033791554,5.788611795551876,-0.022973852202437216,0.6958730984859071,-1.0846529883490077
1.5935106529523395,5.664926816074409,-0.02283337476218531,0.6784044512637392,-1.1298586033515934
1.5894112576386443,5.544379643719331,-0.022715462056649063,0.6610085749037954,-1.1746053015561813
1.5853312031091462,5.426957267835604,-0.022618477159996486,0.6436844904709448,-1.21878417134171
1.5812668695070704,5.312646843841087,-0.022540785085290612,0.6264313316903695,-1.2622834484152716
1.5772149312781467,5.201435672405854,-0.02248075079164037,0.6092483509233435,-1.3049881450899123
1.5731723573914662,5.093311177470902,-0.022436736838141454,0.592134926131685,-1.3467796542652017
1.5691364120176652,4.988260882913586,-0.022407100648534826,0.5750905689495956,-1.3875353251027536
1.5651046557383053,4.886272387648123,-0.022390191344352973,0.5581149340000101,-1.427128007105494
1.561074947368547,4.787333338922888,-0.022384346097406714,0.541207829613716,-1.465425559005157
1.5570454464847603,4.691431403545614,-0.02238788594466987,0.5243692301337588,-1.5022903185409047
1.5530146167597572,4.598554236732188,-0.022399110999808982,0.5075992900154138,-1.5375785288797301
1.5489812302210684,4.508689448234065,-0.02241629498561929,0.4908983599637166,-1.571139717097371
1.544944372562338,4.421824565352537,-0.022437679000274872,0.47426700538657773,-1.6028160198241126
1.5409034496547518,4.337946992394347,-0.022461464417348274,0.45770602748220673,-1.6324414508896226
1.5368581954247662,4.257043966061687,-0.02248580480471515,0.44121648732510566,-1.659841105614681
1.5328086812866089,4.179102506199563,-0.02250879673036682,0.42479973336516963,-1.6848302963545068
1.5287553273435763,4.104109361243896,-0.02252846930332839,0.4084574328088799,-1.7072136140854004
1.5246989156015562,4.0320509476243025,-0.022542772274673425,0.39219160740882475,-1.7267839113709593
1.5206406054721837,3.9629132822754407,-0.022549562496130476,0.376004674245199,-1.7433212031319179
1.5165819518824706,3.896681907301147,-0.022546588500683196,0.35989949213584976,-1.7565914835449452
1.5125249263538052,3.8333418057172395,-0.022531472928932768,0.34387941435202457,-1.766345460503595
1.5084719414675534,3.772877307075632,-0.022501692473865874,0.327948348332495,-1.7723172139607841
1.504425879199363,3.7152719816504103,-0.0224545549504718,0.31211082305884374,-1.774222791969012
1.5003901236830872,3.6605085217568423,-0.022387173008146546,0.296372064647457,-1.7717587695548576
1.4963685990630247,3.608568608695421,-0.022296433881438954,0.28073808047942606,-1.7646008124770443
1.4923658132177207,3.559432763794643,-0.022178964399715364,0.2652157517514381,-1.7524023130037996
1.4883869083021095,3.5130801821155835,-0.0220310902181876,0.2498129335714314,-1.7347932018698928
1.4844377192767633,3.4694885476523822,-0.021848787841216133,0.2345385604641514,-1.7113790950142729
1.4805248419049861,3.4286338294292484,-0.021627627400752667,0.21940275312621743,-1.681741013484819
1.4766557121518051,3.390490058930517,-0.02136270319014737,0.20441691908191928,-1.6454360313916685
1.4728386995981253,3.3550290910661467,-0.02104854740629383,0.18959383496662266,-1.601999375993969
1.46908321852816,3.322220353755739,-0.020679020037766643,0.17494769070456126,-1.550948747732179
1.4653998619903823,3.2920305957598472,-0.020247163715318057,0.16049406480535267,-1.4917919742948558
1.4618005667557075,3.264423649351322,-0.019745005558846035,0.14624978417826048,-1.4240395934143266
1.4582988213356671,3.2393602347474015,-0.01916327688604675,0.1322326003097426,-1.3472245992520078
1.4549099361172213,3.216797847901802,-0.018491003318907323,0.1184605868635862,-1.2609323762880469
1.451651405899936,3.196690792790047,-0.017714887984263804,0.10495113660036612,-1.1648446643649584
1.4485434133570596,3.1789904423693933,-0.01681836249213924,0.09171942362913792,-1.0588018670490147
1.4456095513814744,3.163645832690598,-0.01578010390325082,0.07877623946859799,-0.942887188706277
1.4428778896824532,3.15060469490939,-0.014571692752543011,0.06612529143372259,-0.8175320063324415
1.4403825888821746,3.139814971801851,-0.013153871694996516,0.05376052087228335,-0.683631268701685
1.4381664050267826,3.131226676277876,-0.01147039336491273,0.041664984949672995,-0.5426370003742402
1.4362847365786275,3.1247935065386727,-0.009437033836809841,0.02981467881926491,-0.3965682149212312
1.4348128041530457,3.1204726772599116,-0.006917770891878922,0.018194535389182663,-0.24785142240193658
1.4338616788022147,3.1182186646297403,-0.003650288561798252,0.006850049390484399,-0.09891804092837453
