x,y,v_x,v_y,omega
2.375,32.48,0.0,2.5128205128205128,-2.4897959183673475
2.3745879696376417,32.007296918032,-0.004337161709032092,2.46300140263211,-2.3622695318255302
2.373402283583446,31.54391085948921,-0.008143744124610193,2.414746582028824,-2.24425147438811
2.3715379716568505,31.089552246557677,-0.011480591944813465,2.3679756593557184,-2.134805679302207
2.3690792206515816,30.643946247271835,-0.014400997584333818,2.322613806811037,-2.033105963542457
2.3661007112702785,30.20683176576343,-0.016951732745173302,2.2785912616984993,-1.9384213028797452
2.362668773752209,29.777960521916025,-0.019173925339769384,2.235842884063662,-1.8501033106273341
2.3588423891713353,29.357096210459257,-0.021103807090480296,2.1943077628496708,-1.767575556676691
2.3546740589990143,28.944013730906413,-0.02277335261816006,2.1539288640223893,-1.6903244288762473
2.3502105619169464,28.53849848088266,-0.024210827193080448,2.1146527151750276,-1.6178912914573202
2.345493613883326,28.14034570635262,-0.02544125737134815,2.076429121983259,-1.5498657377726566
2.34056044498093,27.74935990306858,-0.026486836338084956,2.039210912585586,-1.4858797691712717
2.3354443045163835,27.36535426425139,-0.027367273815031293,2.002953706542726,-1.425602760011279
2.330174904119979,26.98815017010647,-0.028100098778704428,1.9676157055090944,-1.3687370918795367
2.3247788071547575,26.61757671528399,-0.02870092190783564,1.9331575031485537,-1.3150143590414862
2.319279771533255,26.25347027082961,-0.029183663581662293,1.8995419121607509,-1.264192062775642
2.313699052020616,25.895674077550602,-0.029560752340854597,1.866733806565626,-1.216050725181674
2.3080556672414576,25.544037868051866,-0.029843297966076973,1.834699977631609,-1.1703913637890846
2.3023666358783874,25.19841751498351,-0.030041242697820957,1.803409002035261,-1.1270332772360134
2.296647185930766,24.858674703293946,-0.030163493592926725,1.7728311210127936,-1.0858120997572567
2.29091094037528,24.524676624503595,-0.030218038570087192,1.7429381294119626,-1.0465780884777947
2.2851700821203487,24.19629569120983,-0.030212048323927727,1.713703273680308,-1.0091946127642666
2.27943550076214,23.873409270206295,-0.030151965973001828,1.6851011579358746,-0.9735368193138686
2.2737169233207686,23.555899432752987,-0.03004358604143612,1.6571076573620978,-0.9394904503984763
2.268023030852682,23.243652720669676,-0.029892124148946164,1.6296998382516967,-0.9069507958464011
2.262361562592207,22.936559927046545,-0.0297022785928973,1.602855884097022,-0.8758217620295798
2.256739409065747,22.634515890474482,-0.02947828484352415,1.5765550271878845,-0.8460150434080461
2.2511626954413053,22.337419301794426,-0.02922396383481169,1.5507774852337437,-0.8174493841306091
2.2456368562195625,22.04517252245247,-0.02894276481511149,1.5255044025763105,-0.790049918854118
2.2401667022372096,21.757681413625527,-0.028637803420181754,1.5007177956020485,-0.7637475833678583
2.234756480835576,21.474855175353095,-0.028311895544380076,1.4764005020024944,-0.7384785868314447
2.2294130528966467,21.196607054497996,-0.02793471433908765,1.452527085945898,-0.712911043863353
2.224142177547848,20.922853297386347,-0.02754818406931957,1.4290914099661927,-0.6884618534715921
2.218945472771303,20.65351215796626,-0.027153971473260402,1.4060784786662928,-0.6650692546894789
2.213824256492005,20.388504677311182,-0.02675356830881904,1.383473949281902,-0.6426755400958947
2.2087795781572117,20.127754563022272,-0.026348308899534715,1.3612640958645381,-0.6212267474290294
2.2038122471555255,19.871188075213894,-0.02593938585506068,1.3394357758025748,-0.6006723777900087
2.1989228584033884,19.618733918654897,-0.025527864167434473,1.3179763985026576,-0.5809651378787681
2.194111815390714,19.370323140670564,-0.025114693860716356,1.2968738960692472,-0.56206070397556
2.1893793509456096,19.125889034439766,-0.024700721350906094,1.2761166958339276,-0.5439175056211811
2.1847255459500543,18.885367047348666,-0.02428669965493923,1.2556936945986772,-0.5264965271612989
2.1801503462135257,18.64869469408727,-0.023873297571679955,1.2355942344686504,-0.5097611255085264
2.175653577689548,18.41581147419752,-0.023461107943877964,1.2158080801603148,-0.4936768626430933
2.171234960200589,18.18665879380268,-0.023050655097791042,1.1963253976801205,-0.4782113515216347
2.166894119819393,17.961179891266717,-0.02264240154637769,1.1771367342773522,-0.4633341141959833
2.1626306000394044,17.73931976655003,-0.02223675403244805,1.1582329995825282,-0.449016451061858
2.1584438718532444,17.521025114043965,-0.02183406897976553,1.1396054478497177,-0.4352313202626572
2.1543333428459626,17.306244258681623,-0.021434657412675626,1.1212456612275434,-0.4219532263676823
2.1502983653989216,17.094927095136008,-0.021038789398281313,1.1031455339894651,-0.4091581175283152
2.1463382440904435,16.887025029929383,-0.020646698059380544,1.0852972576592634,-0.3968232903910886
2.142452242370685,16.68249092628936,-0.02025858320123873,1.067693306972505,-0.3849273021142078
2.1386395885804497,16.48127905159815,-0.01987461459070835,1.0503264266192236,-0.3734498888947864
2.1348994813767277,16.283345027291194,-0.019494934922158477,1.0331896187171254,-0.3623718904686028
2.13123109462152,16.088645781071072,-0.019119662501079004,1.016276130968362,-0.35167518009325177
2.12763358178498,15.897139501310726,-0.018748893673023737,0.9995794454563388,-0.3413425995697534
2.124108579247435,15.708983698245262,-0.01835639619587292,0.9810079552327382,-0.3726124865976297
2.1206548759355295,15.524346151620417,-0.017998375508397293,0.9625451671340617,-0.4053387058737878
2.1172659947624384,15.343206477090089,-0.01767405789256023,0.9441882489746751,-0.4394157270383083
2.113935610751348,15.165544818041816,-0.01738261590839194,0.9259344778492573,-0.47473996283317543
2.1106575607334257,14.991341825160518,-0.017123173753948406,0.9077812366907342,-0.5112095429926479
2.107425852072895,14.820578636611355,-0.016894812146373964,0.889726011195176,-0.5487240910391998
2.1042346705072754,14.653236858772498,-0.016696572754886643,0.8717663871085833,-0.5871845030507844
2.1010783871852925,14.489298547449241,-0.016527462213351253,0.8539000478730836,-0.6264927274541782
2.097951564980002,14.328746189501185,-0.01638645573707695,0.836124772632756,-0.6665515448808201
2.094848964150253,14.171562684813871,-0.01627250036554788,0.8184384346021353,-0.7072643470954791
2.091765547419781,14.017731328545342,-0.016184517849941137,0.8008389998034563,-0.7485349139738068
2.0886964845398963,13.867235793576729,-0.016121407201479355,0.7833245261819338,-0.790267187461797
2.085637156398937,13.720060113093815,-0.016082046913878312,0.765893163111876,-0.8323650413977242
2.082583158739435,13.57618866322371,-0.016065296870354996,0.7485431513102658,-0.8747320460145022
2.0795303055421828,13.435606145647263,-0.016069999942828428,0.7312728231786696,-0.917271225866731
2.07647463213525,13.298297570103383,-0.016094983288042736,0.7140806035990325,-0.9598848098409785
2.073412398085364,13.164248236696128,-0.01613905934233527,0.6969650112141684,-1.0024739718089886
2.0703400899290476,13.033443717908966,-0.016201026513624834,0.679924660229657,-1.0449385603702912
2.0672544238014963,12.905869840222998,-0.01627966956586619,0.6629582627805303,-1.0871768160017736
2.064152348022411,12.781512665227044,-0.01637375968766161,0.6460646319137014,-1.1290850737857585
2.0610310456999588,12.660358470096902,-0.01648205423288966,0.6292426852457059,-1.170557449723513
2.0578879374167145,12.54239372730887,-0.016603296117049637,0.6124914493651716,-1.2114855084563918
2.0547206840649905,12.427605083438412,-0.016736212848465753,0.595810065060708,-1.2517579100105602
2.0515271899033807,12.3159793368782,-0.016879515168478205,0.5791977934678411,-1.2912600329521613
2.048305605911802,12.207503414290624,-0.017031895269190293,0.5626540232434821,-1.3298735710869918
2.04505433352887,12.10216434558761,-0.01719202455115179,0.5461782788935136,-1.3674761005619063
2.0417720288632486,11.999949237204845,-0.017358550876437222,0.5297702303987376,-1.4039406139249646
2.0384576074798306,11.900845243407794,-0.017530095264806263,0.5134297043070472,-1.4391350173799875
2.0351102498723455,11.804839535332487,-0.01770524797187717,0.49715669648564764,-1.4729215871332393
2.0317294077465746,11.711919267424442,-0.017882563878345387,0.48095138675692806,-1.5051563803834447
2.0283148112528666,11.622071540893355,-0.018060557108053397,0.4648141556755723,-1.5356885961644424
2.024866477323507,11.535283363748576,-0.018237694779942658,0.44874560374313704,-1.5643598809331773
2.0213847192899017,11.451541606919989,-0.01841238978432517,0.43274657339989814,-1.5910035735361054
2.01787015797696,11.370832955899669,-0.01858299245716521,0.41681817418241096,-1.6154438840320307
2.0143237344978897,11.293143857260912,-0.01874778100673207,0.40096181148870147,-1.637495000869629
2.0107467250024222,11.21846045932169,-0.018904950524505675,0.385179219450475,-1.6569601212177025
2.0071407576659417,11.146768546119116,-0.019052600385816455,0.36947249847137337,-1.6736303999784496
2.0035078322469317,11.078053463749708,-0.019188719814288456,0.353844158048707,-1.6872838144024092
1.9998503425866905,11.012300038008089,-0.019311171346143848,0.3382971655472938,-1.6976839435948237
1.99617110247988,10.949492482126423,-0.019417671883440214,0.32283500162813406,-1.7045786660338254
1.9924733754092119,10.889614293283373,-0.019505770965698367,0.3074617230355691,-1.7076987842074987
1.9887609087153861,10.832648136423067,-0.019572825811416186,0.29218203338869314,-1.706756594637637
1.9850379728686258,10.778575713816885,-0.01961597257553333,0.2770013624658476,-1.7014444353828078
1.9813094066274286,10.72737761873816,-0.019632093121279726,0.2619259541523043,-1.691433263784355
1.9775806690237674,10.679033171642523,-0.01961777639094338,0.2469629626438852,-1.6763713479329063
1.9738578993183016,10.63352023741744,-0.01956927314027527,0.2321205555148947,-1.6558832007671314
1.9701479863505549,10.590815022682524,-0.019482442309690446,0.21740802064212927,-1.629568952691783
1.9664586491105698,10.550891852939454,-0.019352686532257177,0.20283587139018672,-1.5970044569949766
1.9627985309512488,10.513722930818489,-0.01917487303954319,0.18841594040944198,-1.557742566269576
1.9591773107623176,10.479278079093941,-0.01894323421236502,0.17416144616473753,-1.5113162271997644
1.9556058358342434,10.447524476050123,-0.01865123871473114,0.16008700692806435,-1.4572443417961864
1.9520962833821511,10.418426396886016,-0.018291418675713534,0.1462085632204533,-1.3950417678080083
1.94866236132449,10.391944984096533,-0.017855129299666532,0.13254315035305186,-1.3242354121997284
1.9453195648302737,10.368038083266331,-0.017332202218400154,0.1191084373332721,-1.2443891228608475
1.9420855148612497,10.34666019938297,-0.016710429034484033,0.1059219193336779,-1.155140949057613
1.9389804208726187,10.327762652367344,-0.01597477084584296,0.09299962819921936,-1.05625707710495
1.936027735886129,10.311294035178825,-0.015106123748783739,0.08035423694307979,-0.9477066806266279
1.9332551145635373,10.29720109098798,-0.014079363857447213,0.06799254401321045,-0.8297595292809652
1.9306958545653115,10.285430096786303,-0.012860215071244354,0.05591265810968526,-0.7031006114744087
1.9283911222607613,10.27592870664347,-0.011400124976652444,0.04410197497279177,-0.568939261754718
1.926393508975052,10.268647857287245,-0.009627383293971028,0.03253854456640441,-0.42906236378208296
1.9247731248923128,10.26354256700597,-0.007429291261178857,0.021201353131209476,-0.28575055681227246
1.9236299769606255,10.260568541513546,-0.004603844861844689,0.010104178367983167,-0.1414692762134414
1.9231328565210133,10.259661681792007,-0.0006290018709156414,-0.000558286562294846,0.0016471614509647181
