x,y,v_x,v_y,omega
2.375,32.48,0.0,2.564102564102564,-6.285714285714286
2.373711647657345,31.947364318118293,-0.012270022310998547,2.5086182157231725,-5.92785407286894
2.3700171102330247,31.42616402283143,-0.02291604839681479,2.455194120342227,-5.600178005605264
2.364235877785249,30.91598021742217,-0.03214330824866991,2.403699264507842,-5.299334604989478
2.3566473343668926,30.41642022847443,-0.04012853383091327,2.354014915946856,-5.022419089313942
2.347496275231101,29.92711519514208,-0.04702441031948432,2.306033020551682,-4.7669044027313445
2.3369975718956604,29.447717966766156,-0.05296324049423328,2.259654868742852,-4.5305843811650615
2.325340133754868,28.977901257951444,-0.05805997989427021,2.214789977111547,-4.3115266456109795
2.3126902855711777,28.517356020281202,-0.06241476471229848,2.171355143557406,-4.108033348121401
2.299194657359942,28.06578999765358,-0.06611502777566436,2.129273643372321,-3.918608299275937
2.2849826652713237,27.622926438325027,-0.06923727783022253,2.088474540709157,-3.7419293132961093
2.2701686478935326,27.188502941553953,-0.0718486019582649,2.048892095205836,-3.57682484327517
2.254853711083801,26.762270420555705,-0.0740079390867972,2.0104652476346225,-3.42225416227527
2.239127325334027,26.343992166533734,-0.07576716329200182,1.9731371716222383,-3.2772904893393493
2.2230687123128314,25.933443001012133,-0.07717200833843307,1.9368548809644375,-3.141106572335451
2.2067480512278617,25.530408505690268,-0.07826285913747011,1.9015688840057197,-3.012962329072494
2.1902275307402395,25.134684320669695,-0.0790754312208382,1.8672328780949725,-2.8921942195859427
2.173562268119714,24.74607550324255,-0.079641355641309,1.8338034783540123,-2.7782060798748955
2.156801113984947,24.364395940537648,-0.07998868373742209,1.8012399759783975,-2.670461193708799
2.1399873581953623,23.98946781024133,-0.08014232378243287,1.7695041220817918,-2.568475416733636
2.1231593501439274,23.621121084380324,-0.08012441956456798,1.7385599337372961,-2.471811197785752
2.106351044760324,23.259193071801654,-0.07995467932689013,1.7083735193928833,-2.380072367458917
2.089592483904089,22.903527995532308,-0.07965066216106347,1.678912921267572,-2.292899584655968
2.0729102214534105,22.55397660166685,-0.07922802784539822,1.6501479726891475,-2.2099663489476993
2.05632769923359,22.21039579682857,-0.0787007552005093,1.6220501686278075,-2.1309755007369873
2.0398655799440446,21.872648311590556,-0.07808133327135341,1.594592547924703,-2.0556561430254794
2.0235420424050488,21.540602387536953,-0.0773809290047968,1.5677495859191262,-1.9837609284353674
2.0073730437312616,21.214131485898655,-0.07660953455508057,1.5414970963503682,-1.9150636633969291
1.991372552428719,20.893114015918503,-0.07577609689770674,1.5158121415558519,-1.8493571883538555
1.9755527558891213,20.577433081293513,-0.07488863205084337,1.4906729501107225,-1.7864514986901205
1.9599470682663793,20.26698237618361,-0.0737369643562216,1.4660004318883415,-1.720205789056417
1.9445849893371228,19.96165945936106,-0.07256854925574546,1.4418368711835792,-1.6571088570573598
1.9294695743217065,19.661359438837337,-0.07138778422440999,1.4181633242804077,-1.596972621112583
1.914603008828629,19.365981304598414,-0.07019855380489856,1.3949617637093357,-1.5396223741226747
1.8999867107338368,19.075427742098917,-0.06900428519312356,1.3722150220001685,-1.4848956810274947
1.8856214210371238,18.789604957129697,-0.06780799763271297,1.3499067396114626,-1.4326413794612527
1.8715072849193262,18.508422511220196,-0.06661234634631429,1.32802131666948,-1.3827186727322083
1.8576439240807132,18.23179316681027,-0.06541966164047425,1.3065438681869732,-1.334996305597817
1.844030501315562,17.959632741491784,-0.06423198374191746,1.2854601824652572,-1.2893518143921328
1.8306657781679334,17.691859970679637,-0.063051093854548,1.2647566824123524,-1.2456708440128352
1.8175481664171746,17.42839637812506,-0.06187854186696405,1.2444203895359776,-1.2038465251087263
1.8046757740568555,17.16916615373249,-0.060715671088454104,1.2244388903932872,-1.163778905540613
1.7920464463562098,16.91409603818471,-0.0595636403462697,1.2048003052998306,-1.1253744308325448
1.7796578025274101,16.66311521392078,-0.05842344373753589,1.1854932591185658,-1.088545468897902
1.7675072684640263,16.41615520204688,-0.057295928294690594,1.1665068539661878,-1.053209874825708
1.7555921059648005,16.173149764793116,-0.05618180979317329,1.1478306436887196,-1.0192905919552617
1.743909438811635,15.934034813158792,-0.055081686903642214,1.1294546099715106,-0.9867152858590588
1.7324562760306337,15.698748319415916,-0.05399605386779805,1.111369139960632,-0.9554160082013696
1.7212295326295814,15.4672302341653,-0.05292531185650936,1.0935650052833241,-0.9253288877482033
1.710226048073792,15.23942240766225,-0.051869779151007926,1.076033342364763,-0.8963938460784912
1.6994426027343619,15.015268515149504,-0.050829700272136714,1.058765633947093,-0.8685543357902927
1.688875932518072,14.794713985953987,-0.049805254168718796,1.041753691724516,-0.8417570992132494
1.6785227418661537,14.577705936121301,-0.04879656156383689,1.0249896400153289,-0.8159519458325245
1.6683797152895192,14.364193104377875,-0.04780369154696737,1.0084659003982406,-0.791091546802802
1.6584435275906038,14.154125791225216,-0.04682666749032202,0.9921751772461443,-0.767131245085961
1.6487193478867608,13.947607203431705,-0.04578456778437458,0.974668516025402,-0.7728636434709597
1.639209855937078,13.7447522549862,-0.04478202221260459,0.9572833739318062,-0.7808299601224644
1.629906787506639,13.545535793245296,-0.04381862950586236,0.9400162616958347,-0.7909038672321734
1.6208019724704728,13.349933383184446,-0.04289389464810121,0.92286383412177,-0.8029627517545217
1.6118873535882408,13.157921277802405,-0.04200723756363086,0.905822883802434,-0.81688743136635
1.6031550035290016,12.969476389793385,-0.04115800109578917,0.8888903353310831,-0.8325618808836436
1.594597140289447,12.784576264384981,-0.040345458328540855,0.8720632399870463,-0.8498729679881999
1.5862061411386317,12.603199053244499,-0.039568819298272495,0.8553387708746991,-0.8687101971616952
1.5779745552127074,12.425323489360338,-0.038827237139102064,0.838714218498258,-0.8889654607614643
1.5698951148744622,12.250928862808461,-0.03811981370132702,0.8221869867577065,-0.9105327962016572
1.5619607459445102,12.079994997316739,-0.037445604679169485,0.805754589353946,-0.9333081482254579
1.5541645769037225,11.912502227542202,-0.03680362428071326,0.7894146465940289,-0.9571891352688686
1.5464999471599143,11.748431376977866,-0.03619284946984044,0.7731648825901204,-0.9820748189241966
1.538960414465842,11.587763736406792,-0.035612223807040495,0.7570031228486629,-1.0078654755118157
1.531539761570221,11.430481042821523,-0.03506066091315868,0.7409272922491413,-1.0344623687618955
1.524232002178707,11.2765654587268,-0.03453704757745063,0.7249354134148819,-1.0617675225934335
1.517031386297562,11.12599955174268,-0.03404024652869336,0.7090256054815162,-1.0896834929558619
1.5099324050290668,10.978766274423545,-0.03356909888554693,0.6931960832721473,-1.1181131376684181
1.5029297948846008,10.834848944206321,-0.03312242629984289,0.6774451568919083,-1.1469593831540275
1.4960185416787002,10.69423122339802,-0.03269903280397214,0.6617712317585663,-1.176124986917206
1.4891938840653247,10.556897099108905,-0.032297706371031444,0.6461728090901562,-1.2055122945590164
1.4824513167760134,10.422830863032523,-0.03191722019383929,0.6306484868753892,-1.2350229900558798
1.4757865936185965,10.29201709096803,-0.0315563336863215,0.6151969613578602,-1.2645578379525502
1.4691957302946859,10.164440621973007,-0.031213793208065964,0.5998170290709461,-1.2940164160322924
1.4626750070942864,10.04008653702654,-0.030888332510023302,0.5845075894668591,-1.3232968369288038
1.456220971526617,9.918940137072497,-0.03057867289635267,0.5692676481906835,-1.352295457034329
1.4498304409476046,9.80098692030133,-0.030283523094242162,0.5540963210585286,-1.3809065709365813
1.4435005052465955,9.686212558515315,-0.030001578820130603,0.5389928388082795,-1.4090220894836207
1.4372285296576386,9.574602872406736,-0.02973152202707638,0.5239565527020086,-1.4365311994313665
1.4310121577643247,9.466143805560563,-0.029472019814007912,0.5089869410710502,-1.4633200024742221
1.4248493147716688,9.360821396972735,-0.029221722973191224,0.4940836169082478,-1.4892711312976759
1.4187382111240074,9.258621751851521,-0.028979264147395316,0.4792463366271102,-1.5142633401264844
1.4126773465544318,9.159531010442574,-0.028743255562847937,0.46447501012476855,-1.538171067078989
1.4066655146590366,9.063535314587465,-0.028512286298059616,0.44976971230485074,-1.5608639654860859
1.4007018080983469,8.970620771690484,-0.02828491904184108,0.43513069623783285,-1.5822064012053552
1.3947856245389014,8.880773415728697,-0.028059686286210472,0.42055840816013723,-1.6020569128757398
1.3889166734602725,8.79397916489527,-0.027835085891208148,0.4060535045391638,-1.6202676320431297
1.3830949839670839,8.710223775415432,-0.027609575948683303,0.3916168714592984,-1.6366836601810733
1.3773209137621103,8.629492791017825,-0.02738156886058832,0.3772496466131521,-1.6511423998888362
1.371595159455699,8.551771487481208,-0.02714942453380472,0.3629532442117547,-1.6634728380494532
1.3659187684090166,8.477044811607666,-0.026911442577455234,0.3487293831553022,-1.6734947795841069
1.360293152334617,8.405297313899283,-0.02666585336920873,0.3345801188293076,-1.6810180318028647
1.354720102908379,8.336513074137194,-0.02641080783305641,0.3205078789048529,-1.6858415414472097
1.3492018096831409,8.270675618982722,-0.026144365740641197,0.30651550351868523,-1.6877524896605431
1.343740880637954,8.207767830644588,-0.025864482308757826,0.29260629017783013,-1.6865253547530141
1.3383403657501713,8.147771845591919,-0.02556899281298252,0.2787840436571247,-1.6819209593758424
1.3330037840439655,8.090668942251767,-0.02525559486516783,0.2650531310109788,-1.6736855284797556
1.3277351546535356,8.036439416631332,-0.024921827900830935,0.25141854156460963,-1.661549798466776
1.322539032549998,7.985062444877549,-0.024565049275719668,0.23788595132856413,-1.6452282380451317
1.3174205497298215,7.9365159319739185,-0.024182406154531655,0.22446179061078758,-1.62441846999284
1.312385462868343,7.8907763461407185,-0.023770802050027195,0.21115331256253442,-1.5988010238802615
1.3074402087336274,7.847818539146022,-0.02332685637583511,0.19796865881552292,-1.568039607742648
1.3025919690798327,7.807615553789844,-0.02284685461268678,0.18491691600520874,-1.5317821685084925
1.2978487473681255,7.770138421492035,-0.02232668549881061,0.17200815349772489,-1.4896631257180648
1.2932194606126515,7.73535595547504,-0.02176175979141721,0.15925342761652458,-1.4413073222045596
1.2887140511021737,7.703234548863019,-0.021146902213132583,0.1466647305932069,-1.3863364522957973
1.284343624994243,7.67373799259947,-0.020476203576684386,0.13425485286914857,-1.3243790151797377
1.280120628272739,7.646827335961827,-0.019742812818591384,0.12203711510840759,-1.255085202290061
1.2760590760076054,7.622460823086673,-0.018938637325540113,0.11002491227400595,-1.178148540146664
1.2721748593381794,7.600593952302507,-0.01805390238327894,0.09823099995614187,-1.0933364855523686
1.2684861677430617,7.581179719823663,-0.01707649376069927,0.08666645222331762,-1.0005322780540873
1.265014084380131,7.56416912094479,-0.01599096683864061,0.07533925138500533,-0.8997896928020761
1.261783443313376,7.549511979321821,-0.014777043320929651,0.06425257359565552,-0.7913999600426211
1.2588240859707616,7.53715813586593,-0.01340731232301736,0.05340307836522365,-0.6759645640898782
1.2561727361291826,7.527058913520513,-0.011843638549163607,0.04277999159111306,-0.5544574105743731
1.2538758782264101,7.51916851948625,-0.01003119862009772,0.03236661825899623,-0.4282453259276936
1.2519944598128052,7.513444539018245,-0.007887071985663711,0.02214748143628687,-0.29902275673308426
1.2506127735243973,7.509845515303326,-0.005271845046792323,0.012128934896286617,-0.16861719522676746
1.249861895619105,7.508318798181332,-0.0018793730988477851,0.002411228170331828,-0.038660825235935975
