x,y,v_x,v_y,omega
2.375,32.48,0.0,3.0256410256410255,-5.061224489795919
2.3740854607263095,31.941256191586966,-0.010161547485450438,2.9604012900593197,-4.771063549560933
2.371464215460057,31.414041545013312,-0.0189633999173567,2.897539227425708,-4.505549662220443
2.3673654270474427,30.897940910259297,-0.02657869355613155,2.836912269841119,-4.261942827422739
2.3619892521965586,30.39256371592638,-0.033156582564803194,2.778389889413563,-4.0378656772983215
2.3555108271743124,29.89754192621468,-0.03882591768237642,2.7218522184941847,-3.8312484961358724
2.348083647663713,29.412528227773134,-0.04369829910206801,2.667188875300779,-3.6402836128177105
2.3398424448038915,28.93719441283624,-0.04787062156261182,2.6142979573313387,-3.4633873887081648
2.330905640412213,28.47122993110745,-0.05142720501159234,2.563085172988586,-3.299168395880708
2.3213774492893866,28.0143405876236,-0.05444158524203485,2.513463087943081,-3.146400667195578
2.311349684440398,27.56624736763792,-0.05697802419117004,2.4653504674533617,-3.0040011222648264
2.3009033113361212,27.126685372612577,-0.05909278807857343,2.4186716994948876,-2.871010447395391
2.2901097894853306,26.695402853883266,-0.060835232485768824,2.3733562863863793,-2.7465768446827346
2.2790322331967716,26.2721603325734,-0.06224872627599491,2.3293383948343513,-2.6299421740824793
2.2677264181870087,25.856729795990542,-0.06337144049915162,2.2865564560862746,-2.5204300989223376
2.2562416563996663,25.44889396210614,-0.06423702380464852,2.2449528092959525,-2.417435914776373
2.2446215578635926,25.048445604858806,-0.06487518215172675,2.204473382341117,-2.3204177976010247
2.2329046954880125,24.65518693397531,-0.06531217757694312,2.1650674052533225,-2.228889252362612
2.2211251862583516,24.268929023807207,-0.06557125830817671,2.1266871521700064,-2.1424125802612046
2.209313200266349,23.889491286361896,-0.06567303049184851,2.089287708333476,-2.0605932127812068
2.197495407309723,23.516700984286683,-0.06563578013733459,2.052826759168865,-1.9830747855096869
2.1856953693714036,23.15039278006102,-0.06547575251065853,2.0172643988940724,-1.9095348450102072
2.1739338860888164,22.790408318078615,-0.065207395073642,1.9825629564659668,-1.8396810988541241
2.162229299311292,22.436595836670115,-0.06484356912107407,1.9486868369618122,-1.7732481328543537
2.1505977619870036,22.088809807436654,-0.06439573448213017,1.91560237674332,-1.7099945311467515
2.139053475894056,21.746910599543245,-0.06387411099506744,1.8832777109612324,-1.6497003444455691
2.1276089021122946,21.41076416686436,-0.0632878199133926,1.8516826521375007,-1.592164859903654
2.116274947605599,21.08024175608761,-0.06264500793877782,1.8207885787152749,-1.537204632811641
2.1050611308343727,20.755219634069377,-0.061952956185960494,1.7905683325984052,-1.4846517460979214
2.093975728932649,20.43557883290213,-0.06121817605541772,1.7609961248154586,-1.4343522684257055
2.0830259086536995,20.121204911300026,-0.0604464937106828,1.7320474485412771,-1.3861648857747566
2.0722178430038944,19.81198773103983,-0.05964312462048476,1.7036989987941955,-1.3399596848661968
2.0615568152398365,19.507821247310247,-0.05881273942460445,1.675928598201166,-1.295617069740346
2.0510473116926504,19.20860331192624,-0.05795952221079692,1.6487151282878052,-1.2530267953133238
2.0406931047007517,18.914235488457695,-0.057087222143633945,1.62203846580716,-1.2120871038872958
2.0304973267743556,18.624622878404672,-0.05619919926076905,1.5958794236708904,-1.1727039524291936
2.020462536977867,18.33967395762614,-0.055298465144661926,1.570219696090563,-1.1347903200112874
2.0105907803971523,18.059300422296182,-0.05438771908549688,1.5450418075756203,-1.0982655861640533
2.0008836414550126,17.783417043722164,-0.05346938027160857,1.52032906546903,-1.0630549720607614
1.9913422917477939,17.511941531414053,-0.05254561647527037,1.4960655157322014,-1.0290890374621184
1.9819725716675856,17.24479644934212,-0.05156238441593073,1.4722131739559097,-0.9944523585652009
1.9727790541546144,16.9819069361508,-0.05058781017263883,1.4487814170588005,-0.9612795280455775
1.9637600948881047,16.72319855107871,-0.04962284834413535,1.4257561948532718,-0.9294922503763541
1.9549138902553314,16.468599328842956,-0.04866831424223501,1.4031240522106876,-0.8990172079460522
1.946238501057457,16.218039675399986,-0.047724899067480384,1.3808720971556412,-0.8697856939018114
1.9377318736294231,15.971452269266052,-0.046793183466228516,1.3589879709991781,-0.8417332757022921
1.9293918586491596,15.72877196804383,-0.045873649647809975,1.337459820358835,-0.8147994865130869
1.921216227881089,15.489935719828164,-0.044966692219642765,1.3162762709263385,-0.7889275418725274
1.913202689072123,15.254882479187795,-0.04407262787997822,1.29542640285554,-0.7640640793177134
1.9053488991946477,15.023553127441957,-0.04319170409197068,1.2748997276537875,-0.7401589188934115
1.8976524762099862,14.795890396970858,-0.0423241068487108,1.254686166469546,-0.7171648426736871
1.8901110095072178,14.571838799317597,-0.04146996762649638,1.2347760296778159,-0.6950373916107817
1.882722069155688,14.351344556856041,-0.04062936961272054,1.2151599976728158,-0.6737346781905046
1.8754832140948798,14.134355537814873,-0.039802353285150215,1.1958291027846033,-0.6532172135205797
1.8683919993722364,13.920821194462398,-0.03898892141088669,1.1767747122428747,-0.6334477476100151
1.8614459825279341,13.710692504269996,-0.038189043525805946,1.1579885121171523,-0.614391121715421
1.8546427292152332,13.50392191388433,-0.03740265994864792,1.1394624921680325,-0.5960141317358486
1.84797981813583,13.300463285749785,-0.03662968537805517,1.1211889315491412,-0.5782854017325322
1.8414548453613957,13.100271847233003,-0.03587001211566095,1.1031603853040015,-0.5611752667350872
1.835065428105152,12.903304142111086,-0.03512351295371428,1.085369671606185,-0.5446556640723177
1.8288092080007705,12.709517984293985,-0.03439004376163482,1.0678098596949324,-0.5287000325347407
1.8226838539400205,12.518872413659867,-0.033669445802252444,1.0504742584619349,-0.5132832187380834
1.8166870645153452,12.331327653889957,-0.03296154780525126,1.0333564056481714,-0.4983813901130612
1.8108165701088512,12.146845072196484,-0.03226616782245901,1.0164500576126543,-0.48397195399736925
1.8050701346649949,11.965387140843958,-0.0315831148870585,0.9997491796376424,-0.4700334823515657
1.7994455571804733,11.786917400370207,-0.03091219049651234,0.9832479367373804,-0.45654564166191874
1.7939461805670804,11.611628812900442,-0.030191994096742548,0.964403035148891,-0.49393636861599977
1.788572153853961,11.43972312631567,-0.029519413826807336,0.9456601491263652,-0.5324808871167017
1.7833150526912016,11.27118220406744,-0.028892821314963398,0.9270167647428503,-0.5720764321478605
1.7781667464482567,11.105988353076999,-0.028310581384423335,0.9084704684842908,-0.6126215737350648
1.7731193992294751,10.944124305870481,-0.027771054379815453,0.8900189449214633,-0.6540159902046296
1.7681654704976628,10.785573203100444,-0.027272598195877715,0.871659974745617,-0.6961602420026416
1.763297715357814,10.630318576388,-0.026813570024663207,0.8533914331704299,-0.7389555450591206
1.7585091845504341,10.47834433141913,-0.026392327835113062,0.8352112887059081,-0.7823035426534982
1.7537932242015926,10.329634731227422,-0.02600723159646121,0.8171176023130817,-0.8261060747000672
1.7491434753750017,10.184174379593578,-0.025656644254550096,0.7991085269518313,-0.8702649433252523
1.7445538734699961,10.041948204489497,-0.02533893246773282,0.7811823075379724,-0.9146816735518191
1.740018647508307,9.90294144149139,-0.025052467106589146,0.7633372813298899,-0.9592572678377229
1.7355323193519894,9.767139617082432,-0.02479562351916246,0.7455718787696255,-1.0038919531383181
1.7310897028947927,9.634528531760406,-0.024566781560802452,0.7278846248084536,-1.0484849190691476
1.7266859032696757,9.505094242859897,-0.02436432538494128,0.710274140752737,-1.0929340456414272
1.7223163161160926,9.378823046991641,-0.02418664298820389,0.6927391466723268,-1.1371356189224824
1.7179766269521437,9.255701461993233,-0.02403212550011698,0.6752784644211013,-1.1809840328375378
1.713662810698747,9.135716208275856,-0.02389916620429214,0.6578910213275478,-1.2243714751761436
1.7093711314056765,9.01885418944033,-0.02378615927426917,0.6405758546227619,-1.2671875956948686
1.7050981422327078,8.905102472022715,-0.023691498203160955,0.6233321166840402,-1.309319154016523
1.700840685743263,8.794448264214537,-0.0236135739017813,0.6061590811846017,-1.3506496448141039
1.6965958945729533,8.686878893385053,-0.02355077243499294,0.5890561502541203,-1.391058897534265
1.6923611925413584,8.582381782212796,-0.023501472360506936,0.5720228627709748,-1.4304226476604052
1.688134296282374,8.480944423210094,-0.02346404162820843,0.5550589039257134,-1.4686120762404025
1.6839132174766294,8.382554351397292,-0.023436833991175337,0.5381641162165387,-1.5054933141110627
1.6796962657789636,8.287199114852225,-0.0234181848717792,0.5213385120620025,-1.5409269069451834
1.6754820525449308,8.194866242824691,-0.02340640661747389,0.5045822882439412,-1.5747672369357386
1.6712694954729745,8.105543211064454,-0.02339978307092692,0.48789584242535244,-1.6068618966278445
1.667057824293486,8.019217403964035,-0.023396563367835917,0.4712797920237608,-1.6370510101326525
1.662846587652723,7.935876073063419,-0.02339495486286239,0.45473499576087584,-1.6651664967379691
1.6586356613588276,7.855506291402072,-0.023393115069309637,0.4382625782540771,-1.6910312718126346
1.6544252581792918,7.778094903133429,-0.023389142481088573,0.4218639580641933,-1.7144583799508424
1.6502159394046854,7.70362846773768,-0.023381066125647526,0.40554087966635294,-1.7352500556141623
1.64600862842279,7.63209319807989,-0.02336683367319297,0.3892954498646489,-1.7531967072419967
1.6418046265812283,7.563474891461926,-0.023344297899714463,0.37313017922382596,-1.768075822117253
1.6376056316561685,7.497758852709474,-0.023311201267615305,0.3570480291367648,-1.7796507914854434
1.633413759290943,7.434929808221295,-0.023265158345999983,0.34105246517632026,-1.787669658955831
1.6292315678232383,7.374971809791244,-0.023203635739609155,0.32514751737980796,-1.7918638006766612
1.6250620869853396,7.317868126901512,-0.023123929125932863,0.309337848061643,-1.7919465540639117
1.6209088510424536,7.263601126091132,-0.02302313690613167,0.29362882760926867,-1.787611824268306
1.6167759370349244,7.212152135947104,-0.022898129844194825,0.278026618435491,-1.7785327159692772
1.6126680089197922,7.163501296280064,-0.02274551587949391,0.26253826675384057,-1.764360265220963
1.6085903685791325,7.117627390183408,-0.022561599016727833,0.2471718009867832,-1.7447223859136658
1.6045490148984385,7.074507658014799,-0.02234233076875939,0.2319363342199934,-1.7192232036999753
1.6005507124527907,7.034117593004236,-0.022083251960662617,0.21684216589735714,-1.687443035229272
1.5966030718281596,6.996430719368675,-0.021779421646347226,0.2019008744977525,-1.6489393939738486
1.5927146443427072,6.9614183557748,-0.02142532819201416,0.18712538765640974,-1.603249582132807
1.5888950350708555,6.929049370140103,-0.021014774828559183,0.17253000828465415,-1.5498956828997545
1.5851550398628436,6.899289936663031,-0.020540727482686247,0.15813036368282452,-1.4883931259270533
1.5815068149087566,6.872103313380485,-0.01999510534050278,0.14394322834547496,-1.4182644898080774
1.5779640919977733,6.847449669375035,-0.01936848255930951,0.12998614949286513,-1.3390608460168865
1.574542460073121,6.825286005850582,-0.018649649936827824,0.11627677855658716,-1.2503937099087221
1.571259745745269,6.805566234832689,-0.017824953705970824,0.10283178830890614,-1.1519813895102624
1.5681365448757818,6.788241501143105,-0.01687727817722063,0.08966525268645509,-1.0437137577638027
1.5651969885177905,6.773260849822055,-0.01578445913379271,0.07678642865855584,-0.9257381589053986
1.5624698764738882,6.7605723325692715,-0.014516785798458012,0.0641970963723661,-0.7985642117322909
1.5599903942924591,6.750124571251462,-0.013033016217418201,0.051889140492206005,-0.6631734565625804
1.557802781678757,6.741868578235721,-0.011273790601495715,0.039844115238235625,-0.5210982434153286
1.555964674853555,6.735759144904193,-0.009149618567415405,0.028038477334306762,-0.3744059508230873
1.5545549836006098,6.731754048467842,-0.00651361757642048,0.01646259418069913,-0.22550644403099016
1.5536925190349762,6.729805911671413,-0.003069322041728573,0.005183370224071844,-0.07672383303134803
