x,y,v_x,v_y,omega
2.375,32.48,0.0,3.6923076923076925,-4.938775510204081
2.3738781751424587,31.823641905341212,-0.012464720639348257,3.6005600261232384,-4.600364247504661
2.3706897079168043,31.18343512263897,-0.022962692979033115,3.5128486705683626,-4.29685738436709
2.3657617549476666,30.558678495444443,-0.03179234001138599,3.4288916315930296,-4.023610675137429
2.3593721715228044,29.948719178913557,-0.039203031375972835,3.3484341076390454,-3.7767085808887653
2.3517575439117335,29.352948058247314,-0.04540394208037054,3.271245010874747,-3.552834378279887
2.343119785156441,28.77079574186843,-0.05057115520065505,3.197114060001753,-3.3491660683773605
2.3336315761239605,28.201729036869693,-0.054853389604683604,3.1258493288731306,-3.163292440723227
2.3234408731513057,27.645247832625074,-0.0583766434248185,3.057275162733709,-2.9931449978922813
2.31267465731018,27.100882332513837,-0.0612479770321327,2.9912303940578444,-2.8369424448432445
2.301442064561103,26.568190584608143,-0.06355860906872016,2.9275668048942944,-2.6931451941763056
2.289837008244512,26.0467562707236,-0.06538646111562425,2.8661477938228894,-2.5604179017672464
2.2779403835608973,25.536186720008985,-0.0667982575912048,2.8068472141172602,-2.437598475777589
2.2658219265109816,25.036111118678864,-0.06785126518564023,2.749548356217406,-2.323672330517608
2.2535417861455542,24.54617889187989,-0.06859473887466262,2.694143052660052,-2.2177509102134922
2.2411518581178815,24.06605823725983,-0.06907112809947936,2.6405308875628695,-2.119053704771928
2.2286969188355803,23.595434792750115,-0.06931708614831218,2.588618495878389,-2.0268931336888865
2.2162155925112423,23.13401042351018,-0.069364317455439,2.5383189401208996,-1.9406617953853271
2.203741177755632,22.681502115015007,-0.06924029094023278,2.4895511542698916,-1.8598216750187968
2.191302355767773,22.23764096097498,-0.06896884225820028,2.4422394461749013,-1.7838949799149266
2.1789237984372907,21.802171236219273,-0.06857068363604751,2.3963130511107074,-1.7124563325181854
2.1666266916170507,21.374849545899444,-0.06806383658884216,2.351705730220743,-1.6451260994906076
2.1544291863154124,20.955444043415653,-0.06746400009602624,2.308355408488017,-1.5815646748406598
2.142346788491897,20.543733710365604,-0.06678486460970495,2.266203847623641,-1.5214675667155073
2.1303926964339857,20.1395076925892,-0.0660383804781974,2.2251963498919918,-1.4645611632741447
2.118578093279242,19.74256468705101,-0.06523498790784156,2.1852814894211856,-1.4105990740768064
2.1069124010722975,19.35271237488348,-0.06438381439154148,2.1464108679958325,-1.3593589606210585
2.0954035017673673,18.969766896419937,-0.06349284455212868,2.108538892710198,-1.310639783771457
2.0840579297689463,18.593552364489334,-0.06256906654143711,2.0716225731854183,-1.2642594074577376
2.0728810399179634,18.223900412632627,-0.06161859846948642,2.0356213363335267,-1.2200525076258262
2.061877154254947,17.860649775242393,-0.06064679778624822,2.000496856891296,-1.1778687433918202
2.051049690406969,17.50364589692828,-0.05965835608017886,1.9662129021544037,-1.137571153972488
2.0404012740358994,17.15274056867738,-0.05865738137614697,1.9327351895222808,-1.099034750489082
2.029933837439325,16.807791588614542,-0.057647469696900225,1.9000312556203562,-1.062145276360116
2.0196487061018895,16.468662445377465,-0.05663176738571689,1.8680703359027395,-1.0267981138718594
2.0095466747453834,16.135222022308035,-0.055613025464353004,1.8368232537575977,-0.9928973177717073
1.99962807421347,15.807344320828072,-0.054593647112460626,1.8062623182419855,-0.9603547594745107
1.9898928303456824,15.484908201516468,-0.05357572919629057,1.7763612296647409,-0.9290893677915434
1.9803405158403482,15.167797141538113,-0.05256109864075771,1.747094992316968,-0.899026454056706
1.9709703959733607,14.85589900719469,-0.051551344325767884,1.7184398337210745,-0.8700971111929764
1.9617814689257864,14.549105840474866,-0.050547845091725226,1.690373129832537,-0.8422376776820325
1.952772501375349,14.24731365857832,-0.049551794357579615,1.6628733356846215,-0.8153892586110933
1.9439420599224868,13.950422265475261,-0.048564221785334184,1.6359199210160589,-0.7894972970063187
1.9352885388488938,13.658335074641876,-0.047586012365698684,1.6094933104659976,-0.7645111895489712
1.926810184643575,13.370958942183531,-0.046617923248953023,1.5835748279600528,-0.7403839415318451
1.9185051176770123,13.088204009621936,-0.04566059860174607,1.5581466449465549,-0.7170718565682804
1.9103713513568503,12.809983555681118,-0.044714582733385265,1.5331917321736641,-0.6945342571304441
1.902406809057554,12.536213856460122,-0.04378033170324024,1.5086938147262934,-0.672733232480868
1.894609339080856,12.26681405342871,-0.04285822359340487,1.4846373300671596,-0.6516334109828288
1.886981477562194,12.0017070926943,-0.04189579328061734,1.4609955669818306,-0.6298138346341616
1.8795249978583857,11.740818482046137,-0.04095398120614023,1.437766773553321,-0.6089084380259563
1.872236210001136,11.484075119383121,-0.04003255054107961,1.4149372560357543,-0.5888687221549245
1.8651114696439373,11.231406315847508,-0.03913123120557266,1.3924938943599656,-0.5696492464180571
1.8581471835528878,10.982743695295277,-0.038249725361646746,1.370424111775943,-0.5512074048499546
1.851339814169895,10.738021099059253,-0.03738771222716122,1.3487158464020792,-0.5335032209249995
1.844685883363188,10.497174495674276,-0.03654485229180449,1.327357524542094,-0.5164991592054321
1.838181975466364,10.260141895257707,-0.035720791006239545,1.3063380356420236,-0.5001599522917536
1.8318247396951843,10.026863268260612,-0.03491516200686785,1.2856467087701382,-0.48445244168773943
1.825610892020763,9.797280468325205,-0.03412758993114767,1.2652732905121598,-0.4693454313310398
1.8195372165684964,9.57133715900266,-0.03335769287181316,1.2452079241827838,-0.45480955266391154
1.813600566603902,9.348978744102595,-0.03260508451257206,1.2254411302623802,-0.44081714022886587
1.8077978651593178,9.13015230146124,-0.03186937598280452,1.2059637879749097,-0.4273421168724693
1.8021261053490738,8.914806519929833,-0.031150177464351562,1.1867671179296255,-0.41435988772857635
1.7965823504151193,8.702891639398207,-0.030447099579589545,1.1678426657550947,-0.4018472422310835
1.7911637335401651,8.494359393680892,-0.029759754586566614,1.1491822866595238,-0.38978226347693135
1.785867457461017,8.289162956104462,-0.02908775740396988,1.1307781308563587,-0.37814424432345367
1.7806907939109156,8.087256887645509,-0.028430726486045135,1.112622629798688,-0.36691360966109565
1.775631082916298,7.888597087478313,-0.027788284565259717,1.0947084831701677,-0.3560718443537031
1.7706857319703646,7.693140745800438,-0.0271600592784445,1.0770286465840089,-0.3456014263846492
1.7658522151031741,7.500846298812817,-0.026545683690338485,1.0595763199451018,-0.33548576478857123
1.7611280718656264,7.311673385738736,-0.025944796726859884,1.0423449364335728,-0.32570914198592027
1.7565109062425976,7.12558280777332,-0.02535704352901467,1.0253281520710498,-0.3162566601713204
1.7519983855086467,6.942536488861897,-0.024782075737104874,1.0085198358336436,-0.3071141914372699
1.747588239038066,6.762497438211835,-0.024219551713794637,0.9919140602781754,-0.2982683313423362
1.743283116382064,6.585650247884715,-0.023615144464006674,0.9730547211342679,-0.33843435753374934
1.7390825636220193,6.412188607034508,-0.023057663980931984,0.9542968438680155,-0.3797265316970318
1.7349782774060882,6.242094477916808,-0.022545516196080473,0.935637924106446,-0.422045070065564
1.7309622418512927,6.075350264820962,-0.02207710107942326,0.9170755547362865,-0.4652914942495311
1.72702672941085,5.911938796772791,-0.021650814925498658,0.898607423576737,-0.5093684123866844
1.7231643013563054,5.7518433106250555,-0.02126505234721731,0.8802313113981013,-0.5541793008139104
1.7193678079256411,5.59504743447328,-0.02091820799349644,0.8619450902882968,-0.5996282852833602
1.7156303881858255,5.441535171333843,-0.020608678004454914,0.8437467223721016,-0.645619920717972
1.7119454696560266,5.29129088302016,-0.020334861215532313,0.8256342588910395,-0.6920589684637996
1.7083067677358708,5.14429927415101,-0.020095160119532385,0.8076058396550828,-0.7388501699500364
1.704708284981724,5.000545376222771,-0.01988798159320948,0.7896596928809217,-0.7858980156113162
1.7011443102730022,4.860014531674295,-0.019711737392589444,0.771794135435476,-0.8331065078599504
1.6976094179099848,4.722692377869411,-0.01956484441871569,0.7540075735076691,-0.8803789168173218
1.6940984666845387,4.588564830917452,-0.019445724752906922,0.736298503736326,-0.9276175274226343
1.6906065989655685,4.45761806924671,-0.019352805457871505,0.7186655148274881,-0.9747233764324564
1.6871292398419304,4.329838516839185,-0.01928451813810924,0.70110728970056,-1.0215959777046975
1.6836620963670093,4.205212826027267,-0.01923929824990377,0.6836226082096345,-1.068133034024402
1.6802011569512136,4.08372785974392,-0.019215584147823848,0.6662103504942254,-1.1142301335745433
1.6767426909513232,3.9653706731074045,-0.019211815850959425,0.6488695010226294,-1.1597804289812432
1.6732832485090112,3.8501284942092404,-0.01922643350806353,0.6315991534014239,-1.2046742966679491
1.6698196606950193,3.737988703959836,-0.019257875536290246,0.6143985160364029,-1.2487989740355028
1.6663490400204615,3.628938814829617,-0.01930457640324226,0.5972669187438034,-1.2920381717433869
1.6628687813826857,3.522966448304313,-0.019364964016487886,0.5802038204262584,-1.3342716581007001
1.659376563520138,3.4200593108508244,-0.01943745667848601,0.5632088179458563,-1.3753748122832292
1.6558703510588666,3.320205168164435,-0.019520459557863447,0.5462816563473445,-1.4152181427760024
1.6523483972428497,3.2233918174384293,-0.019612360620103023,0.5294222406082902,-1.453666767101167
1.6488092474513798,3.1296070573628505,-0.019711525951783455,0.5126306491203483,-1.4905798485336272
1.6452517436195033,3.038838655519676,-0.01981629440240234,0.495907149137131,-1.5258099851399722
1.6416750296922182,2.9510743127959316,-0.01992497145632076,0.47925221446001776,-1.559202546113517
1.6380785582600654,2.866301624383869,-0.02003582223426438,0.4626665456739937,-1.5905949500414671
1.6344620985431875,2.7845080368769644,-0.020147063508823723,0.4461510932916254,-1.619815879462474
1.6308257459132882,2.7056808009013977,-0.02025685460116945,0.42970708421468934,-1.6466844259041815
1.6271699331686165,2.6298069186439186,-0.020363287006292613,0.4133360519795417,-1.6710091596051815
1.6234954438066684,2.556873085547572,-0.020464372570907306,0.39703987131319124,-1.6925871184339396
1.6198034275734048,2.486865625346258,-0.02055803002090932,0.3808207975902985,-1.7112027112800716
1.6160954186072682,2.419770417497226,-0.0206420696028311,0.3646815118433807,-1.7266265326471189
1.612373356542217,2.3555728159483458,-0.0207141755644062,0.34862517203307253,-1.7386140876662104
1.6086396109878613,2.2942575580464,-0.02077188615065556,0.33265547132189516,-1.7469044307817587
1.604897009868604,2.235808662258737,-0.02081257072998031,0.3167767040965727,-1.7512187276722493
1.6011488721803875,2.1802093132519467,-0.02083340358353703,0.3009938404233078,-1.7512587596423999
1.5973990458175786,2.1274417327629216,-0.02083133378100628,0.285312609454742,-1.7467054043417518
1.593651951240291,2.077487034634718,-0.020803050411078283,0.26973959196975733,-1.737217148552554
1.5899126319044,2.030325062412139,-0.0207449422099324,0.25428232161445674,-1.7224287213546985
1.5861868125791043,1.9859342080638953,-0.02065305029335263,0.23894939336601206,-1.7019499842108523
1.5824809669567248,1.9442912108191983,-0.020523012177531337,0.22375057601952106,-1.6753652857119647
1.5788023963600277,1.9053709359308755,-0.020349994452435717,0.2086969227396353,-1.6422335934527041
1.5751593219455897,1.8691461346392266,-0.02012861015243127,0.19380086938979277,-1.6020898688907992
1.5715609937071,1.8355871890622666,-0.01985281471967711,0.179076303687553,-1.5544483742062714
1.5680178209996658,1.804661849693229,-0.01951577091848164,0.1645385781906619,-1.4988089213545195
1.5645415315691513,1.7763349793705032,-0.01910966719834484,0.15020442539516327,-1.4346675273353924
1.561145369737349,1.7505683269580778,-0.01862546426612764,0.13609171252068664,-1.3615335607890178
1.5578443503913029,1.7273203676537676,-0.018052528467717485,0.12221894641607967,-1.2789562667331527
1.5546555952772483,1.7065462657460948,-0.017378083910666666,0.1086044081135991,-1.1865644747405688
1.5515987942736564,1.688198039444007,-0.01658637168479812,0.09526477302069632,-1.0841240602590119
1.5486968607486358,1.6722250320141612,-0.015657334148763764,0.08221308731093203,-0.9716175938877936
1.545976893102174,1.6585748056676834,-0.014564528589701645,0.06945609431660531,-0.8493478994903496
1.5434716251534484,1.647194542407334,-0.013271781951692626,0.0569912752428308,-0.718058818946924
1.5412216706658493,1.6380328943908502,-0.011727712354962961,0.04480481382921816,-0.5790480873002695
1.5392791188435977,1.6310418608893578,-0.009856196781165122,0.03287333618737044,-0.43421707102607693
1.5377137297479673,1.62617746743598,-0.007537015392507926,0.021175479961271008,-0.2859701964535525
1.53662570917116,1.6233959943909646,-0.0045521021275721045,0.009729776094448084,-0.13687220196512523
1.5361877224338425,1.6226313685755827,-0.00031441717595524256,-0.0012339337013202306,0.010891285553153718
