x,y,v_x,v_y,omega
2.375,32.48,0.0,3.0256410256410255,-2.8571428571428577
2.374274502324323,31.852245965420103,-0.006909501673115246,2.9529688275008366,-2.6691510097083744
2.3722088817179015,31.239435004293412,-0.012763075530898825,2.8833260403724106,-2.4997016908823606
2.369008644310995,30.640951817275496,-0.01771537596345192,2.8165138359886654,-2.3464297226329602
2.364849391171258,30.0562210125704,-0.02189655870070547,2.7523509707265417,-2.207325611373456
2.359881516597568,29.484703623567288,-0.02541653247729642,2.6906717816840438,-2.0806749095227968
2.3542340981901613,28.92589401719477,-0.028368404736098543,2.631324469482789,-1.9650090551382748
2.3480181305145496,28.37931713806748,-0.030831287412587383,2.5741696174437765,-1.8590653084756124
2.341329223194323,27.844526042966933,-0.032872591827664506,2.519078907323346,-1.7617539409695968
2.3342498601242423,27.321099687719617,-0.03454991360167574,2.465933999793977,-1.6721312382034055
2.3268512975626865,26.808640934571798,-0.03591258698457021,2.4146255539947523,-1.5893771880754657
2.319195163930869,26.306774753051876,-0.03700297141368998,2.3650523652426143,-1.5127769631609684
2.3113348123063844,25.815146591309322,-0.03785752024807093,2.3171206037340735,-1.4417054900835284
2.303316467163147,25.333420898214285,-0.03850767159228337,2.270743140028171,-1.3756145416894079
2.2951801993547876,24.86127977923714,-0.038980593249236695,2.225838945468468,-1.3140218996718793
2.2869607572622357,24.398421771413886,-0.03929980763220586,2.1823325576101267,-1.2565022232792302
2.2786882771185293,23.94456072462659,-0.03948571754595109,2.140153602268912,-1.2026793293075024
2.2703888915440746,23.4994247780551,-0.0395560498298075,2.0992363650786054,-1.1522196438530894
2.2620852520859405,23.062755422040397,-0.03952623072385159,2.059519406489984,-1.1048266304218353
2.2537969789079155,22.634306636782597,-0.03940970430495705,2.0209452150128993,-1.0602360343665995
2.2455410486080254,22.213844100312325,-0.039218203313046957,1.9834598942277675,-1.0182118121081511
2.237332129355077,21.8011444590498,-0.038961980048360746,1.9470128797010369,-0.9785426366205312
2.229182871062613,21.395994655023706,-0.03865000368939808,1.9115566824522696,-0.9410388893492837
2.2211041570990764,20.9981913044804,-0.038290129296661604,1.8770466560553658,-0.9055300639533872
2.2131053230204456,20.60754012318779,-0.037889242880776615,1.8434407848266758,-0.8718625197062089
2.205194346968375,20.223855394239713,-0.03745338618655939,1.8106994908692433,-0.8398975325994169
2.197378015672894,19.846959474606972,-0.03698786424659402,1.7787854580140186,-0.8095096005961417
2.189662069409228,19.476682337067555,-0.036497338264513665,1.7476634709328112,-0.7805849664175799
2.182051328763555,19.112861144490118,-0.03598590597998753,1.717300267899894,-0.7530203269937348
2.1745498056461376,18.755339853745916,-0.03545717132875078,1.687664405854427,-0.7267217034829716
2.167160800639044,18.403968846791535,-0.03491430492928599,1.6587261365682493,-0.701603449742662
2.1598869884687257,18.05860458670194,-0.03436009669279034,1.6304572928564691,-0.6775873804565956
2.1527304931420406,17.71910929664414,-0.03379700165659208,1.6028311838844427,-0.6546020029092332
2.1456929540705656,17.385350659969987,-0.0332271799765023,1.5758224987265694,-0.6325818387358684
2.1387755843261336,17.05720153977441,-0.03265253187523328,1.5494072174217848,-0.6114668239476743
2.1319792220153455,16.73453971641593,-0.03207472822750801,1.523562528849417,-0.5912017771938199
2.125304375628221,16.41724764163079,-0.031495237364158206,1.4982667548185973,-0.5717359276305227
2.118760589027935,16.105213032286482,-0.030826539781420522,1.473491429412928,-0.5505181614015244
2.1123562415004518,15.798327775657427,-0.030167246194611256,1.4492253003876099,-0.5303081277473769
2.1060893010137094,15.496486906029734,-0.029517901298170886,1.4254496484475656,-0.5110457327300366
2.0999576324043066,15.19958929584772,-0.02887894260090536,1.4021466390001933,-0.49267514517878724
2.093959018450528,14.907537475422558,-0.028250714101744154,1.3792992698108808,-0.4751444465889437
2.0880911782485656,14.620237463246873,-0.027633478297897474,1.3568913223385017,-0.4584053135873726
2.0823517832202088,14.337598606173973,-0.02702742673407413,1.3349073164510248,-0.4424127295884929
2.0767384710393553,14.059533428780458,-0.026432689274054438,1.3133324682491094,-0.4271247226496286
2.071248857729085,13.785957491285508,-0.025849342252331858,1.2921526507504326,-0.41250212687191096
2.065880548150055,13.51678925544968,-0.025277415643189895,1.2713543572098156,-0.398508364988816
2.060631145073985,13.25194995792127,-0.02471689936699851,1.2509246668702918,-0.38510925004435914
2.0554982570124287,12.991363490539264,-0.02416774883830119,1.2308512129583282,-0.3722728042916852
2.0504795049504634,12.734956287139607,-0.02362988984708251,1.2111221527526956,-0.3599690936443312
2.045572528116937,12.482657216445599,-0.023103222853170707,1.191726139571182,-0.34817007619029816
2.040774988907155,12.2343974806547,-0.022587626763797018,1.1726522965326291,-0.33684946343625094
2.036084577060109,11.990110519362577,-0.022082962255694595,1.1538901919637805,-0.3259825930882696
2.031499013180223,11.749731918491591,-0.021589074695598252,1.13542981633132,-0.31554631229885194
2.027016051683008,11.513199323914922,-0.02110579670644923,1.1172615605893434,-0.3055188704192597
2.0226334832346375,11.280452359489686,-0.020632950420886937,1.0993761958414678,-0.2958798203935028
2.0183491367472906,11.051432549232715,-0.02017034945861057,1.0817648542249187,-0.2866099280167344
2.0141608809848552,10.826083243391306,-0.019717800659821212,1.0644190109313496,-0.27769108835786555
2.0100666258272453,10.604349548178497,-0.019275105603127528,1.0473304672858839,-0.26910624871491523
2.006064323235958,10.386178258958218,-0.018842061932943854,1.0304913348120244,-0.2608393375329655
2.00215196795856,10.171517796680309,-0.01841846451846714,1.0138940202156788,-0.2528751987694412
1.9983275980054285,9.96031814737886,-0.018004106463735944,0.9975312112266782,-0.24519953124052757
1.9945925560235582,9.752663384173722,-0.017567721935028202,0.9801332002508362,-0.2629457579070403
1.9909461493643696,9.548650121456422,-0.017159960533433813,0.9628502541996258,-0.2826030028371541
1.9873823734921858,9.348254531991046,-0.016780762058792524,0.9456791692801584,-0.3040614242932709
1.9838952468429802,9.151453448343986,-0.016429967933642393,0.9286168654537328,-0.3272141588994924
1.9804788305784267,8.958224337438143,-0.016107329824011783,0.9116603812685674,-0.3519570876096041
1.9771272466018268,8.768545276150231,-0.01581251757217784,0.8948068690924964,-0.3781886089512147
1.9738346939752267,8.582394927869014,-0.015545126490679248,0.8780535907286005,-0.40580941865585807
1.9705954638671146,8.39975251993561,-0.015304684062769141,0.8613979133990658,-0.4347222948074019
1.9674039531510044,8.2205978218898,-0.015090656090661847,0.8448373060848342,-0.46483188765776484
1.9642546767669047,8.044911124448753,-0.01490245232933444,0.828369336210858,-0.4960445132697345
1.961142278950097,7.8726732191463675,-0.014739431640263173,0.8119916666690127,-0.5282679501515591
1.9580615434247601,7.703865378562956,-0.01460090669627857,0.7957020531729927,-0.5614112380468607
1.9550074026537538,7.538469337075899,-0.014486148265685945,0.7794983419418251,-0.5953844780361087
1.951974946230263,7.376467272062349,-0.014394389100895357,0.7633784677110367,-0.6300986330921775
1.9489594284919975,7.2178417854850245,-0.01432482745401226,0.7473404520730069,-0.6654653282120683
1.9459562754342172,7.062575885791535,-0.014276630239133165,0.7313824021506901,-0.7013966492193431
1.9429610909939716,6.910652970056482,-0.014248935858445192,0.7155025096117121,-0.7378049392967208
1.9399696627746397,6.762056806293799,-0.014240856706619875,0.699699050032904,-0.7746025922650875
1.9369779672770782,6.616771515864336,-0.014251481365394333,0.6839703826286508,-0.8117018415732461
1.9339821747014616,6.474781555900517,-0.014279876497620664,0.6683149503600918,-0.8490145439013369
1.9309786533822335,6.336071701665851,-0.01432508844740891,0.6527312804462407,-0.8864519562091986
1.9279639739174783,6.200627028762224,-0.014386144550260424,0.637217985302601,-0.9239245049780624
1.9249349130535043,6.06843289509197,-0.014462054154254767,0.6217737639378934,-0.9613415462988862
1.9218884573855177,5.939474922474744,-0.014551809350379275,0.6063974038451996,-0.9986111153522044
1.9188218069359992,5.8137389778108215,-0.014654385406937894,0.591087783430257,-1.0356396637014194
1.9157323786738125,5.691211153672814,-0.014768740899602473,0.5758438750269522,-1.0723317826827226
1.9126178100392264,5.5718777481963535,-0.014893817525028295,0.5606647485583903,-1.1085899110190396
1.909475962542989,5.45572524412702,-0.015028539581993934,0.5455495759114403,-1.144314024611309
1.9063049255114128,5.342740286865446,-0.015171813099684506,0.5304976361035643,-1.179401306266921
1.903103020054211,5.232909661334581,-0.015322524587950753,0.5155083213332493,-1.2137457929114133
1.899868803337674,5.126220267472519,-0.01547953937906902,0.5005811440197296,-1.2472379975951853
1.8966010732527874,5.022659094130258,-0.015641699524613542,0.48571574495419634,-1.2797645033524485
1.8932988735762373,4.922213191126183,-0.015807821204434813,0.4709119027036555,-1.311207525696452
1.8899614997320546,4.824869639177113,-0.015976691597303562,0.45616954443035995,-1.3414444402466554
1.886588505273126,4.730615517388884,-0.016147065154398524,0.44148875831466716,-1.3703472716860745
1.883179709215144,4.639437867947091,-0.016317659207334294,0.4268698077976436,-1.397782139950639
1.8797352043710496,4.551323657599667,-0.016487148831661275,0.4123131478920923,-1.423608659273093
1.8762553668519022,4.466259735467041,-0.01665416087450254,0.39781944384721424,-1.4476792854662377
1.8727408669207797,4.384232786651321,-0.016817267040950046,0.3833895924929747,-1.4698386066710571
1.8691926814101234,4.305229281042852,-0.016974975917679772,0.36902474663531565,-1.4899225727692524
1.8656121079404486,4.229235416639327,-0.01712572379351076,0.3547263429220799,-1.5077576588475727
1.8620007812100845,4.1562370565991955,-0.017267864114717566,0.34049613365059117,-1.5231599586211857
1.8583606916624082,4.086219659146813,-0.0173996553869605,0.3263362230387694,-1.535934204747519
1.854694206879805,4.019168199332295,-0.0175192473045003,0.31224910852806986,-1.5458727147416462
1.8510040961036767,3.9550670815261384,-0.017624664849101874,0.29823772772105933,-1.5527542641049965
1.8472935583389614,3.8939000414008795,-0.017713790052949617,0.28430551156712314,-1.5563428928334406
1.8435662545723415,3.8356500360266885,-0.017784341057715966,0.27045644437755323,-1.5563866584547414
1.8398263447192988,3.7802991205967054,-0.017833848018878832,0.2566951311460969,-1.5526163592913678
1.836078530021906,3.727828310221607,-0.017859625289624318,0.2430268724262526,-1.5447442674064105
1.8323281017552628,3.6782174252238384,-0.0178587391545982,0.22945774660011256,-1.5324629340837763
1.828580997279166,3.6314449184720488,-0.017827970141561483,0.2159946986550204,-1.515444165246128
1.8248438647143364,3.5874876836066676,-0.017763768571101703,0.20264563339622418,-1.4933383150616397
1.8211241378640115,3.5463208436430413,-0.01766220143199133,0.18941950911451824,-1.4657741205714474
1.817430123498761,3.507917520589821,-0.01751888776087028,0.17632642472568408,-1.4323594091396392
1.8137711038687363,3.47224858867315,-0.01732891823936664,0.1633776887664113,-1.3926831688621473
1.8101574584588729,3.4392824169321727,-0.017086752330758775,0.15058585162384625,-1.3463197001007503
1.8066008108178542,3.408984611948675,-0.016786082345611526,0.1379646720285114,-1.292835889893504
1.803114209202152,3.3813177791075297,-0.016419647327741805,0.1255289740776423,-1.231803098723808
1.799712354497641,3.356241332061181,-0.0159789689056941,0.11329433112566187,-1.1628157414873843
1.796411896590743,3.3337113959924203,-0.015453963540955596,0.10127648857682131,-1.0855193636557519
1.7932318329735735,3.313680871193995,-0.01483235662256221,0.08949041426532217,-0.9996517307653958
1.7901940639504603,3.2960997474959903,-0.01409877693089642,0.07794885904902278,-0.9051007682336097
1.7873241922512473,3.280915779355418,-0.013233334490179086,0.06666036133736818,-0.8019821531426945
1.7846527092450652,3.2680756252223446,-0.012209360806795,0.05562682088238264,-0.6907350359280789
1.7822168010544908,3.2575264780094955,-0.010989764817721974,0.044841247811406595,-0.5722236484024305
1.780063177481466,3.2492179822121585,-0.009520935877753786,0.03428728359181012,-0.4478124592446363
1.7782527241684933,3.2431037030636105,-0.007721476626746726,0.023943946394373618,-0.3193553794942424
1.7768690671318805,3.23914023441203,-0.005456209436231145,0.013803374096876167,-0.1890210365184478
1.776039375844181,3.2372780941678805,-0.0024456123513838393,0.003931294895016459,-0.05889809982479147
