x,y,v_x,v_y,omega
2.375,32.48,0.0,2.923076923076923,-7.387755102040816
2.3734187832238387,31.902093125024532,-0.015812167761614117,2.8559918266777293,-6.9352263796131295
2.368898446794452,31.337331795277336,-0.02939119653225219,2.7916214707942406,-6.524087353959775
2.361855307723276,30.78519178956355,-0.04104019417950882,2.7297785863435857,-6.14937975975299
2.3526495864259425,30.245184426081565,-0.05101701879382697,2.6702950484762638,-5.806856831993169
2.3415936964313078,29.716853005970854,-0.05954188115251649,2.6130191526308466,-5.492865110614412
2.3289591582498383,29.199769751981915,-0.06680350066217754,2.557813387258561,-5.20424861618047
2.3149823955086957,28.693533153695565,-0.07296412674925157,2.504552595604922,-4.938270620998293
2.2998696166567125,28.19776564961099,-0.07816366177057942,2.453122445240846,-4.692549379369069
2.2838009438572677,27.71211159075653,-0.08252306622386932,2.403418143303784,-4.465005019337358
2.2669339186148707,27.23623544145954,-0.0861471862000998,2.3553433496660823,-4.253815423037967
2.249406488747564,26.769820181403208,-0.08912711247296459,2.3088092508972466,-4.057379393300555
2.231339561749933,26.312565879722094,-0.09154215750334817,2.2637337659138943,-3.8742857622174514
2.2128391941041783,25.864188417099307,-0.09346151895419999,2.2200408603139654,-3.7032873723688584
2.1939984737435374,25.42441833596092,-0.09494568465220993,2.177659951069922,-3.5432790744220686
2.1748991429496494,24.992999802166892,-0.09604762328666869,2.1365253868703244,-3.3932790511548534
2.1556130009440038,24.56968966425851,-0.09681379676978713,2.0965759922134857,-3.2524129087858706
2.1362031189111566,24.154256598480732,-0.09728502355868644,2.057754665564328,-3.1199000801039567
2.116724894859459,23.74648032956136,-0.09749721695828462,2.0200080236293805,-2.9950421664559275
2.09722697134489,23.34615091867923,-0.09748201818740902,1.983286085191972,-2.8772129118379497
2.077752035469003,22.953068111253977,-0.09726734057145844,1.947541989060521,-2.7658495556788365
2.0583375175667413,22.56704073819011,-0.09687783845115888,1.912731741578153,-2.6604453541159025
2.039016202508074,22.18788616504548,-0.09633531213551369,1.8788139898681298,-2.5605430947364867
2.0198167654570356,21.815429784300445,-0.09565905837487174,1.845749817582216,-2.4657294585150953
2.000764242188887,21.44950454650166,-0.09486617430661361,1.8135025604056259,-2.375630106286725
1.9818804426014283,21.089950526563715,-0.09397182156797503,1.7820376389738224,-2.289905386559359
1.963184314821841,20.736614521947345,-0.0929894562278959,1.751322407189861,-2.2082465775720657
1.9446922662667874,20.38934967980744,-0.09193102932264292,1.7213260142091935,-2.1303725898768073
1.9264184471288814,20.0480151505273,-0.09080716205641579,1.6920192785922286,-2.0560270668629905
1.9083750010109823,19.71247576533591,-0.0896272991225742,1.6633745733216372,-1.9849758299561158
1.890572286789444,19.382601735948953,-0.08839984309281013,1.6353657205479732,-1.9170046230296367
1.8730190752407891,19.058268374387268,-0.08713227239373814,1.6079678950688652,-1.8519171171347362
1.8557227234984845,18.739355831313574,-0.08583124502930724,1.5811575356680847,-1.7895331421893166
1.8386893300053573,18.4257488513923,-0.0845026899019641,1.554912263544634,-1.7296871169490007
1.8219238722825168,18.117336544322697,-0.08315188732644224,1.5292108071514108,-1.6722266525516953
1.8054303295388867,17.814012170323526,-0.08178354010985889,1.5040329328403066,-1.6170113083002293
1.7892117918894777,17.51567293896173,-0.08040183638423092,1.4793593807776435,-1.5639114812210801
1.773287345711609,17.22222529716334,-0.07884262539445673,1.455117037206269,-1.507919075639507
1.7576733661594006,16.933578944907275,-0.07729717012762524,1.4313464853543985,-1.4544749424085568
1.7423669172354224,16.649641214113636,-0.07576731911215666,1.4080308225819511,-1.403432923673461
1.7273647211335514,16.370322739242955,-0.07425464190655423,1.3851539261248824,-1.3546568380767021
1.7126632108280784,16.095537305882434,-0.07276046114817689,1.3627004074803253,-1.3080196911316284
1.6982585766142186,15.82520170813444,-0.07128588099042002,1.3406555699996332,-1.2634029564814495
1.6841468072802095,15.559235614192094,-0.06983181234967233,1.3190053694238322,-1.220695920938551
1.6703237265120778,15.297561439537574,-0.06839899533164251,1.29773637712136,-1.1797950869845863
1.6567850250627525,15.040104227244381,-0.06698801916161301,1.2768357458105848,-1.140603627102439
1.6435262891561964,14.786791534906342,-0.06559933990394798,1.256291177569784,-1.1030308849193249
1.6305430255436049,14.537553327753834,-0.06423329622196615,1.236090893955316,-1.0669919186766983
1.6178306835814675,14.292321877551814,-0.06289012339940797,1.2162236080648936,-1.0324070830164225
1.6053846746596667,14.051031666905587,-0.061569965818597826,1.1966784983973928,-0.999201645491788
1.5932003892710542,13.813619298628481,-0.06027288806752858,1.1774451843736673,-0.9673054345832403
1.5812732119814965,13.580023409851655,-0.058998884828048284,1.1585137033946002,-0.9366525163280373
1.569598534530718,13.350184590579875,-0.05774788967973811,1.139874489323211,-0.9071808969656291
1.558171767268882,13.124045306418836,-0.05651978293861918,1.1215183522871979,-0.8788322492607802
1.5469883491113963,12.90154982521942,-0.0553143986362391,1.1034364597069566,-0.8515516603982207
1.5360437561744993,12.68264414740253,-0.054131530732729166,1.0856203184619297,-0.82528739954929
1.525333509236538,12.467275939744813,-0.052970938646885304,1.0680617581152603,-0.7999907033955599
1.5148531801541463,12.25539447242097,-0.05183235217703156,1.0507529151231518,-0.775615578059379
1.5045983973486212,12.046950559112535,-0.05071547587821984,1.0336862179612076,-0.7521186160389005
1.4945648504653923,11.84189650000588,-0.049619992954069395,1.0168543731053443,-0.7294588268774297
1.4847482942984715,11.640186027514371,-0.04854556871513719,1.0002503518097359,-0.7075974804155701
1.4751445520619544,11.441774254570529,-0.04749185365003428,0.9838673776286737,-0.6864979615811941
1.4657589379245994,11.246807050302465,-0.04636428772351552,0.9658046650519806,-0.7040118318653118
1.4565938438246666,11.05544090628386,-0.04528665327581258,0.9478567751340561,-0.7233715925364221
1.4476394065495553,10.867653172014489,-0.044257719475300925,0.9300205675596509,-0.744457898924192
1.4388860135340436,10.683421812185859,-0.04327621067981555,0.9122930307266318,-0.7671542996829235
1.430324311273556,10.502725381422433,-0.042340811925058806,0.8946712769076263,-0.7913469683124209
1.4219452126905998,10.325542999945412,-0.04145017390450326,0.8771525378625668,-0.8169244418239833
1.413739903552444,10.15185433007036,-0.040602917477056716,0.8597341608879361,-0.8437773654353407
1.4056998480311977,9.981639553452418,-0.039797637735405796,0.8424136052914943,-0.8717982421991001
1.3978167934911787,9.814879348994843,-0.03903290766478605,0.8251884392842515,-0.9008811864819666
1.3900827745828082,9.651554871337972,-0.038307281418917094,0.8080563372844685,-0.9309216802166644
1.38249011671722,9.49164772984637,-0.037619297236964964,0.7910150776315596,-0.9618163308450159
1.3750314389912608,9.335139968012118,-0.03696748002262783,0.7740625407109708,-0.9934626298588823
1.367699656628622,9.182014043191575,-0.03635034360376108,0.7571967074944643,-1.0257587108253905
1.3604879829994116,9.03225280659175,-0.03576639268834073,0.7404156585037972,-1.0586031057537395
1.353389931277579,8.885839483420412,-0.03521412452998483,0.7237175732095847,-1.0918944986224999
1.3463993157932117,8.742757653111326,-0.03469203031368788,0.7071007298812584,-1.1255314748382232
1.3395102531348584,8.60299122953235,-0.034198596269846275,0.6905635059085105,-1.1594122653378043
1.33271716305567,8.466524441079542,-0.03373230452203763,0.6741043786195497,-1.1934344839777948
1.3260147692363329,8.333341810554892,-0.033291633671334385,0.6577219266269461,-1.2274948567730826
1.3193980999574841,8.203428134718404,-0.03287505911715241,0.6414148317379114,-1.2614889414543424
1.3128624887345963,8.076768463397347,-0.032481053111725326,0.6251818814726583,-1.2953108357077403
1.3064035749692018,7.9533480780258685,-0.03210808454221903,0.6090219722421056,-1.3288528723408897
1.300017304671858,7.833152469477177,-0.03175461843121962,0.5929341132448022,-1.3620052994854939
1.2936999313144562,7.716167315037431,-0.03141911514279771,0.5769174311526666,-1.394655943799124
1.2874480168724238,7.602378454355549,-0.03110002927752487,0.5609711756661542,-1.4266898544662225
1.2812584331211074,7.491771864185736,-0.030795808235639512,0.5450947260319567,-1.4579889256222391
1.2751283632552466,7.384333631719489,-0.030504890422968244,0.5292875986305166,-1.4884314946361954
1.2690553039060364,7.280049926280764,-0.030225703069134795,0.5135494557567172,-1.5178919134885378
1.2630370676369278,7.17890696913156,-0.029956659621951112,0.497880115735328,-1.546240090277241
1.2570717860071738,7.080891001104693,-0.029696156675589398,0.4822795645333637,-1.5733409976826795
1.2511579133013082,6.985988247745887,-0.02944257038306785,0.46674796905468724,-1.5990541450313465
1.2452942310334403,6.8941848816076075,-0.029194252295610457,0.4512856923281132,-1.6232330104358033
1.2394798533476397,6.805466981291893,-0.028949524562394913,0.43589331082904453,-1.6457244293763833
1.2337142334500133,6.719820486788365,-0.028706674413869617,0.4205716342062387,-1.6663679360626706
1.2279971712246338,6.637231150595806,-0.028463947839924203,0.4053217277193357,-1.6849950540179315
1.2223288222046047,6.557684484051016,-0.028219542360367604,0.39014493772856,-1.7014285326367036
1.2167097080916787,6.481165698216742,-0.02797159876889364,0.3750429206141726,-1.7154815270735686
1.2111407290435616,6.407659638601583,-0.027718191712276564,0.36001767553742703,-1.7269567198707723
1.2056231779780444,6.337150712899529,-0.02745731894289607,0.3450715814830945,-1.7356453844248092
1.2001587571784245,6.269622810847231,-0.027186889053304276,0.33020743903986927,-1.7413263930137175
1.194749597526684,6.2050592152062976,-0.026904707464101563,0.31542851736946415,-1.7437651760658537
1.1893982807415386,6.143442502792048,-0.026608460387351048,0.3007386067730462,-1.7427126452297441
1.1841078650606363,6.084754434398533,-0.026295696421672714,0.28614207716211704,-1.7379041014347396
1.1788819148841199,6.028975832427754,-0.02596380534349221,0.27164394254566643,-1.7290581617015266
1.1737245349969456,5.9760864450427,-0.025609993528250972,0.25724993130489104,-1.7158757566668923
1.1686404101196781,5.9260647957657895,-0.025231255244423906,0.24296656146420473,-1.6980392770494008
1.1636348507174374,5.8788880176924465,-0.02482433877798277,0.2288012192692416,-1.6752119850452711
1.1587138462485307,5.834531671967202,-0.024385705911084625,0.21476223798319674,-1.6470378607752594
1.1538841273965414,5.7929695510015655,-0.023911482608808602,0.2008589716731517,-1.6131421312138854
1.1491532393635693,5.754173468280136,-0.023397397720912764,0.1871018555411592,-1.5731328388738575
1.144529629105958,5.71811303876575,-0.022838704855200363,0.173502439602706,-1.526603962329847
1.1400227506242941,5.684755457241273,-0.022230079961438096,0.1600733756420536,-1.4731408160594297
1.1356431943281593,5.6540652869053005,-0.021565482999911158,0.1468283277176764,-1.4123287504693771
1.1314028494839188,5.626004277782123,-0.020837965442493986,0.1337817635140992,-1.3437665584623513
1.1273151134545538,5.600531244662982,-0.020039394851154566,0.12094856767730654,-1.2670864695190678
1.1233951688432664,5.577602047790709,-0.019160051261718943,0.10834340104543798,-1.1819831238859257
1.1196603612737563,5.557169735859368,-0.018188024433382417,0.0959797182679577,-1.088254298879851
1.116130728664484,5.539184927263111,-0.017108301659341404,0.08386836769462819,-0.9858559916899049
1.1128297609334283,5.523596513717816,-0.015901375651215372,0.07201576775832914,-0.8749728829604876
1.1097855127414613,5.510352751896935,-0.014541106268454475,0.06042185045049129,-0.7561006838654034
1.107032262732116,5.499402727782979,-0.012991393824997494,0.04907839068908378,-0.6301273446639697
1.1046130435946813,5.490697974653202,-0.011200797549349786,0.03796914060867653,-0.4983843790236695
1.1025836755705796,5.484193600929377,-0.009092882691667758,0.027074596629556837,-0.36262107061357374
1.1010199135808816,5.47984739438343,-0.006544737205311207,0.016387468829894853,-0.22484530831539715
1.1000336793186656,5.47761259630785,-0.0033176054168478804,0.005960511925924819,-0.08699413457220934
