x,y,v_x,v_y,omega
2.375,32.48,0.0,2.2051282051282053,-6.530612244897959
2.373888839279825,32.021511350923596,-0.010582483049285949,2.1614303575041864,-6.203219611287427
2.370686952328329,31.57204936798348,-0.019911678393531685,2.119159956211178,-5.899752626233876
2.365642803754601,31.131323056165503,-0.02812783183245349,2.078233489674334,-5.617873304257323
2.358977232210358,30.699058188112936,-0.035353801922237325,2.038574777492975,-5.355521281787726
2.350886843509591,30.274995859057892,-0.04169751903744904,2.000114070650299,-5.110875195820358
2.3415469293196183,29.858891215931482,-0.0472540446765781,1.9627872924583731,-4.882320255938329
2.331113987535906,29.45051233382969,-0.052107305644487324,1.926535394225381,-4.668420877656876
2.319727906444732,29.049639217905987,-0.05633156189050624,1.8913038050479651,-4.467897478259458
2.307513863702881,28.656062912648313,-0.059992654698553284,1.857041959310845,-4.279606716040518
2.2945839823335543,28.26958470360468,-0.06314907262836328,1.8237028887237559,-4.102524593606857
2.2810387788419466,27.890015399120685,-0.06585286538695122,1.7912428682666677,-3.935731955406243
2.266968432810129,27.51717468167415,-0.06815043015416956,1.7596211074146313,-3.7784019961363353
2.252453902649795,27.150890520037823,-0.07008319042044076,1.7287994795979982,-3.629789465469115
2.237567908352314,26.790998634847863,-0.07168818384127786,1.6987422841159079,-3.4892213095939963
2.222375798908618,26.437342011263837,-0.07299857276535365,1.6694160357319487,-3.3560885344465463
2.2069363194447646,26.0897704533225,-0.07404408879515424,1.6407892779950752,-3.229839111439475
2.1913022909295354,25.74814017534929,-0.07485142087369506,1.6128324169878845,-3.1099717758043153
2.1755212134767454,25.41231342642781,-0.07544455486716468,1.5855175727404645,-2.996030591642389
2.1596358027226668,25.08215814446151,-0.0758450713621524,1.558818445986227,-2.88760017752724
2.1436844674564934,24.757547636811875,-0.07607240736330963,1.5327101982960125,-2.784301502823674
2.1277017355776766,24.43836028487881,-0.07614408672065925,1.5071693439236247,-2.6857881784416238
2.111718634514792,24.124479270312925,-0.07607592340205141,1.4821736519419577,-2.5917431770419856
2.0957875548772344,23.81580139357333,-0.0756486445746864,1.4576156503398883,-2.49579628917503
2.0799548893125466,23.512227298224538,-0.07513864651757886,1.433566210124829,-2.404408298993349
2.0642369955531126,23.213652202040095,-0.0745555797627473,1.4100061344889034,-2.3173066995769314
2.048648304782381,22.9199752539339,-0.07390814186326483,1.38691718080818,-2.234238404900487
2.03320151172102,22.631099340009364,-0.0732041730068435,1.3642819994255289,-2.1549681413327555
2.0179077457045467,22.346930901955737,-0.07245074143575614,1.342084077275664,-2.079276990862302
2.0027767247701243,22.067379766823226,-0.07165421984445833,1.320307685891105,-2.0069610699720632
1.9878168945395278,21.79235898729982,-0.07082035378026987,1.2989378333794313,-1.9378303299795474
1.9730355534832393,21.521784691694222,-0.06995432294628723,1.277960220007203,-1.8717074663077997
1.9584389659732582,21.255575942901615,-0.06906079619639068,1.2573611970652483,-1.8084269255892067
1.9440324643763185,20.9936546056937,-0.06814398091732096,1.2371277287244598,-1.7478340007596047
1.9298205413019223,20.735945221732372,-0.06720766741026223,1.2172473566215083,-1.6897840053990982
1.9158069329985392,20.482374891758358,-0.06625526881243289,1.1977081669405065,-1.6341415195398428
1.901994694784414,20.232873164452688,-0.06528985703637888,1.1784987597801653,-1.5807797000079697
1.8883862693048727,19.987371931511007,-0.06431419514972836,1.1596082206167746,-1.5295796491123386
1.8749835483242974,19.74580532850861,-0.06333076657003854,1.141026093691765,-1.4804298361501744
1.8617879286866943,19.508109641168232,-0.06234180140713136,1.1227423571689723,-1.4332255667802596
1.8488003630128849,19.274223216673754,-0.061349300248198534,1.104747399921297,-1.3878684958279968
1.8360214056437536,19.04408637970098,-0.06035505564828886,1.0870319998194453,-1.3442661795417672
1.8234512542868835,18.817641352862196,-0.05936067155999902,1.0695873034070453,-1.302331663723853
1.8110897877774517,18.594832181284488,-0.05836758091077894,1.0524048068568221,-1.2619831045180805
1.79893660032287,18.37560466106278,-0.05737706151380787,1.035476338111844,-1.2231434189557182
1.7869910325636746,18.159906271347992,-0.05639025047852965,1.018794040124218,-1.185739962645772
1.775252199750149,17.94768610984828,-0.05540815726933512,1.0023503551111521,-1.1497042322497943
1.763719017304615,17.738894831537323,-0.05443167554527047,0.9861380097550922,-1.1149715906082331
1.7523990887934682,17.533649896758675,-0.05337716741803618,0.9685756548034928,-1.112582663057708
1.7412972286066704,17.33207985859439,-0.05235483436098986,0.9511389943801489,-1.1126178665012294
1.7304066769547677,17.13415870600784,-0.05136470518094048,0.9338243635869857,-1.1149419753136938
1.7197206806685497,16.93986118121886,-0.05040668802113627,0.9166282534509284,-1.1194238153326463
1.709232517464333,16.749162747679662,-0.04948058059045057,0.8995473040652677,-1.1259359581979602
1.6989355181451768,16.562039559433813,-0.048586079591988796,0.8825782982761452,-1.1343544273429964
1.6888230869001282,16.378468431746573,-0.04772278940847578,0.8657181558880389,-1.1445584143957435
1.6788887198520386,16.198426812899957,-0.0468902300971397,0.8489639283654383,-1.1564300048007297
1.6691260219938773,16.021892757050423,-0.0460878447424922,0.8323127940110736,-1.1698539115164284
1.6595287226437208,15.848844898050825,-0.0453150062113799,0.8157620536041489,-1.184717215678784
1.6500906895396796,15.67926242414146,-0.044571023350916894,0.7993091264850598,-1.200909113149651
1.640805941687864,15.51312505341754,-0.04385514666637377,0.7829515470760705,-1.2183206658895398
1.6316686610690543,15.350413009982358,-0.0431665735127657,0.7666869618304322,-1.2368445571072324
1.6226732033029876,15.19110700069659,-0.04250445283072655,0.750513126605466,-1.2563748491446298
1.613814107363065,15.035188192434898,-0.041867889454251246,0.7344279044582526,-1.276806743053594
1.6050861044287923,14.882638189760872,-0.04125594801501141,0.7184292638657969,-1.2980363388125142
1.5964841259583729,14.733439012930596,-0.040667656465176324,0.7025152773749219,-1.3199603951137058
1.5880033110595413,14.587573076133705,-0.04010200923797915,0.6866841206907198,-1.3424760876284079
1.579639013232977,14.445023165878478,-0.03955797006263442,0.6709340722162136,-1.365480764623842
1.571386806559401,14.305772419424475,-0.0390344744476137,0.6552635130599991,-1.3888716987663148
1.563242491398813,14.169804303162199,-0.03853043184369845,0.6396709275331133,-1.4125458338954322
1.555202099668184,14.037102590834287,-0.03804472749562798,0.6241549041612667,-1.4363995254969002
1.5472618997623482,13.907651341486737,-0.037576223988520174,0.6087141372439633,-1.460328273534916
1.5394184011818373,13.781434877031334,-0.037123762492536475,0.5933474289979864,-1.484226446229671
1.5316683589309426,13.658437759291964,-0.03668616370646116,0.5780536923293448,-1.5079869932810326
1.5240087777494806,13.538644766397443,-0.0362622284979369,0.5628319542851391,-1.5315011469462363
1.5164369162425215,13.422040868371774,-0.03585073823500935,0.5476813602450428,-1.5546581092780372
1.508950290973809,13.308611201759309,-0.03545045480034511,0.5326011789212918,-1.5773447237212204
1.5015466805907975,13.198341043106701,-0.03506012027595656,0.5175908082463808,-1.5994451291514848
1.4942241300521653,13.091215781105717,-0.03467845628244607,0.5026497822391762,-1.6208403943241965
1.4869809550324842,12.987220887180538,-0.034304162952613244,0.4877777789530175,-1.6414081305855377
1.4798157465834174,12.886341884279982,-0.03393591751468843,0.47297462962368453,-1.6610220805912752
1.47272737613656,12.788564313608646,-0.03357237245538269,0.45824032915095625,-1.679551680687571
1.4657150009398798,12.693873699000982,-0.03321215322728508,0.4435750480649105,-1.6968615945466055
1.458778070027844,12.602255508608721,-0.03285385545877043,0.42897914614708277,-1.7128112156351787
1.4519163308348508,12.513695113534098,-0.032496041617353665,0.41445318789694885,-1.7272541361520708
1.4451298365727694,12.428177742999083,-0.032137237069137334,0.39999796005556637,-1.7400375802350547
1.4384189545064352,12.345688435594155,-0.03177592546737971,0.3856144914199445,-1.7510017995603657
1.4317843752762118,12.266211986098778,-0.03141054339189022,0.3713040752027005,-1.7599794300048341
1.4252271234345844,12.189732887310441,-0.031039474147419217,0.35706829421001945,-1.7667948089095677
1.4187485693847708,12.116235266260361,-0.03066104061270839,0.34290904912408326,-1.7712632538073638
1.4123504429342468,12.045702814133463,-0.03027349701133084,0.3288285901797129,-1.7731903054397975
1.4060348487058816,11.97811870915077,-0.029875019449291242,0.31482955251258643,-1.7723709407531747
1.3998042836855331,11.913465531618005,-0.02946369503021743,0.3009149954184983,-1.768588765686618
1.3936616572294633,11.851725170302071,-0.029037509313304448,0.2870884456856245,-1.761615203454752
1.387610313910825,11.792878719277564,-0.02859433181658635,0.2733539450239549,-1.7512087023857759
1.381654059656143,11.736906364404334,-0.028131899180382752,0.2597161013877697,-1.7371139991853934
1.375797191716776,11.683787258678041,-0.027647795480256424,0.24618014362454518,-1.719061490126545
1.3700445331467683,11.633499385873435,-0.027139428996007586,0.23275197832408098,-1.6967667860140778
1.3644014726325362,11.58601941222539,-0.02660400447286972,0.2194382468953993,-1.6699305594647134
1.358874010764739,11.54132252643915,-0.026038489506150758,0.20624637964024323,-1.6382388386585613
1.3534688141944606,11.499382269193436,-0.0254395730679295,0.19318464174751604,-1.6013639650721594
1.3481932796299987,11.460170354645449,-0.024803613260279467,0.18026216347139568,-1.558966520082473
1.3430556103932019,11.423656488467657,-0.024126569947309693,0.1674889429837651,-1.5106986445607984
1.3380649093985841,11.389808189911395,-0.023403915715716185,0.15487580517110064,-1.4562093355289978
1.3332312941498792,11.358590629638538,-0.022630515224331887,0.14243429266562327,-1.3951525127181337
1.3285660419822503,11.329966500969121,-0.021800457800704387,0.13017645656690932,-1.3271989079398738
1.3240817777918432,11.303895950089636,-0.020906820203172444,0.1181145041900925,-1.2520531274644529
1.3197927226017867,11.28033660069742,-0.019941324464033044,0.10626025192624688,-1.1694775186141757
1.3157150305635519,11.259243719756931,-0.018893837804870726,0.09462432845938629,-1.0793246001805532
1.3118672559047582,11.24057058090104,-0.01775163513602072,0.08321508921578172,-0.9815794989402635
1.3082710121526804,11.22426908419941,-0.016498305359957353,0.0720372603235486,-0.8764125197152062
1.3049519173709556,11.210290672588684,-0.015112121132658975,0.06109046930240168,-0.7642387800724463
1.3019409688573447,11.198587522976243,-0.013563578996968074,0.05036809843514131,-0.6457757027382884
1.2992765801800468,11.189113846824458,-0.011811551263012275,0.039857388724725454,-0.522079665260967
1.2970077140325391,11.181826853144607,-0.009796697760869279,0.02954255108340211,-0.3945323809692227
1.2951991261630242,11.17668637395489,-0.007427948615463855,0.019414393580561632,-0.2647421967324036
1.2939419577326123,11.173650690114346,-0.004545084055125765,0.009496881091284264,-0.13433472644062525
1.2933865782941736,11.172657965042657,-0.0007442439300055542,-4.235659898336151e-05,-0.004687290777786152
