x,y,v_x,v_y,omega
2.375,32.48,0.0,3.3846153846153846,-3.591836734693878
2.373760460928391,31.7125772324105,-0.010778600622688084,3.288626072684593,-3.306154528456395
2.3702676137903196,30.96666796971878,-0.01959398318662776,3.197541428982519,-3.0548564854725693
2.364933351816667,30.241188948254663,-0.02679090354078432,3.1109718011402503,-2.8326483035405823
2.358097787376863,29.53514170401838,-0.032648787240120006,3.0285694530882985,-2.6351909664949167
2.3500427228844036,28.847603603670006,-0.037395251824745804,2.9500227238540746,-2.4589061406662363
2.341002362232564,28.177720100984686,-0.041216579930382344,2.875051212540028,-2.3008254426356984
2.331171878321248,27.524698008159987,-0.04426588886366811,2.803401768544308,-2.158472768604625
2.320714303390006,26.887799615707287,-0.04666954532104561,2.734845122348738,-2.0297717622246974
2.3097660988826134,26.266337527941687,-0.048532233004106126,2.669173032134736,-1.9129725540254603
2.298441679518037,25.65967010645859,-0.04994097886177742,2.6061958503269493,-1.8065933876079314
2.2868371045074487,25.067197433607998,-0.05096836905638123,2.545740435330388,-1.7093738272720087
2.275033102042582,24.488357723352628,-0.05167513063811265,2.4876483494989112,-1.620237035672873
2.263097557424574,23.92262411908655,-0.05211221386630132,2.431774296293098,-1.5382591992108283
2.251087567709767,23.36950182776077,-0.05232247930593776,2.377984758713628,-1.4626446195948006
2.2390511444781467,22.82852554756897,-0.05234207053423616,2.326156808171636,-1.3927053222805408
2.2270286297770188,22.299257152901347,-0.052201535562529364,2.2761770585033454,-1.3278442847639966
2.2150538773398596,21.781283605587227,-0.05192674649972533,2.2279407442281363,-1.2675415805501091
2.203155240992356,21.274215065850083,-0.05153965652204287,2.181350905660051,-1.2113428829565265
2.1913564041047526,20.777683180073108,-0.05105892510929104,2.1363176663136447,-1.1588498877035782
2.1796770775545853,20.291339525557277,-0.05050043619651219,2.0927575903457747,-1.1097123025781706
2.168133588562716,19.814854195056803,-0.049877728950178266,2.050593109658315,-1.063621122360817
2.156739378679159,19.347914506084642,-0.04920235699379266,2.009752011838771,-1.0203029621816118
2.14550542590834,18.89022382186189,-0.048484188839418296,1.9701669814025191,-0.9795152659221703
2.134440603309355,18.441500472395184,-0.04773165984740705,1.9317751878732001,-0.9410422407843775
2.1235519842557027,18.001476765549025,-0.04695198409739812,1.8945179151368814,-0.904691396669415
2.1128451027891955,17.569898079173075,-0.046151333002663386,1.8583402272626866,-0.8702905910596971
2.102324176074605,17.146522026376225,-0.04533498625464597,1.8231906666229547,-0.8376854978342045
2.0919922947919924,16.731117686935256,-0.04450745968111261,1.7890209806898505,-0.8067374327745507
2.0818515863428257,16.323464898605785,-0.04367261378990474,1.75578587434903,-0.777321480135646
2.0719033549541233,15.92335360278436,-0.04283374611185534,1.723442784967715,-0.7493248741089324
2.0621482021104107,15.530583239566628,-0.04199366992042622,1.6919516777951578,-0.7226455967281183
2.0525861302007566,15.144962187769998,-0.04115478146787203,1.6612748595668496,-0.6971911600964686
2.0432166318172498,14.766307245949527,-0.040319117519143806,1.631376808437253,-0.6728775460197318
2.0340387667654842,14.394443150841923,-0.03948840467012214,1.6022240185853907,-0.6496282804233043
2.0250512285336084,14.029202130031344,-0.03866410169401373,1.573784858028328,-0.627373623486739
2.0162524017034924,13.670423485948564,-0.03784743595917017,1.5460294383436672,-0.6060498593797067
2.0076404115667144,13.317953208597121,-0.037039434795420455,1.5189294951471508,-0.5855986719407935
1.9992131670222224,12.97164361465089,-0.03624095254798902,1.4924582782983356,-0.5659665946925418
1.990982848824841,12.631354092941624,-0.03532703177706788,1.466581040912688,-0.5434930095800348
1.982960221848913,12.296949627673015,-0.03443494192665172,1.441283874466525,-0.5221667494509799
1.9751402725613398,11.968299429300185,-0.03356461709572301,1.4165439374711428,-0.5019144392625362
1.9675180122026672,11.645277828275471,-0.03271590776230124,1.3923395497002757,-0.4826682853627589
1.9600884943926733,11.327764016436348,-0.03188859493329756,1.3686501184660314,-0.4643655842926744
1.9528468297118025,11.01564180471047,-0.031082402291666738,1.3454560704546612,-0.446948280519851
1.9457881976868683,10.708799395914959,-0.030297006620804465,1.322738788636748,-0.4303625676745325
1.938907856549709,10.407129171533072,-0.029532046745796972,1.3004805538144508,-0.41455852852178365
1.9322011510863026,10.110527491447122,-0.028787131196866253,1.2786644904111955,-0.3994898094775082
1.9256635188499744,9.8188945056929,-0.02806184477120668,1.2572745161472738,-0.3851133259752487
1.9192904949746594,9.532133977378901,-0.027355754144575816,1.236295295278789,-0.3713889954250448
1.9130777157918095,9.25015311598445,-0.026668412662813928,1.2157121951077376,-0.35827949488435656
1.9070209214266693,8.972862420314769,-0.025999364425362572,1.1955112454981927,-0.3457500408918596
1.901115957525656,8.700175530449318,-0.025348147757362476,1.1756791011578869,-0.33376818920432283
1.8953587762458906,8.43200908807253,-0.024714298153639992,1.1562030064663518,-0.3223036524304036
1.8897454366200737,8.168282604624103,-0.024097350766507153,1.1370707626503969,-0.31132813377779867
1.8842721043944803,7.908918336749888,-0.02349684249952276,1.1182706971253793,-0.30081517532588464
1.8789350514245253,7.653841168574257,-0.0229123137609542,1.0997916348366312,-0.2907400194082768
1.87373065470082,7.40297850035132,-0.022343309923441974,1.0816228714497722,-0.2810794818416552
1.868655395068659,7.156260143085664,-0.02178938253013146,1.0637541482515982,-0.27181183587135654
1.863705855695246,6.913618218743707,-0.021250090282155416,1.0461756286349688,-0.26291670582285664
1.858878720331462,6.674987065704737,-0.02072499983770426,1.0288778760517276,-0.25437496955330946
1.854170771408502,6.440303149126148,-0.02021368644890467,1.0118518333273159,-0.24616866889045305
1.849578888004064,6.209504975920968,-0.019715734459252527,0.9950888032394646,-0.23828092732889034
1.8451040893605928,5.98262908439089,-0.019195558092670453,0.9777450361525261,-0.24745943656305966
1.8407458103862266,5.75972754935961,-0.018702519945296977,0.9605291815107924,-0.2589778907892051
1.8364977615706282,5.540771390534413,-0.01823703497295089,0.9434374169691782,-0.2727088573255262
1.8323535747995265,5.325732488814751,-0.01779937173227974,0.9264660762452795,-0.2885290425187683
1.8283068355577683,5.114583551252927,-0.017389665152575742,0.9096116416836253,-0.3063189953539735
1.824351112312928,4.907298077661931,-0.01700792828081945,0.8928707373685105,-0.3259628231545011
1.8204799833066776,4.703850328747706,-0.016654063077877534,0.8762401227551904,-0.347347918168599
1.8166870609639294,4.504215295649722,-0.01632787033732635,0.8597166867924845,-0.37036469389163346
1.8129660141140096,4.308368670779597,-0.016029058792410445,0.8432974425129602,-0.3949063300177752
1.8093105882037033,4.116286819852576,-0.015757253471123223,0.8269795220698472,-0.42086852495178895
1.8057146236687833,3.927946755011231,-0.015512003354268982,0.8107601722027251,-0.4481492548407795
1.8021720726185846,3.74332610894448,-0.015292788386588766,0.7946367501168482,-0.47664853810744157
1.7986770139771717,3.5624031099082103,-0.01509902588656652,0.7786067197637505,-0.5062682044805824
1.7952236672146373,3.3851565575563214,-0.014930076396339972,0.7626676485135597,-0.5369116675253911
1.791806404793002,3.2115657994928526,-0.014785249009186706,0.7468172042122496,-0.5684836996749952
1.7884197634429901,3.041610708457153,-0.01466380620830657,0.7310531526199321,-0.6008902087560601
1.785058454380625,2.8752716600544943,-0.014564968247043978,0.7153733552292599,-0.6340380149842473
1.7817173725660305,2.712529510944524,-0.014487917097255987,0.6997757674661222,-0.6678346273798548
1.7783916051010875,2.553365577398935,-0.014431799989202477,0.6842584372781128,-0.7021880185194225
1.775076438857575,2.397761614138176,-0.01439573256308159,0.6688195041197883,-0.7370063964948903
1.771767367423171,2.2456997933544294,-0.014378801649124306,0.6534571983475661,-0.7721979728973325
1.768460097449176,2.0971626838247097,-0.014380067689963251,0.6381698410413001,-0.8076707255765244
1.765150554481017,1.9521332300134269,-0.014398566815767547,0.6229558442742026,-0.8433321548496681
1.7618348883505783,1.8105947310582309,-0.014433312579350786,0.6078137118579209,-0.8790890317414248
1.7585094782081196,1.6725308195261057,-0.014483297355073324,0.5927420405953452,-0.9148471367317668
1.7551709372710758,1.537925439818416,-0.014547493401830279,0.5777395220802117,-0.9505109873667155
1.7518161173673952,1.4067628260938498,-0.014624853586696072,0.5628049450899231,-0.9859835529483523
1.7484421133523143,1.2790274795664764,-0.014714311761833538,0.5479371986263736,-1.0211659543630047
1.745046267479657,1.1547041450224924,-0.014814782783013455,0.5331352756691262,-1.0559571469286704
1.7416261738119618,1.033777786383176,-0.014925162153465095,0.5183982777162325,-1.0902535839429623
1.7381796827580658,0.9162335611227448,-0.01504432527171847,0.503725420200565,-1.123948858389739
1.7347049058323178,0.8020567933280205,-0.015171126256523665,0.4891160388840021,-1.156933320014969
1.7312002207365063,0.6912329451612855,-0.01530439631575053,0.4745695973484757,-1.189093664709721
1.7276642768739778,0.5837475864581663,-0.015442941619278516,0.4600856957221196,-1.2203124928407818
1.7240960014155222,0.47958636215801675,-0.015585540628162227,0.44566408080091924,-1.2504678328490741
1.720494606048562,0.3787349572244523,-0.01573094082366478,0.4313046577517917,-1.2794326260968312
1.716859594555299,0.28117905866757553,-0.015877854769927736,0.417007503612378,-1.3070741685937752
1.7131907713819734,0.18690431422595566,-0.016024955432903287,0.4027728828364635,-1.3332535048828522
1.7094882513806586,0.09589628720494403,-0.01617087066548514,0.38860126517230453,-1.357824769037347
1.7057524709273877,0.008140406896600894,-0.016314176754263,0.37449334620457553,-1.3806344674444055
1.7019842006463828,-0.07637808607494634,-0.016453390906647884,0.3604500709393357,-1.4015206978722057
1.6981845600002679,-0.1576742002324636,-0.016586962537830808,0.3464726608651598,-1.4203122993098967
1.6943550340410425,-0.23576326040484474,-0.016713263194562674,0.3325626449816075,-1.4368279273360787
1.6904974926571454,-0.31066098254260055,-0.016830574926280338,0.31872189534670775,-1.4508750504685433
1.6866142126991333,-0.38238355729925644,-0.016937076882521863,0.304952667754674,-1.4622488643046057
1.6827079034217634,-0.45094774363491297,-0.017030829877216696,0.291257648207527,-1.4707311226153317
1.678781735745411,-0.5163709738549116,-0.017109758612804806,0.27764000587941273,-1.4760888884053487
1.6748393759173563,-0.5786714716574721,-0.01717163119636509,0.2641034532732824,-1.4780732140245902
1.6708850242472857,-0.637868384917951,-0.017214035499901068,0.25065231420911177,-1.476417768797958
1.6669234597068998,-0.6939819350655583,-0.017234351807801748,0.2372916001178982,-1.4708374469151202
1.6629600913293783,-0.7470335849786522,-0.01722972104021297,0.22402709477857358,-1.4610270098461138
1.659001017534014,-0.797046227285513,-0.017197007615128018,0.21086544702023058,-1.446659849791179
1.6550530947561874,-0.8440443947263603,-0.01713275567031861,0.1978142698566954,-1.4273870087575533
1.6511240171181032,-0.8880544936790216,-0.017033136834763277,0.18488224277513482,-1.4028366593104322
1.647222409389399,-0.92910506087334,-0.01689388689309826,0.1720792110885307,-1.3726143588496977
1.6433579362555584,-0.9672270414085062,-0.016710227314212206,0.1594162718259647,-1.3363045451984386
1.63954143209835,-1.0024540829776,-0.016476765357165805,0.14690582877485092,-1.293473969436366
1.635785057370108,-1.034822836012431,-0.016187362714502728,0.13456158891931075,-1.2436780916782146
1.6321024906748751,-1.0643732413293705,-0.015834956374480263,0.12239845731495949,-1.186471932291556
1.6285091706335617,-1.0911487745311135,-0.015411304854330928,0.11043226617844004,-1.1214275078014122
1.6250226098122997,-1.1151965985027488,-0.014906615330555805,0.09867924661841546,-1.048160790902751
1.621662816593279,-1.136567550896551,-0.01430897787831935,0.08715512202331625,-0.9663720213306629
1.6184528833859004,-1.1553158637498768,-0.013603484794538899,0.07587368539693169,-0.8759038014295433
1.6154198366817925,-1.1714984847467136,-0.012770834371616814,0.06484475805385219,-0.7768207937257543
1.6125959054829506,-1.1851738660839217,-0.01178508909657403,0.054071601400156544,-0.669510944273719
1.6100204671123866,-1.1964001584793706,-0.010610027169199327,0.043548332473306126,-0.5547973875543022
1.6077431179401698,-1.2052329944704852,-0.00919300911094638,0.03325893701465718,-0.4340284325754721
1.6058287497334525,-1.2117236423030988,-0.007453670947465081,0.02318147892111893,-0.3090811970951453
1.6043669075005265,-1.2159196602190718,-0.005258000643194548,0.013305633391677275,-0.18218905423438098
1.6034945283783995,-1.2178745999418013,-0.002327904766606976,0.0036938424581243173,-0.05552083041982453
