x,y,v_x,v_y,omega
2.375,32.48,0.0,3.333333333333333,-6.163265306122449
2.372938127021415,31.72413890176634,-0.017929330248564454,3.2393718686984547,-5.679400942260724
2.367120426765774,30.9893322383885,-0.03265936762657216,3.1502512911088623,-5.2530273202693705
2.358219292713252,30.274512770402467,-0.04474179804753491,3.06557016963925,-4.875375806361125
2.346792109005743,29.5787001344231,-0.05462501680037019,2.984974491050888,-4.539253896391166
2.333302553406914,28.900990813735252,-0.06267546666771115,2.908150036669536,-4.238722708251638
2.318137552876753,28.24054968060009,-0.06919410315977159,2.83481633841884,-3.9688483025293455
2.301620871114002,27.59660279257367,-0.07442921651632646,2.7647218183326303,-3.725508118710006
2.2840240639756435,26.96843120308778,-0.07858649773026748,2.697639829370781,-3.5052390268628058
2.2655753619326364,26.355365602516493,-0.08183699829588155,2.63336539298821,-3.3051171220694378
2.2464669085852513,25.75678164679405,-0.0843234655944222,2.571712482859126,-3.1226619536534765
2.2268606872674046,25.17209586090793,-0.08616541543033268,2.5125117422375696,-2.955759720768516
2.206893394695272,24.600762027334277,-0.08746321563169061,2.4556085497072324,-2.8026013021427136
2.1866804650352605,24.04226798681163,-0.08830139010753893,2.400861367880996,-2.6616319696323534
2.1663194051308405,23.496132792223364,-0.08875130471350307,2.3481403241908705,-2.5315103642118655
2.1458925686705994,22.96190416680672,-0.08887336015815961,2.297325983779968,-2.4110748593766993
2.125469471426539,22.43915622615998,-0.08871878979019206,2.2483082827133956,-2.2993158499523445
2.1051087295963122,21.927487430108993,-0.08833113916830256,2.200985595990848,-2.1953528190066445
2.084859687449346,21.426518735806628,-0.08774748819661966,2.155263919681899,-2.0984152771142353
2.0647637879332215,20.935891927760977,-0.08699946411750685,2.1110561502802976,-2.0078268548873206
2.044855729909367,20.45526810403363,-0.08611408391601526,2.068281447348773,-1.9229919748527067
2.025164447697539,19.984326300780886,-0.08511445705639965,2.026864667892499,-1.843384642317813
2.005713942188684,19.522762239751422,-0.08402037345538213,1.9867358627984824,-1.7685389842043158
1.9865239876055107,19.07028718539992,-0.08284879683308097,1.9478298272146004,-1.6980412354756345
1.9676107337935291,18.626626900000858,-0.08161427979284538,1.9100856979946306,-1.6315229289316595
1.9489872205127112,18.1915206866096,-0.08032931395339711,1.8734465923641288,-1.5686550889782298
1.9306638174148985,17.764720510964324,-0.07900462602758497,1.8378592828121507,-1.509143265940663
1.9126486011113708,17.345990194490028,-0.07764942878569783,1.8032739039208536,-1.4527232764598175
1.89494767886114,16.93510467148394,-0.07627163425978732,1.7696436874364574,-1.3991575389413533
1.877565466866083,16.53184930435477,-0.07487803526244756,1.7369247223824176,-1.3482319120569728
1.860504929882255,16.136019251475645,-0.07347446024910202,1.7050757374360384,-1.2997529598066426
1.843767787798119,15.747418882808631,-0.07206590569990498,1.6740579031466811,-1.253545579339447
1.8273546939502918,15.36586123898078,-0.07065664949859249,1.6438346518781088,-1.2094509381474174
1.8112653892136403,14.991167529948715,-0.06925034821142026,1.6143715136181234,-1.1673246758270859
1.7954988352892731,14.623166669790027,-0.06785012069612033,1.585635966022645,-1.1270353326943432
1.7800533301000496,14.261694844513148,-0.06645862007973746,1.557597297254569,-1.0884629734164877
1.7649266077715637,13.906595110089206,-0.06507809582013821,1.5302264803449201,-1.0514979787133005
1.7501159253131233,13.557717018185414,-0.0637104472967363,1.5034960579489385,-1.0160399822554198
1.735618137806552,13.214916267324234,-0.06235727015170933,1.47738003649609,-0.9819969332976479
1.7214539200367347,12.878057627073453,-0.06080984089018169,1.4518255309020227,-0.943248016619804
1.7076415189482224,12.547011146782282,-0.05929799466209971,1.4268395151081557,-0.9064637692295734
1.6941727500848929,12.221648641726102,-0.05782173458424126,1.4023996592933992,-0.8715193142774798
1.6810394453613493,11.901846932542146,-0.056380915185702804,1.378484768393174,-0.8382992188137751
1.6682334844642428,11.587487592545823,-0.054975266528266835,1.3550747098357032,-0.8066966671512358
1.6557468210894908,11.278456711036611,-0.05360441499131658,1.332150346766157,-0.7766127161608393
1.6435715047299446,10.974644671387011,-0.052267901178651016,1.3096934762738568,-0.7479556234519067
1.6316996986303203,10.67594594281406,-0.050965195339820704,1.2876867721865821,-0.7206402404877129
1.6201236944422432,10.38225888482808,-0.04969571064345649,1.2661137320393392,-0.6945874636414904
1.6088359240400498,10.093485563439263,-0.04845881459300776,1.2449586278634166,-0.6697237370269772
1.5978289688958176,9.809531578280254,-0.04725383883509835,1.2242064604757916,-0.6459806016598016
1.587095567358507,9.5303058998729,-0.04608008757630057,1.203842916979467,-0.6232942861359922
1.5766286201358481,9.255720716330817,-0.044936844794644444,1.1838543312125707,-0.6016053345644607
1.5664211942376727,8.985691288846905,-0.04382338040688142,1.1642276469084107,-0.5808582679722486
1.556466525604841,8.72013581536713,-0.04273895553078761,1.1449503833505172,-0.5610012758238954
1.5467580206180442,8.458975301899297,-0.041682826963096394,1.126010603326269,-0.5419859346673908
1.53728925665487,8.202133440948742,-0.04065425097754928,1.1073968832002976,-0.5237669512455787
1.5280539818410794,7.949536496612069,-0.03965248653367218,1.0890982849446833,-0.5063019276994167
1.5190461141225935,7.701113195896053,-0.038676797974901735,1.0711043299772023,-0.4895511467431582
1.5102597397677813,7.4567946258614235,-0.03772645728433334,1.0534049746717482,-0.47347737491563396
1.501689111394981,7.216514136221257,-0.03680074595740725,1.0359905874166522,-0.4580456822100851
1.4933286456074233,6.980207247051023,-0.035898956543096314,1.0188519271071288,-0.4432232765606616
1.4851729203066466,6.747811561292433,-0.03502039389844014,1.0019801229675749,-0.42897935181954083
1.47721667174585,6.5192666817562355,-0.03416437619544316,0.9853666556080669,-0.41528494799705457
1.4694621902349145,6.294624570825686,-0.033265897812690584,0.9680430046575729,-0.4215113442286534
1.4619098942222761,6.073952129809609,-0.03240624142764354,0.9508477867865646,-0.43014879672808065
1.4545508706015526,5.857220264002962,-0.03158526831777942,0.9337771332712416,-0.44106438937605125
1.4473762520554971,5.6444007499086695,-0.030802719039225903,0.9168273371138921,-0.4541295987434746
1.4403772435164328,5.435466198935249,-0.03005822477872401,0.899994845263679,-0.46921997471945576
1.4335451461242612,5.230390022815925,-0.0293513177618991,0.8832762514260889,-0.4862148347253978
1.4268713788907637,5.0291464006176945,-0.028681440790253688,0.8666682894281021,-0.5049969701585015
1.4203474982629598,4.831710247215838,-0.02804795597325715,0.8501678271097888,-0.5254523637731248
1.4139652157636582,4.638057183115816,-0.027450152716321993,0.8337718607164968,-0.5474699167640695
1.4077164138739495,4.448163505509971,-0.026887255020277386,0.8174775097691087,-0.5709411843623446
1.4015931603101568,4.2620061604613255,-0.026358428143135496,0.8012820123930376,-0.5957601187916366
1.3955877208365939,4.079562716110804,-0.02586278467045469,0.7851827210897476,-0.62182281846284
1.3896925707453058,3.900811336807653,-0.02539939003639925,0.7691770989376495,-0.6490272823047006
1.383900405124751,3.72573075806541,-0.024967267533642635,0.753262716212281,-0.6772731681409371
1.3782041480310314,3.554300262247839,-0.02456540284652796,0.7374372474187575,-0.7064615540281087
1.3725969606677701,3.3864996548904287,-0.02419274813835283,0.7216984687326291,-0.7364947014638252
1.36707224867403,3.2223092415635968,-0.023848225720255935,0.7060442558485261,-0.7672758193614264
1.36162366861372,3.0617098051834866,-0.02353073132591904,0.6904725822393771,-0.7987088276646668
1.3562451337547292,2.9046825836752106,-0.02323913701313056,0.6749815178325824,-0.830698119443782
1.3509308192215514,2.751209247891424,-0.02297229371015526,0.6595692281133798,-0.8631483202720687
1.345675166601378,2.601271879686358,-0.022729033421788263,0.644233973669808,-0.8959640436291303
1.3404728880805779,2.454852950041534,-0.022508171106908243,0.6289741101982256,-0.9290496410124988
1.3353189701861146,2.3119352971345,-0.022308506236251382,0.6137880889933625,-0.9623089453625726
1.3302086772048092,2.1725021042357326,-0.022128824035969184,0.5986744579524463,-0.995645006315784
1.3251375543524564,2.0365368773113453,-0.021967896419271514,0.5836318631291765,-1.028959815696573
1.3201014307646592,1.904023422200254,-0.021824482605050995,0.56865905088031,-1.062154021538997
1.3150964223819173,1.774945821223632,-0.021697329418791423,0.5537548706555376,-1.095126628792497
1.3101189348030244,1.6492884090718611,-0.021585171267232597,0.5389182784902933,-1.127774684712308
1.3051656661832662,1.527035747799271,-0.02148672977414268,0.524148341271354,-1.159992946762226
1.300233610257331,1.4081726007395403,-0.021400713060076973,0.5094442418567464,-1.1916735306649993
1.2953200595713494,1.2926839051343606,-0.02132581464411103,0.49480528514480476,-1.2227055360230705
1.2904226090141593,1.1805547432444214,-0.02126071194015028,0.4802309052024979,-1.2529746466998155
1.2855391597448802,1.0717703116843609,-0.021204064314451043,0.46572067358063757,-1.2823627028999252
1.2806679236223193,0.9663158886917707,-0.02115451066433969,0.4512743089636242,-1.3107472416197286
1.2758074282517928,0.8641767990036584,-0.021110666470672928,0.4368916883243191,-1.338001001858872
1.2709565227768214,0.7653383759715702,-0.021071120268208707,0.422572859780811,-1.3639913907019847
1.266114384557089,0.6697859204978904,-0.021034429468594552,0.4083180573816132,-1.3885799061057613
1.261280526890308,0.5775046563198636,-0.02099911545993666,0.39412771807949254,-1.4116215119833346
1.2564548079545304,0.48847968110365514,-0.020963657894651582,0.38000250119188217,-1.43296396099421
1.2516374411693747,0.4026959127375065,-0.020926488063223683,0.36594331068767444,-1.4524470603695514
1.2468290072000554,0.3201380301295629,-0.020885981235205825,0.35195132068576507,-1.4699018761958602
1.2420304678575815,0.2407904077218035,-0.020840447829784454,0.3380280045990906,-1.485149871942719
1.2372431821827443,0.1646370428260866,-0.020788123255757476,0.32417516840716737,-1.4980019777948423
1.2324689250414445,0.09166147477176878,-0.020727156233805742,0.3103949885868897,-1.5082575887427858
1.2277099086057477,0.021846694728253624,-0.0206555953809488,0.29669005526977027,-1.5157034917024217
1.2229688071504266,-0.04482495506742623,-0.02057137379575748,0.28306342121439476,-1.5201127256102378
1.2182487856609991,-0.10837189408167092,-0.020472291329698033,0.26951865717035134,-1.5212433841195605
1.2135535328297604,-0.16881342978238933,-0.02035599415933342,0.256059914140213,-1.5188373791344558
1.2088872991160655,-0.2261698990899106,-0.02021995117714429,0.24269199288172527,-1.5126191963235274
1.2042549406738574,-0.28046282664894306,-0.02006142658118737,0.22942042067510393,-1.5022946929404375
1.1996619701151339,-0.33171510153101735,-0.019877447842496225,0.21625153482116946,-1.4875500166388933
1.195114615301749,-0.37995117374637744,-0.019664767926069558,0.20319257139935426,-1.4680507657276296
1.1906198876702538,-0.425197271431351,-0.01941982017388654,0.190251756296098,-1.4434415725880314
1.1861856620451172,-0.4674816386130516,-0.019138663522953382,0.17743839310996437,-1.413346381580848
1.18182077056608,-0.506834791783497,-0.018816914555632395,0.16476293880697826,-1.3773698231771747
1.1775351143798525,-0.5432897907622234,-0.018449660976781083,0.15223705231239315,-1.3351002744681544
1.1733397983468057,-0.5768825149439607,-0.018031348006235123,0.13987359274618946,-1.286115465210187
1.1692472965570766,-0.6076519292589353,-0.017555624078365674,0.12768653173187178,-1.2299918649483235
1.1652716605437776,-0.6356403140364293,-0.017015123863365244,0.11569072720283893,-1.1663195952641754
1.161428788717106,-0.6608934183615602,-0.01640115289030163,0.10390148432004126,-1.0947252552898858
1.1577367863302266,-0.6834604766616081,-0.015703215691257467,0.09233380524559741,-1.0149057619913489
1.1542164627855178,-0.7033940038337221,-0.014908293393167476,0.08100121364235241,-0.9266768440468767
1.150892041308399,-0.7207492601130241,-0.01399971945134368,0.06991405835159578,-0.8300395475084364
1.147792201296649,-0.7355832677593455,-0.012955411085611108,0.059077312485973886,-0.7252656162864614
1.1449516470829058,-0.7479533018213829,-0.011745060338242932,0.0484882010969581,-0.6129953928242206
1.142413523793302,-0.7579149343749805,-0.010325576962659401,0.03813469067343047,-0.49432672409756573
1.1402332629484133,-0.7655201023472387,-0.0086332129928946,0.02799720473752937,-0.3708493866946047
1.1384851690757123,-0.7708165109154805,-0.006567603291461925,0.018058521942857095,-0.24455545206131463
1.137275941836142,-0.773851815596565,-0.003947416183062837,0.008335431805687887,-0.11755461479385837
