x,y,v_x,v_y,omega
2.375,32.48,0.0,3.641025641025641,-6.040816326530612
2.373656802012786,31.832691695243952,-0.014924422080155049,3.5512888562637563,-5.631947944539792
2.369836068363103,31.201182188105857,-0.027528174027435993,3.465483445270615,-5.264715459757268
2.3639242700687886,30.58478882383296,-0.03815847368716882,3.3833317133171463,-4.933638411157572
2.3562504581319414,29.982876444146033,-0.04710610338890862,3.3045836165375833,-4.634089346682277
2.347095510698572,29.39485274556468,-0.05461553475964216,3.229013034366332,-4.362142419380446
2.3366997383994277,28.820164250157266,-0.06089304634195764,3.156414692382715,-4.114452078295102
2.3252691696243644,28.258292784141023,-0.06611327338097016,3.0866015966866627,-3.8881552259521777
2.3129807679442784,27.70875238166197,-0.07042452306442806,3.0194028753028093,-3.6807918201447207
2.2999867809137364,27.17108654765326,-0.07395311060826376,2.95466194701619,-3.4902400781263023
2.286418378728782,26.64486582635422,-0.07680691366900519,2.8922349563065075,-3.3146633188254166
2.2723887095860986,26.12968563189294,-0.07907829902747618,2.8319894265965706,-3.1524661376782257
2.2579954738549843,25.625164305021837,-0.08084654242935127,2.7738030941934615,-3.0022581081710507
2.2433230996937867,25.130941366173875,-0.0821798371395119,2.7175628930061175,-2.8628235860076217
2.2284445873029157,24.646675939861073,-0.08313696720349648,2.6631640660250318,-2.733096485966976
2.2134230766977523,24.17204532934843,-0.08376870618721054,2.6105093841154523,-2.6121391297553584
2.198313184019074,23.70674372371635,-0.08411899024254914,2.5595084562409567,-2.499124441426482
2.183162143451787,23.250481022030698,-0.08422590494952416,2.510077118044064,-2.3933209070472796
2.1680107853919366,22.802981761491772,-0.08412251793770614,2.462136887944047,-2.2940798260264277
2.152894376275495,22.363984138223607,-0.08383758335608817,2.415614481702209,-2.200824469525756
2.137843341217539,21.933239110863823,-0.08339613951009409,2.370441377850961,-2.113040831662434
2.122883887116856,21.510509578376848,-0.08282001716415845,2.3265534275598485,-2.0302697156163645
2.1080385410090177,21.095569624583604,-0.08212827292293061,2.283890503476203,-1.9520999422280014
2.093326616081743,20.6882038228121,-0.08133755960234562,2.242396182873848,-1.8781625054837163
2.078764615805636,20.288206594854103,-0.08046244346550988,2.202017461103938,-1.8081255292089213
2.0643665850055894,19.895381619084308,-0.07951567653500569,2.1627044918937637,-1.741689903706747
2.0501444153427495,19.509541283178628,-0.07850843082988443,2.124410351502675,-1.678585501078912
2.0361081115451505,19.130506177371203,-0.07745050025454661,2.0870908241354065,-1.618567884403153
2.0222660237774632,18.758104624627975,-0.07635047494198258,2.050704206344874,-1.5614154394982496
2.008625050744692,18.392172244497402,-0.07521589208880862,2.015211128439252,-1.5069268692247388
1.9951908174550674,18.03255154773436,-0.07405336668479494,1.9805743911501175,-1.4549189995798033
1.9819678310024007,17.679091559088477,-0.07286870501150386,1.9467588160263973,-1.4052248545960262
1.9689596172503916,17.33164746590826,-0.07166700334415163,1.9137311081982042,-1.3576919635257014
1.9561688408964006,16.990080290442528,-0.07045273392241531,1.8814597303099176,-1.3121808692115258
1.9435974110481475,16.654256583924532,-0.06922981994706162,1.8499147865567136,-1.2685638110944706
1.931246574153936,16.324048140705564,-0.068001701099735,1.8190679158762462,-1.2267235601399042
1.9191169958771428,15.999331730866214,-0.06677139086463374,1.7888921934498556,-1.1865523861957472
1.9072088332921626,15.679988849877539,-0.06554152674625847,1.759362039757657,-1.147951141031565
1.895521798596083,15.365905484013368,-0.06431441432129202,1.7304531365109235,-1.110828442627235
1.8840552153734387,15.056971890330452,-0.06309206593030982,1.7021423488548137,-1.075099948251843
1.8728080683164787,14.753082390136878,-0.061876234702578935,1.6744076532959853,-1.0406877055537265
1.8617790471872122,14.454135174962477,-0.060668444511494814,1.647228070864044,-1.0075195723174124
1.8509665857072855,14.16003212412895,-0.059470016376582065,1.6205836050640405,-0.9755286967710948
1.840368895975151,13.870678633093377,-0.0582820917582446,1.5944551842201005,-0.944653051381312
1.829983998935051,13.585983451807206,-0.05710565313175434,1.5688246078484658,-0.9148350139763793
1.819809751357373,13.30585853239494,-0.05594154217577849,1.543674496732274,-0.8860209908192817
1.8098438697335433,13.030218885512959,-0.054790475866775525,1.5189882464008486,-0.8581610769229276
1.8000839514395852,12.758982444799965,-0.05365306073275826,1.4947499837435128,-0.8312087494816915
1.7905336927872928,12.492071626818714,-0.05246092429271231,1.470925771603745,-0.8032657209507766
1.7811957980810007,12.229411424989781,-0.051293461332756154,1.447520915384396,-0.7764998046174793
1.7720658442463364,11.970927613511055,-0.050150470163515475,1.4245214343792398,-0.7508482329894165
1.7631394489956125,11.716548429998362,-0.049031699288970255,1.4019139379840146,-0.7262522177864409
1.7544122791061965,11.466204472100578,-0.04793685503787536,1.3796855942135688,-0.7026566572579245
1.7458800574084514,11.219828599601922,-0.04686560827040463,1.3578241002159401,-0.6800098679137789
1.7375385686398734,10.97735584166525,-0.04581760026934991,1.3363176546359687,-0.658263338396385
1.729383664303558,10.738723308895604,-0.044792447911932334,1.3151549316934414,-0.6373715034537697
1.7214112666528818,10.503870109926517,-0.043789748206691875,1.2943250568519795,-0.6172915361814396
1.7136173719099985,10.272737272252982,-0.042809082269788815,1.2738175839650594,-0.5979831568844203
1.705998052813161,10.045267667054596,-0.041850018806184656,1.2536224737947872,-0.5794084570750063
1.698549460576798,9.821405937770393,-0.040912117153404134,1.233730073807444,-0.5615317372678912
1.6912678263385024,9.601098432203553,-0.03999492993877118,1.2141310991574488,-0.5443193573648072
1.6841494621584596,9.384293137949332,-0.03909800539503654,1.1948166147783459,-0.5277395985373922
1.67719076162924,9.170939620953764,-0.038220889374066515,1.1757780185057543,-0.5117625356213056
1.670388200147146,8.960988967023575,-0.03736312709364801,1.1570070251630125,-0.49635991912804184
1.6637383348903612,8.754393726119805,-0.03652426464840559,1.138495651545528,-0.4815050660646642
1.657237804543902,8.551107859278687,-0.035703850312250866,1.1202362022446815,-0.4671727588268847
1.6508833288067024,8.351086688013577,-0.03490143565663409,1.1022212562565532,-0.4533391514984953
1.6446717077120574,8.154286846061257,-0.034116576506088646,1.084443654324797,-0.4399816829509489
1.6385998207889998,7.960666233344664,-0.03334883375010667,1.0668964869707003,-0.4270789961916332
1.6326646260889506,7.770183972032282,-0.03259777402821753,1.0495730831668797,-0.41461086345872966
1.6268631590991207,7.582800364581985,-0.03186297030322599,1.0324669996141964,-0.402558116605077
1.6211925315616016,7.398476853664114,-0.031144002335873677,1.0155720105843529,-0.39090258235367425
1.6156499302148313,7.2171759838651255,-0.030440457072688276,0.998882098293285,-0.37962702204381904
1.6102387105257436,7.039079978273993,-0.02968420613939572,0.9799624082748746,-0.4171454220700008
1.6049591217946493,6.86438019716153,-0.02897789087276384,0.9611462707524896,-0.45587854261719984
1.5998023266368788,6.693058233126781,-0.028319833102462246,0.9424311074113838,-0.4957234199024593
1.594759790207291,6.525096133755643,-0.02770834944851458,0.9238144411568195,-0.5365785776697513
1.5898232809247528,6.36047638363307,-0.02714175369079893,0.90529389353844,-0.578343801207802
1.5849848707971128,6.19918188678659,-0.026618358838534074,0.8868671825335733,-0.6209199126447952
1.5802369353990953,6.041195949496476,-0.026136478917214868,0.8685321206898972,-0.6642085465270167
1.5755721535526224,5.886502263407618,-0.025694430488041337,0.8502866136307514,-0.7081119246656883
1.5709835067565727,5.7350848888772035,-0.025290533912511345,0.8321286589294167,-0.7525326292050838
1.5664642784109222,5.586928238490984,-0.024923114372493442,0.8140563453619281,-0.7973733728250217
1.5620080528785611,5.442017060678776,-0.024590502653740517,0.7960678525515074,-0.8425367649413917
1.5576087144268667,5.3003364233572015,-0.024291035698421493,0.7781614510215403,-0.8879250727087771
1.5532604460903257,5.161871697524219,-0.024023056929810743,0.7603355026782498,-0.9334399755586942
1.5489577284951648,5.026608540725775,-0.02378491634975513,0.7425884617489059,-0.9789823119245471
1.5446953386870654,4.894532880309775,-0.023574970406905614,0.7249188762066471,-1.024451816709079
1.5404683490036608,4.765630896376479,-0.023391581630921112,0.7073253897188558,-1.0697468479407513
1.536272126034638,4.6398890043271415,-0.023233118024889986,0.6898067441626602,-1.1147641009408682
1.532102329713945,4.517293836904226,-0.023097952205028634,0.6723617827586316,-1.159398308182087
1.527954912590899,4.397832225606546,-0.02298446027326242,0.65498945388228,-1.2035419228598419
1.5238261193298985,4.2814911813511,-0.022891020404521293,0.63768881562267,-1.2470847840198203
1.5197124864921125,4.168257874239888,-0.022816011126434603,0.6204590411685935,-1.2899137608856692
1.5156108426569261,4.0581196122743215,-0.022757809264523792,0.6032994251154635,-1.331912373810514
1.5115183089462385,3.9510638188418667,-0.02271478752089579,0.5862093908006807,-1.3729603890329118
1.50743230002097,3.847078008778528,-0.022685311648753252,0.5691884987919772,-1.4129333841524543
1.503350525626502,3.746149762786729,-0.022667737178667175,0.5522364566724582,-1.4517022809533
1.4992709927723364,3.6482666999602777,-0.022660405645396745,0.5353531302881203,-1.4891328418978784
1.4951920086412134,3.5534164481359483,-0.02266164025596758,0.5185385566488924,-1.5250851262926362
1.4911121843344235,3.4615866117542673,-0.022669740930589335,0.5017929587031359,-1.559412901801136
1.487030439573283,3.3727647368695237,-0.022682978637637755,0.4851167622384446,-1.591963006660256
1.4829460084920028,3.2869382729001657,-0.022699588932141784,0.46851061519887655,-1.6225746576631195
1.4788584466746721,3.2040945306547037,-0.022717764593754824,0.45197540975068445,-1.6510786987387347
1.4747676396092075,3.1242206361043685,-0.022735647244740077,0.43551230747527003,-1.6772967848294198
1.4706738127542214,3.047303479300865,-0.022751317810662565,0.41912276811919785,-1.7010404958112548
1.4665775434413466,2.9733296577554142,-0.02276278566572348,0.40280858238581646,-1.7221103755201566
1.4624797748662073,2.902285413502831,-0.02276797628026654,0.38657190930955254,-1.7402948916827936
1.4583818324566824,2.834156562972165,-0.022764717158898558,0.370415318808954,-1.7553693139199704
1.4542854429483665,2.7689284186737453,-0.022750721822390938,0.35434184006237024,-1.7670945092991224
1.4501927565454986,2.7065857015938093,-0.02272357154280857,0.3383550163813642,-1.775215658610781
1.4461063726029337,2.6471124430664084,-0.022680694485689577,0.3224589672564175,-1.7794609022832488
1.4420293693336057,2.590491874775939,-0.022619341840175007,0.30665845819326143,-1.779539933578614
1.4379653381302617,2.536706305445751,-0.02253656041920279,0.2909589788088177,-1.7751425698124823
1.433918423195919,2.4857369827109785,-0.022429161073496337,0.2753668293553295,-1.7659373518215487
1.4298933673136505,2.4375639386919232,-0.022293682062818728,0.25988921530085696,-1.7515702506998232
1.42589556476735,2.3921658179337904,-0.022126346229409958,0.2445343486783933,-1.73166360320465
1.4219311226741465,2.349519686744948,-0.02192301036174064,0.2293115534198508,-1.7058154593909958
1.418006932343561,2.3096008236812757,-0.021679104422543706,0.21423136950982904,-1.6735996168918674
1.414130752799434,2.2723824921882176,-0.021389557178866495,0.19930564707972073,-1.6345667485248345
1.4103113093887674,2.2378356985222005,-0.021048702939651203,0.1845476158760184,-1.5882472212431844
1.4065584116231824,2.205928941462936,-0.020650161122403702,0.16997190700471315,-1.534156478486248
1.4028830963290142,2.1766279656083753,-0.020186675479463994,0.15559449137929832,-1.4718042439276233
1.3992978052762328,2.1498955380278666,-0.019649891773664274,0.141432481737484,-1.4007093327533606
1.3958166114628723,2.1256912797041103,-0.019030039485897394,0.12750372185981773,-1.3204225429695207
1.3924555163691599,2.103971599395525,-0.018315461555352325,0.11382605934669068,-1.2305609051393607
1.389232853719021,2.0846897983333257,-0.017491901223965496,0.10041617467772909,-1.1308573066409966
1.3861698566799194,2.0677964369058692,-0.016541399210498756,0.08728784118290998,-1.0212296430709902
1.3832914798403086,2.053240069975093,-0.015440565674066509,0.07444956915903723,-0.9018719571363175
1.3806276227764487,2.040968442654634,-0.014157846146599384,0.061901845512737294,-0.7733641327662194
1.3782149948819384,2.030930145204639,-0.012649130459068405,0.04963479282053826,-0.6367830753823787
1.3761000375325054,2.0230764681028717,-0.010850395645742833,0.037628286087989724,-0.493774258023313
1.374343751928885,2.0173626293688507,-0.00866388883892776,0.025858810956692353,-0.3465128033587844
1.373030756987527,2.0137462690686476,-0.005924943842826259,0.014322970156676211,-0.1974682514218159
1.37229254951764,2.012176384033644,-0.0022773613781420323,0.0031201968989022152,-0.04892584715069617
