x,y,v_x,v_y,omega
2.375,32.48,0.0,3.128205128205128,-7.142857142857143
2.3736736465200727,31.92317137975694,-0.014737260888080942,3.0587795411621572,-6.720604795866569
2.369876091327724,31.37859844510144,-0.027457796804678858,2.992030843898991,-6.335519569855959
2.363946557940814,30.845815035011938,-0.03842590749432402,2.9277848237621042,-5.983315845895332
2.3561801126139623,30.32438485389173,-0.047867929470696895,2.865883855351365,-5.660298976407813
2.34683394809242,29.81389868316139,-0.05597834299088295,2.806184708319048,-5.363271217098241
2.336132667654646,29.313971953778147,-0.06292477298438431,2.748556729272563,-5.089454659895155
2.324272748206387,28.8242426192416,-0.06885210977404578,2.692880321133526,-4.836427712624566
2.311426325205037,28.344369280835195,-0.0738859235742903,2.6390456611598263,-4.602072453781963
2.2977444143467345,27.874029526240022,-0.07813530818462473,2.586951612119871,-4.384530777369648
2.283359663186609,27.41291844995192,-0.08169526026121263,2.5365047910812586,-4.182167687086251
2.268388708702934,26.960747329649884,-0.08464867844629195,2.4876187678302433,-3.99354043898331
2.252934203175448,26.51724243718141,-0.08706804963688931,2.440213370708372,-3.8173724939444034
2.2370865598250176,26.082143966429058,-0.0890168764790003,2.394214082095555,-3.6525314453823245
2.220925460856103,25.655205063210985,-0.0905508898422747,2.349551509216373,-3.498010247517242
2.204521163401284,25.236190944703758,-0.09171908187793508,2.306160918641693,-3.352911195898059
2.1879356330417727,24.824878097777795,-0.092564588783302,2.2639818249801023,-3.2164322121981597
2.1712235298021447,24.42105354719528,-0.0931254472125625,2.222957625936717,-3.0878550655631245
2.154433067583918,24.024514185907517,-0.09343524410106813,2.1830352772606734,-2.9665352273083845
2.137606764748415,23.63506616075763,-0.0935236762934075,2.14416500218247,-2.8518931079142984
2.12078210085638,23.252524307787795,-0.09341703361809636,2.106300030815753,-2.7434064676242547
2.103992092318218,22.876711632100577,-0.09313861680592897,2.069396365708867,-2.6406038265154312
2.0872657978232203,22.507458827858578,-0.09270909980515292,2.0334125703133608,-2.5430587282382637
2.07062876283337,22.144603834544956,-0.0921468445265169,1.9983095776157571,-2.450384734930063
2.0541034110945913,21.787991426067737,-0.09146817479324434,1.9640505165755686,-2.362231050063239
2.037709389992844,21.437472829685085,-0.09068761522617177,1.930600554342785,-2.2782786819525414
2.0214638756293635,21.09290537206884,-0.08981809992360978,1.897926752504383,-2.1982370739270696
2.0053818426801535,20.754152150117683,-0.08887115506761316,1.8659979358417849,-2.121841138258732
1.989476303416045,20.421081724386944,-0.08785705897803694,1.8347845722775464,-2.0488486402213657
1.9737585196719907,20.093567833224903,-0.08678498262256744,1.804258662856227,-1.9790378864505629
1.9582381910517188,19.771489125900658,-0.08566311315823086,1.7743936407464975,-1.9122056783402748
1.9429236222232058,19.454728913179885,-0.08449876271413481,1.745164278373208,-1.848165496757763
1.927821871790559,19.143174933955954,-0.0832984643152742,1.716546601892716,-1.7867458890543901
1.9129388849096245,18.836719136677257,-0.0820680565839984,1.6885178123150266,-1.7277890333363806
1.8982796115402158,18.535257474430004,-0.08081275863165509,1.6610562126544457,-1.671149458352457
1.8838481119908081,18.23868971264085,-0.07953723636176181,1.6341411405583772,-1.6166929002494435
1.8696476512064124,17.946919248457515,-0.07824566124263696,1.6077529059231193,-1.5642952799214336
1.8556807830725055,17.65985294094928,-0.07694176246743936,1.5818727330573177,-1.513841786798476
1.8419494258534872,17.377400951344192,-0.0756288732994293,1.5564827069991929,-1.4652260567414828
1.8284549297498116,17.099476592587237,-0.07430997229696636,1.5315657236336402,-1.4183494332768163
1.8151981374409443,16.825996187564055,-0.07298772002378139,1.5071054432905884,-1.3731203027548589
1.8021794383792087,16.556878935389555,-0.0716644917732819,1.4830862475372077,-1.3294534951838786
1.7894055118964718,16.292050412390207,-0.07026802470157294,1.4594528968999918,-1.2849105614494614
1.7768814377117512,16.031438625955357,-0.06888835512865596,1.4362336190427785,-1.2422386881606247
1.764604112042684,15.774970286844123,-0.06752637452764476,1.4134145933042561,-1.2013383186638293
1.7525702845263207,15.52257454081403,-0.06618282009861574,1.390982584807897,-1.1621161947414003
1.740776584428084,15.27418286601874,-0.06485829210401294,1.3689249129175585,-1.1244848941439358
1.7292195438981088,15.029728975900902,-0.0635532693401562,1.3472294217250826,-1.0883624066465387
1.7178956185919456,14.78914872722817,-0.062268122950547976,1.3258844524163864,-1.0536717450450814
1.7068012059377384,14.552380032946868,-0.06100312876286446,1.304878817375867,-1.0203405878764338
1.695932661301125,14.319362779551952,-0.05975847831061901,1.2842017759009614,-0.9883009509730896
1.6852863122717785,14.090038748694006,-0.05853428868212087,1.2638430114095511,-0.9574888852529329
1.6748584712712997,13.864351542764204,-0.05733061132319771,1.2437926100327037,-0.9278441984033324
1.6646454466606788,13.64224651421679,-0.05614743990592368,1.2240410404941284,-0.899310198349141
1.6546435525064709,13.423670698405601,-0.05498471736305309,1.2045791351857646,-0.8718334565997935
1.644849117147885,13.208572749726823,-0.05384234217679272,1.1853980723562316,-0.8453635897544407
1.6352584906919043,12.996902880874568,-0.05272017400077007,1.1664893593355021,-0.8198530576084399
1.6258680515501478,12.788612805029103,-0.051618038685411684,1.147844816725206,-0.7952569764517586
1.6166742121192241,12.583655680809784,-0.050535732769296474,1.1294565634894664,-0.7715329462818797
1.6076734236956827,12.381986059835974,-0.04947302749227398,1.1113170028861963,-0.74864089077231
1.5988621807071661,12.183559836749716,-0.048429672380130295,1.0934188091833525,-0.7265429089443122
1.5902370243328816,11.988334201563418,-0.0474053984452549,1.075754915108844,-0.7052031375852946
1.5817945455789362,11.796267594204828,-0.04639992104302797,1.0583184999866058,-0.6845876235435868
1.5735313878673138,11.607319661139694,-0.04541294241944112,1.0411029785148704,-0.6646642051071175
1.5654442491912093,11.421451213960228,-0.04444415398172216,1.0241019901458754,-0.6454024017437077
1.557529883884018,11.238624189834471,-0.04349323832040366,1.0073093890291962,-0.6267733115440963
1.549785104044434,11.05880161371832,-0.04255987100830737,0.9907192344836065,-0.6087495157661437
1.5422148290022863,10.882175251580694,-0.04155429612666422,0.9717959003788819,-0.641763916556052
1.5348207404468823,10.708945633406191,-0.0406022433778262,0.952977634893367,-0.6760660740707087
1.5275933684144998,10.53909408270902,-0.03970189031531393,0.9342618172974159,-0.7115477521859912
1.52052357123672,10.372602385106557,-0.03885141166001616,0.9156459338410532,-0.7481023343799622
1.5136025358427903,10.20945276930609,-0.03804898160587084,0.8971275750530204,-0.7856245836490723
1.506821777674074,10.049627888542794,-0.03729277582430684,0.8787044334280228,-0.8240104041915911
1.5001731402632137,9.893110802399054,-0.03658097318525256,0.8603743015024342,-0.8631566038025363
1.4936487945276324,9.739884958934873,-0.03591175721009464,0.8421350703218042,-0.902960655905235
1.4872412378244604,9.5899341770583,-0.0352833172695964,0.8239847283067824,-0.9433204601169557
1.4809432928118271,9.44324262906321,-0.03469384953743959,0.8059213605275584,-0.9841341002093619
1.4747481061597636,9.299794823259667,-0.03414155770771089,0.7879431484006855,-1.0252995982783524
1.4686491471526633,9.159575586619244,-0.033624653482293175,0.7700483698262504,-1.0667146638815734
1.4626402062244024,9.022570047353977,-0.033141356831714826,0.7522353997878487,-1.1082764368348317
1.4567153934668002,8.88876361734322,-0.032689896030532115,0.7345027114427964,-1.1498812222800379
1.4508691371521358,8.75814197431717,-0.03226850746574054,0.716848877735533,-1.1914242165463391
1.4450961823109592,8.630691043699368,-0.03187543521399996,0.6992725735733571,-1.2327992222218414
1.4393915894074467,8.506396980002815,-0.03150893038058135,0.6817725786105818,-1.2738983507348653
1.4337507331561068,8.38524614766531,-0.031167250189862262,0.6643477806950334,-1.3146117106100652
1.4281693015257706,8.267225101199184,-0.03084865681387242,0.6469971800396949,-1.3548270794150923
1.4226432949795624,8.152320564518298,-0.030551415921774194,0.6297198941923612,-1.3944295572470586
1.4171690260029746,8.0405194092911,-0.03027379492920332,0.6125151638876317,-1.4333011994243352
1.411743118976363,7.931808632152141,-0.03001406092203544,0.5953823598786069,-1.4713206258481357
1.4063625104531914,7.82617533058562,-0.02977047822431818,0.5783209908605269,-1.5083626042804652
1.4010244499112758,7.723606677272773,-0.0295413055747422,0.5613307126155364,-1.5442976045519625
1.395726501051246,7.624089892669939,-0.02932479287003202,0.5444113385270642,-1.5789913204680255
1.3904665437245205,7.527612215555422,-0.029119177426919957,0.527562851634259,-1.6123041559297078
1.385242776582485,7.434160871250377,-0.028922679706807213,0.5107854184218131,-1.6440906715357317
1.3800537205493915,7.343723037181238,-0.02873349843867757,0.49407940456862093,-1.6741989876967
1.3748982232339577,7.25628580540814,-0.028549805066142884,0.47744539291026306,-1.7024701400919604
1.3697754644089937,7.17183614169473,-0.02836973743345858,0.4608842039054159,-1.7287373831627475
1.3646849627048405,7.090360840639104,-0.028191392612687303,0.4443969189348571,-1.7528254373048322
1.3596265836813377,7.011846476322663,-0.028012818759565253,0.4279849068033752,-1.7745496755617403
1.354600549464805,6.936279347863081,-0.027832005868574594,0.4116498538586386,-1.7937152460148045
1.3496074501616488,6.863645419179139,-0.027646875277604087,0.395393798185144,-1.8101161268469912
1.344648257289302,6.7939302521889395,-0.027455267748473726,0.37921916837262154,-1.8235341124074576
1.3397243394991238,6.727118932570164,-0.02725492992017164,0.36312882739156876,-1.8337377307867133
1.3348374809057666,6.6631959871136175,-0.02704349889490825,0.34712612212563165,-1.8404810968060519
1.3299899023849246,6.60214529160346,-0.026818484670002644,0.3312149390983486,-1.843502709471787
1.3251842862586396,6.543949968066293,-0.026577250066498803,0.31539976687015336,-1.842524210623358
1.3204238048577692,6.488592270158417,-0.02631698772094915,0.29968576543959535,-1.8372491328333962
1.3157121535399239,6.436053455424641,-0.02603469358844354,0.28407884271347533,-1.8273616812061166
1.3110535888558774,6.386313643192551,-0.02572713623429431,0.2685857376430827,-1.8125256178804712
1.3064529727102558,6.33935165700802,-0.025390820939279198,0.25321410885168805,-1.7923833530956879
1.3019158235721995,6.295144850840398,-0.025021947261345826,0.2379726263441002,-1.766555397365825
1.2974483760889604,6.253668918892956,-0.024616358107978468,0.22287106196082948,-1.7346404023765851
1.293057650888516,6.214897689901019,-0.024169477452512272,0.20792037128293334,-1.6962161231105917
1.2887515370044653,6.178802908514054,-0.023676232370274875,0.19313275523887335,-1.650841783383554
1.2845388903441493,6.1453540090655,-0.02313095274434895,0.17852168307838115,-1.598062538520626
1.2804296531539503,6.114517891190044,-0.022527238257861775,0.16410184887113904,-1.5374170232563373
1.276435001845072,6.086258712953061,-0.02185777628522832,0.1498890204286587,-1.468449371921212
1.272567534361123,6.060537726130168,-0.02111408464753984,0.13589972204791584,-1.3907276145879794
1.2688415143429028,6.037313190702029,-0.020286137777128146,0.12215067159804821,-1.3038709662832824
1.2652731990049717,6.016540421710445,-0.019361810422106975,0.10865787275290613,-1.2075891249897264
1.2618812929292178,5.998172039973102,-0.018326034864048203,0.09543525766203129,-1.1017369581069714
1.258687594015976,5.982158513469091,-0.017159508616416064,0.08249281460475241,-0.9863871463029823
1.2557179354853831,5.968449074846728,-0.015836697279060005,0.06983428119930633,-0.8619200093084011
1.2530035879004047,5.956993053498916,-0.014322720331812557,0.05745484488749277,-0.7291215150249606
1.2505833891804587,5.947741515097174,-0.01256837655647467,0.04534002624295599,-0.5892649040047617
1.2485070893261911,5.940648771082326,-0.010501621824275975,0.033468240588694104,-0.4441291254087797
1.2468410120016218,5.935672640740663,-0.008010348448716684,0.021822096540917883,-0.2958882432280303
1.2456795288287215,5.932770639956004,-0.004895020139063652,0.010422356621951501,-0.14681065912138125
1.245181263034692,5.931880077039597,-0.0006412664612638723,-0.000527213106332948,0.0011850178366324404
