x,y,v_x,v_y,omega
2.375,32.48,0.0,3.8974358974358974,-2.612244897959184
2.374286935077507,31.749491933920826,-0.007505946552556516,3.7921226928711733,-2.414430324866386
2.3722722638349465,31.038510222138683,-0.013701119158610168,3.6918953258882135,-2.2392857160485615
2.3691840668457442,30.346124506669383,-0.01880621756983215,3.5963753632623225,-2.08348267312566
2.3652123009403945,29.671472779501098,-0.023001844591742898,3.505221764824899,-1.944265491341588
2.360515662505022,29.013754720037166,-0.026436454727969724,3.4181262295322608,-1.8193400289802142
2.355227103208567,28.372225849446433,-0.029232590497871882,3.334809250370179,-1.706786389300486
2.3494582856592996,27.74619237957088,-0.031491804757574245,3.2550167483198607,-1.6049898568059187
2.3433032002585086,27.13500665603062,-0.03329856788233132,3.1785171836829127,-1.5125859294633384
2.3368411146650536,26.5380631124902,-0.03472338573298449,3.1050990641109775,-1.4284163106005363
2.3301389894827267,25.95479466685374,-0.035825300396774284,3.034568784693846,-1.3514934772262934
2.3232534649226695,25.384669501267382,-0.0366539054985638,2.9667487477941368,-1.280972000891737
2.3162325010184137,24.82718817683327,-0.03725097770412878,2.901475719933344,-1.2161252159718565
2.309116736829676,24.28188104133136,-0.037651803229953755,2.838599390613098,-1.1563261460232612
2.3019406207445052,23.748305894344334,-0.03788626082447306,2.777981103987188,-1.1010318386296358
2.2947333535724317,23.226045879246968,-0.037979709407878696,2.7194927391429715,-1.04977044236293
2.2875196779366136,22.714707575754648,-0.03795371833757547,2.663015718670909,-1.0021305003602323
2.2803205410106275,22.21391927028316,-0.03782667035701667,2.608440128397384,-0.9577520439633335
2.2731536525190967,21.723329384376328,-0.03761426113278012,2.555663933779813,-0.9163191545943024
2.2660339558364,21.242605044007384,-0.03732991447455278,2.5045922806301015,-0.8775537282809136
2.258974026748653,20.771430774732448,-0.03698512855436364,2.455136869632378,-0.8412102292969964
2.251984411817277,20.309507309533128,-0.036589765460120625,2.407215395623617,-0.8070712604833472
2.245073916163256,19.856550497781583,-0.03615229405589183,2.360751043866318,-0.7749438104201642
2.2382498487750304,19.41229030513685,-0.03567999424121594,2.315672036604579,-0.7446560636039811
2.231518232048163,18.97646989537052,-0.03517912919949887,2.271911224093576,-0.716054680575557
2.224883981127249,18.548844786151335,-0.034655091020646296,2.2294057150557895,-0.6890024716553836
2.2183510576895475,18.129182071715075,-0.03411252411305198,2.1880965421679837,-0.6633764014259937
2.211922602045357,17.717259706128864,-0.03355543003632007,2.1479283587394913,-0.6390658720205623
2.2056010468005924,17.31286584154272,-0.03298725675067905,2.108849163219924,-0.615971242155283
2.199388214806873,16.91579821642121,-0.03241097476215489,2.0708100485854506,-0.5940025460866319
2.1932854036934977,16.525863589274874,-0.0318291422207429,2.0337649740075614,-0.5730783826053717
2.187293458917595,16.142877213875202,-0.031243960683496462,1.9976705565153101,-0.5531249490513201
2.1814128369704266,15.766662352346543,-0.03065732297090624,1.9624858806284762,-0.5340751993485372
2.1756436601286033,15.397049822890605,-0.030070854311446175,1.9281723241708864,-0.5158681083807066
2.169985763930264,15.03387757922022,-0.029485947776335085,1.8946933986752614,-0.4984480277800128
2.164438738381058,14.67699031906415,-0.02890379484688659,1.8620146029675935,-0.4817641204932036
2.1590019637473006,14.326239119358217,-0.028325411824245552,1.830103288673784,-0.465769863399215
2.1536746416693067,13.981481095964135,-0.027751662680954064,1.7989285365270669,-0.4504226088511115
2.148455822222754,13.642579085959017,-0.027183278861701826,1.7684610424741751,-0.4356831973558821
2.143344427466852,13.309401350719043,-0.026620876463585706,1.7386730126834506,-0.4215156147333028
2.1383392719424577,12.981821298182268,-0.026064971161618145,1.70953806665101,-0.40788668804596756
2.1334390805189636,12.659717222820515,-0.02551599119095076,1.6810311476832538,-0.3947658153964173
2.128642503933924,12.342972061980458,-0.024974288651570857,1.653128440106817,-0.3821247253684674
2.123948132322573,12.031473167371253,-0.024440149362651074,1.6258072926216733,-0.36993726246844033
2.119354506994316,11.72511209058149,-0.023913801461105777,1.5990461472705522,-0.3581791954146338
2.114860130678941,11.423784381603635,-0.023395422911258575,1.5728244735489643,-0.3468280455437189
2.1104634764358123,11.127389399430037,-0.022885148069048268,1.5471227072257538,-0.33586293296226
2.1061629953939507,10.835830133862533,-0.022383073424228333,1.5219221934848162,-0.3252644383796507
2.101957123469085,10.549013037748146,-0.02188926262699285,1.497205134035061,-0.31501447882337114
2.0978480092030454,10.26684814888338,-0.021364571752371393,1.472951590857223,-0.3040416326737681
2.0938373636543557,9.989248643787324,-0.02085274981278077,1.449148462785485,-0.29355072439977564
2.0899227649528944,9.716130418334213,-0.02035355230786369,1.4257802261946417,-0.28351504211849277
2.0861018387799626,9.44741225331212,-0.01986672319668231,1.4028320371958347,-0.27390963442253424
2.082372260300521,9.183015688827151,-0.01939199763954376,1.38028969422489,-0.26471117587652143
2.0787317556107023,8.922864905583985,-0.018929104358551895,1.3581396030715744,-0.2558978441615027
2.075178102768356,8.666886612596478,-0.01847776766614436,1.3363687441653367,-0.24744920774219697
2.07170913246565,8.415009940915628,-0.018037709204446584,1.3149646419488836,-0.23934612305163286
2.0683227283951195,8.167166342992886,-0.017608649432715822,1.2939153361852243,-0.23157064029355734
2.0650168273539546,7.923289497324898,-0.017190308895336303,1.2732093550567394,-0.22410591705665558
2.061789419125525,7.683315218051483,-0.016782409298655973,1.2528356899265602,-0.21693613901765618
2.058638546172126,7.447181369202358,-0.016384674421337102,1.2327837716431727,-0.21004644708410386
2.0555623031685224,7.214827783309769,-0.015996830879750745,1.213043448278828,-0.2034228703930943
2.052558836402061,6.9861961841241715,-0.015618608767213606,1.1936049642011322,-0.19705226464056924
2.0496263430617443,6.761230113188471,-0.015249742183489194,1.1744589403851828,-0.19092225526772072
2.046763070435767,6.5398748600431915,-0.014889969668905502,1.155596355880915,-0.18502118507740484
2.0439673150344353,6.322077395850592,-0.014539034555637544,1.1370085303569655,-0.17933806589486137
2.041237421653172,6.10778631024008,-0.014196685247129543,1.1186871076484388,-0.17386253392406079
2.0385717823883454,5.896951751190535,-0.013862675435257932,1.1006240402415055,-0.1685848084841425
2.0359688356169503,5.689525367777474,-0.013536764263636335,1.082811574632835,-0.16349565384011694
2.0334270649496857,5.485460255624236,-0.013218716444414646,1.0652422375065183,-0.15858634386865847
2.0309449981656407,5.284710904906955,-0.01290830233500667,1.0479088226753837,-0.15384862932376023
2.028521206135679,5.087233150772729,-0.012605297980377525,1.030804378737523,-0.14927470748854962
2.0261543017405903,4.892984126039433,-0.012309485125818552,1.01392219740242,-0.14485719401894345
2.0238429387892083,4.701922216053987,-0.012020651204521048,0.9972558024443708,-0.14058909680228113
2.021588243723466,4.5142016200650765,-0.01171298106645152,0.9787504711231062,-0.17696548238740098
2.0193885503189724,4.3299869968750535,-0.01144168634926801,0.9603508256139915,-0.2146719721677119
2.017237035716719,4.1492585249269744,-0.011205835779714166,0.9420541422605394,-0.25360833954733686
2.0151270578959806,3.971996890423835,-0.011004457070165188,0.9238577998777647,-0.29367609190420463
2.013052163033557,3.7981832681562793,-0.010836541481662873,0.9057592766228358,-0.33477825563001384
2.0110060920366566,3.627799302892342,-0.010701047959391445,0.8877561472080909,-0.3768191633816097
2.0089827863280743,3.460827091264566,-0.01059690686779164,0.8698460804527062,-0.41970424264313483
2.006976392957426,3.297249164090239,-0.010523023349558609,0.8520268371717835,-0.46333980468256275
2.0049812691078754,3.1370484690605203,-0.010478280329920781,0.8342962684042181,-0.5076328329630888
2.0029919860639747,2.9802083537336905,-0.010461541184826091,0.8166523139834516,-0.5524907700388811
2.0010033327029664,2.8267125487667393,-0.01047165208894306,0.7990930014581488,-0.5978213019253458
1.9990103185691313,2.6765451513177787,-0.010507444056690466,0.7816164453730032,-0.6435321388856713
1.9970081765884986,2.5296906085496254,-0.01056773468681304,0.7642208469233355,-0.689530791517243
1.9949923654795136,2.3861337011618176,-0.010651329618292496,0.7469044940009432,-0.7357243409526558
1.9929585719140295,2.2458595268747032,-0.010757023702592341,0.7296657616528796,-0.7820192019095146
1.9909027124823202,2.1088534837846247,-0.010883601894347585,0.7125031129795385,-0.8283208772298183
1.988820935515696,1.9751012535037162,-0.011029839859590619,0.6954151005037095,-0.8745337024422098
1.9867096228207808,1.8445887839912807,-0.011194504297411999,0.6784003680482334,-0.9205605787572619
1.9845653913806098,1.7173022719758642,-0.011376352967545853,0.6614576531666676,-0.966302692765678
1.9823850950794868,1.593228144858017,-0.011574134412695072,0.644585790179086,-1.0116592209500588
1.9801658265110413,1.4723530419729762,-0.011786587360416679,0.6277837138739778,-1.0565270169408436
1.9779049189322255,1.3546637950799507,-0.012012439785011339,0.6110504639473363,-1.1008002792442046
1.9755999484301714,1.2401474079300918,-0.012250407605033611,0.5943851902616923,-1.144370196942037
1.9732487363739584,1.1287910347482075,-0.012499192986682674,0.5777871590212817,-1.1871245706097882
1.9708493522295745,1.0205819574435537,-0.01275748221735795,0.5612557599750552,-1.2289474054149545
1.9684001168237635,0.9155075613420927,-0.013023943106968618,0.5447905147771767,-1.2697184730463182
1.9658996061512313,0.8135553092059986,-0.013297221867054426,0.52839108665541,-1.309312838780843
1.9633466558299801,0.7147127132753646,-0.013575939409274318,0.5120572915617978,-1.347600349622339
1.9607403663215555,0.6189673050312514,-0.01385868699519554,0.4957891110077975,-1.3844450790462726
1.9580801090469646,0.5263066023377938,-0.014144021158391057,0.47958670681808824,-1.419704723464312
1.9553655335452127,0.43671807357302583,-0.014430457807418784,0.4634504380741723,-1.4532299450909274
1.9525965758401216,0.3501890983026641,-0.014716465404066369,0.44738088056124786,-1.4848636554701908
1.94977346820271,0.2667069239867317,-0.015000457095004218,0.43137884908014806,-1.514440233531869
1.9468967505213326,0.18625861813524125,-0.01528078165633616,0.4154454230408218,-1.541784671735284
1.943967283520524,0.10883101524393624,-0.015555713089018727,0.39958197581498667,-1.566711643693178
1.9409862641026425,0.03441065774419627,-0.015823438678152592,0.38379020839281347,-1.5890244867449
1.9379552431247224,-0.03701626990937257,-0.016082045299954176,0.3680721879605124,-1.608514093416252
1.934876145967284,-0.10546401501414238,-0.016329503725714723,0.3524303920897059,-1.624957706781162
1.9317512963034242,-0.1709473393961929,-0.016563650630703954,0.336867759300303,-1.6381176167518712
1.9285834435367861,-0.23348161247735533,-0.0167821679654855,0.32138774681716215,-1.6477397577481114
1.925375794448087,-0.29308291608031567,-0.016982559283980583,0.30599439637193065,-1.6535522137389302
1.9221320496746803,-0.3497681625792666,-0.01716212254135295,0.29069240888018405,-1.6552636453590401
1.9188564457504251,-0.40355522815036693,-0.01731791876659575,0.27548722871031306,-1.6525616672226557
1.9155538035604,-0.4544631029869848,-0.017446735865246445,0.2603851379909061,-1.6451112239855987
1.912229584226841,-0.5025120603794875,-0.017545046593268394,0.24539336087753014,-1.632553044543041
1.9088899536551727,-0.5477238464552059,-0.017608959424293625,0.23052017676160064,-1.6145023000398657
1.9055418572583227,-0.5901218920296856,-0.017634160542548835,0.21577503981184953,-1.5905476605770335
1.9021931067868836,-0.6297315472760161,-0.017615844419968527,0.20116869962319464,-1.5602510486073353
1.8988524817943466,-0.6665803385276732,-0.01754862918568427,0.18671331355213805,-1.5231485400337972
1.8955298491824288,-0.7006982441139371,-0.017426450939765494,0.17242253472434008,-1.478753089828694
1.892236305708214,-0.7321179821204282,-0.01724242773617897,0.15831154955449336,-1.4265600891361818
1.8889843506445994,-0.7608752965519372,-0.016988678196607602,0.1443970234087482,-1.3660572359682608
1.885788099568369,-0.7870092184283166,-0.016656069974239872,0.13069689107948482,-1.2967408668085816
1.8826635565246674,-0.8105622634806053,-0.01623385680156421,0.11722989894459057,-1.2181417819478526
1.8796289722976804,-0.8315805070124611,-0.015709135061457487,0.10401476981176677,-1.129864663391144
1.8767053340549829,-0.8501134489675479,-0.015066004335359037,0.09106882971549754,-1.031646184570108
1.8739170608966762,-0.8662135520321783,-0.014284239436291094,0.078405939385896,-0.9234370961888754
1.871293028490007,-0.8799353165804504,-0.013337154318122746,0.06603368743800009,-0.8055111400964863
1.8688681274651298,-0.8913337843894382,-0.012188119627951046,0.053950184235518325,-0.6785950286996182
1.8666857041355094,-0.9004625149046959,-0.010784757525946756,0.042141715925063106,-0.543993682385139
1.8648015301552618,-0.9073714938216071,-0.00904865279244844,0.03058437793712636,-0.4036503687307659
1.8632907799573357,-0.9121063813168746,-0.006853980869933895,0.019256543065700252,-0.2600427242327863
1.862262908222481,-0.9147130115813553,-0.003965721602217698,0.008181670244657649,-0.11580741346757628
