x,y,v_x,v_y,omega
2.375,32.48,0.0,3.846153846153846,-2.36734693877551
2.374362207140851,31.758997508704496,-0.006713609043669912,3.7433460622198265,-2.1902780440530445
2.372559017174022,31.057063323524574,-0.012267337975584679,3.645434834410952,-2.033240589734065
2.369792459052029,30.373301233488842,-0.016854326466445364,3.5520608501756947,-1.8933291854667362
2.3662311624437873,29.70687997802758,-0.020633006251893828,3.462899733627052,-1.7681324638484417
2.3620163056528005,29.057027014073117,-0.02373390733743654,3.3776577816830815,-1.655638333752758
2.357266408140844,28.423023033073292,-0.02626501384105486,3.2960683341045685,-1.5541592978065626
2.3520812115278464,27.804197118190476,-0.02831600313786848,3.2178886646619267,-1.4622732065337503
2.346544837367142,27.199922451139066,-0.02996161960638702,3.142897304300263,-1.3787759727924405
2.340728368011068,26.60961249334817,-0.03126437361544108,3.0708917250776024,-1.3026436146268843
2.3346919649389677,26.03271757836292,-0.03227671135403877,3.001686327398712,-1.2330016195012738
2.3284866144556324,25.468721862303703,-0.03304276741791124,2.9351106837509295,-1.1691000888969465
2.3221555718153906,24.917140587295705,-0.03359978668989915,2.8710080005437915,-1.1102934724092113
2.3157355602129206,24.377517619443864,-0.033979282809784496,2.809233766317714,-1.0560239654309378
2.30925776969036,23.849423228450895,-0.034207985848750296,2.749654559924072,-1.0058078463218478
2.3027486920836906,23.332452080582136,-0.034308620537243255,2.6921469965891545,-0.9592241836489062
2.2962308211011173,22.826221420544428,-0.03430054770036775,2.6365967932814347,-0.9159054633572967
2.289723241062697,22.330369421103605,-0.03420029480932228,2.582897937674639,-0.8755297782234875
2.283242123407563,21.844553682024596,-0.03402199629735293,2.53095194736752,-0.8378142940549165
2.276801146543431,21.368449862266115,-0.03377776016718998,2.4806672079849297,-0.8025097636167439
2.2704118517811573,20.901750431367507,-0.03347797417253315,2.431958380421461,-0.7693959037784034
2.2640839458171373,20.444163527685795,-0.033131562290835026,2.3847458688597354,-0.738277486597809
2.2578255583835865,19.99541191262099,-0.03274620016759814,2.33895534234871,-0.7089810230642207
2.2516434621917836,19.555232011246197,-0.03232849658821931,2.2945173037017583,-0.681351940580466
2.2455432610762394,19.123373030865963,-0.03188414673329729,2.2513667003007276,-0.6552521731943092
2.2395295512533546,18.699596149988295,-0.031418061928650584,2.209442572095746,-0.6305580980237819
2.233606059793046,18.283673771033506,-0.03093447975880532,2.1686877326915313,-0.6071587629888395
2.2277757637315263,17.875388830834837,-0.030437057730877938,2.1290484799260376,-0.5849543604281382
2.2220409927004954,17.47453416362681,-0.02992895312207753,2.090474332790039,-0.5638549088884356
2.21640351749057,17.08091191177955,-0.02941289119292821,2.052917791917987,-0.5437791116737013
2.2108646265871807,16.694332980032343,-0.028891223579590102,2.0163341212105075,-0.524653365906711
2.2054251924013655,16.31461652941602,-0.028365978376360373,1.9806811484349698,-0.506410900105841
2.2000857286543796,15.941589507439279,-0.027838903170859353,1.9459190828991604,-0.48899102178754783
2.1948464401546532,15.575086211455442,-0.027311502089416174,1.91201034850963,-0.47233845950923814
2.189707266020797,15.214947882429069,-0.02678506774065027,1.8789194307153594,-0.45640278617902547
2.1846679172489902,14.861022326590842,-0.026260708804682457,1.8466127360028173,-0.4411379124675869
2.179727909392183,14.513163562708986,-0.025739373898551923,1.8150584627535562,-0.4265016408351164
2.174886591007974,14.171231492919116,-0.025221872251019007,1.7842264824029552,-0.4124552720916094
2.170143168438464,13.835091595245494,-0.0247088916385579,1.7540882299509473,-0.3989632575888471
2.165496727406013,13.504614636117573,-0.024201013966191134,1.724616602974552,-0.3859928911361275
2.160946251841362,13.179676401338938,-0.023698728819607946,1.69578586837952,-0.3735140355706037
2.156490640303146,12.86015744410333,-0.02320244526687712,1.6675715762058272,-0.3614988796229207
2.1521287202987818,12.545942848776082,-0.02271250214748245,1.6399504798704405,-0.34992172132097926
2.1478592607748195,12.236922009270671,-0.022229177052119544,1.6129004622917695,-0.33875877468663074
2.1436809830089403,11.932988420950476,-0.021752694167660923,1.5864004673944976,-0.3279879969164221
2.139592570104991,11.634039485076524,-0.021283231137066906,1.5604304365418435,-0.3175889336101721
2.135592675265977,11.33997632490393,-0.020820925063084843,1.5349712494854688,-0.3075425799301494
2.1316799289971424,11.050703612603936,-0.020365877766750935,1.51000466946182,-0.2978312558472495
2.1278529453716337,10.766129406255732,-0.01991816039649854,1.4855132920982228,-0.28843849386576914
2.124113566436307,10.486165231040001,-0.0194437231332573,1.4614780259621147,-0.27843673154029364
2.1204632391864764,10.210725685179305,-0.018980774233379988,1.4378856146767762,-0.26887176552000225
2.116899800860791,9.93972806934675,-0.018529102879096152,1.4147208677711807,-0.25971951287747896
2.113421129798595,9.67309250758382,-0.01808848724928202,1.391969256049124,-0.250957469434271
2.110025147293271,9.410741825096991,-0.01765869701728557,1.36961687539119,-0.2425645897756637
2.1067098190035938,9.152601432708835,-0.017239495505638268,1.3476504129051892,-0.23452117760180372
2.1034731559841027,8.898599217534223,-0.016830641541635563,1.3260571152486145,-0.22680878542192956
2.100313215387701,8.648665439484244,-0.016431891052065672,1.3048247589616826,-0.21941012270357765
2.097228100886864,8.402732633229888,-0.0160429984304302,1.2839416226631146,-0.21230897168161417
2.094215962853929,8.160735515284447,-0.01566371770572343,1.2633964609731272,-0.20549011011431786
2.0912749983357637,7.922610895888269,-0.015293803538127022,1.243178480039272,-0.19893924034680457
2.0884034508535847,7.688297595402201,-0.01493301206375566,1.2232773145509053,-0.19264292410698702
2.085599610054788,7.457736364936821,-0.014581101607789027,1.20368300613729,-0.18658852251698543
2.0828618112401736,7.230869810963771,-0.014237833282889417,1.1843859830527181,-0.18076414085430278
2.0801884347869692,7.0076423236730925,-0.013902971487682818,1.1653770410596846,-0.1751585776429075
2.0775779054854073,6.788000008856752,-0.013576284318232237,1.1466473254281104,-0.1697612776952741
2.075028691804312,6.571890623113461,-0.013257543903818971,1.1281883139749675,-0.16456228876299334
2.0725393050991405,6.359263512183766,-0.012946526676939248,1.1099918010744672,-0.15955222148627438
2.0701082987741426,6.1500695522371345,-0.01264301358619323,1.092049882574282,-0.15472221236196618
2.067734267408786,5.944261093944554,-0.012346790259667463,1.0743549415581308,-0.15006388947600052
2.065415845857198,5.741791909181078,-0.012057647125470503,1.0568996348995068,-0.14556934076975017
2.063151708328229,5.542617140212862,-0.01177537949525721,1.039676880555403,-0.14123108463099554
2.060940567452673,5.3466932512325975,-0.01149978761585508,1.0226798455526436,-0.13704204261926536
2.058781173343287,5.153977982115926,-0.011230676693473026,1.0059019346228508,-0.13299551415249272
2.056672312652437,4.964430304279457,-0.010967856894417729,0.989336779445251,-0.129085152997411
2.05461503580553,4.778209350977544,-0.010687688862498362,0.9708837816275203,-0.1666817283109058
2.0526075519166826,4.595484571255543,-0.010443720493793208,0.952534952288283,-0.20555089281894412
2.050643074898421,4.4162364265187755,-0.01023498496159262,0.9342876238882107,-0.24559383947962266
2.0487150059263466,4.240445875478471,-0.010060477902346432,0.9161392291676371,-0.2867133802280255
2.046816940163959,4.068094355378829,-0.009919161701735924,0.8980872981970368,-0.3288137334471663
2.0449426727120397,3.899163763752444,-0.009809969371095795,0.8801294557649252,-0.3718003131947139
2.043086203858014,3.7336364406402147,-0.009731808039702378,0.8622634191006372,-0.4155795192833507
2.041241743696114,3.571495151212119,-0.009683562085562805,0.8444869959319516,-0.46005852729326036
2.0394037161851535,3.4127230687249686,-0.009664095924548135,0.8267980828801662,-0.5051450775683296
2.0375667627071974,3.2573037577525383,-0.009672256474986147,0.8091946641980331,-0.550747262212664
2.0357257451874204,3.105221157622122,-0.00970687531214014,0.7916748108589788,-0.5967733090603721
2.0338757488329566,2.956459565989636,-0.009766770524321858,0.7742366800093039,-0.6431313615385448
2.0320120845465754,2.8110036224828825,-0.009850748279690826,0.7568785147986403,-0.6897292532801373
2.03013029106955,2.6688382923392595,-0.009957604110049305,0.7395986446079019,-0.7364742762690808
2.028226136907159,2.5299488499601637,-0.010086123915119078,0.7223954856983666,-0.7832729412133388
2.026295622089877,2.394320862299324,-0.010235084687848884,0.7052675423104601,-0.8300307287415353
2.0243349798235015,2.261940171996425,-0.010403254958211169,0.6882134082463673,-0.8766518299038307
2.0223406780822537,2.132792880160217,-0.010589394949662151,0.6712317689768932,-0.9230388743263732
2.0203094212003387,2.006865328696996,-0.010792256438913404,0.6543214043201521,-0.9690926442191878
2.018238151519587,1.884144082070538,-0.011010582305844462,0.6374811917478449,-1.0147117722679486
2.016124051153691,1.7646159083679898,-0.011243105756216122,0.6207101103842542,-1.0597924212487106
2.013964543933301,1.6482677595329704,-0.011488549195257741,0.60400724577386,-1.1042279429893007
2.0117572976008646,1.535086750611395,-0.011745622725124744,0.5873717955058889,-1.1479085140595813
2.0095002263297888,1.4250601378374839,-0.012013022233570909,0.5708030757984344,-1.1907207453032085
2.007191493649288,1.3181752953663057,-0.012289427034858011,0.5543005291613484,-1.232547262024074
2.004829515864378,1.214419690434731,-0.012573497016824142,0.5378637332762692,-1.2732662513101303
2.0024129660699774,1.1137808567043237,-0.01286386924002638,0.5214924112543391,-1.3127509726154762
1.9999407788692218,1.0162463655066638,-0.01315915392581981,0.5051864434578556,-1.3508692273296419
1.997412155919072,0.9218037946734938,-0.013457929759967216,0.4889458811018127,-1.387482782644544
1.9948265724413388,0.83044069458969,-0.01375873842669895,0.4727709618855979,-1.4224467445918427
1.992183784854693,0.7421445510558193,-0.014060078274833993,0.45666212794462074,-1.4556088746790996
1.9894838397033594,0.6569027444876703,-0.014360397002362323,0.4406200464569412,-1.486808844123142
1.9867270840814322,0.5747025049115635,-0.014658083228450766,0.42464563329156857,-1.5158774192963949
1.9839141777785612,0.4955308621352472,-0.014951456801770365,0.40874008014335417,-1.5426355717175486
1.9810461074036625,0.4193745903835193,-0.015238757670848199,0.3929048856642945,-1.5668935058090052
1.9781242027789914,0.3462201465840735,-0.015518133115162744,0.3771418911719544,-1.5884495978259643
1.975150155938167,0.2760536013716077,-0.015787623104042102,0.3614533215908802,-1.6070892400084926
1.9721260431095624,0.20886056174639123,-0.016045143512846517,0.34584183235877286,-1.6225835853748627
1.9690543501221833,0.14462608417786527,-0.01628846688061887,0.330310563099383,-1.6346881910415891
1.9659380017364463,0.08333457678626388,-0.016515200337665625,0.3148631989174483,-1.6431415620849463
1.962780395479553,0.024969689071156154,-0.0167227602612098,0.29950404018898513,-1.647663604582267
1.9595854406577942,-0.03048581250570237,-0.016908343125725978,0.2842380816726763,-1.6479540068216132
1.9563576033311911,-0.08305018491722649,-0.01706889189114838,0.2690711016065056,-1.6436905835738913
1.953101958177097,-0.1327428668744659,-0.017201057099316804,0.2540097611013056,-1.6345276424973139
1.9498242483508827,-0.1795846569595625,-0.01730115159767368,0.239061713478633,-1.6200944682242262
1.9465309546932106,-0.22359791333344958,-0.017365097430454286,0.22423572203595754,-1.5999940744535535
1.9432293759666963,-0.26480677628969573,-0.01738836284864306,0.20954178276659693,-1.5738024563032664
1.9399277222833495,-0.3032374139628118,-0.017365886449744152,0.1949912453714548,-1.541068697300438
1.9366352245977096,-0.33891828975004756,-0.017291983925411893,0.1805969208099394,-1.5013164666188237
1.9333622642411197,-0.37188044701677114,-0.017160230354484017,0.16637315568186464,-1.4540477093206527
1.9301205282191813,-0.4021578017560117,-0.0169633067185501,0.15233584157326321,-1.398749721744858
1.926923198829833,-0.42978742610387854,-0.01669279211669489,0.13850230945690029,-1.3349073608200301
1.923785190839329,-0.4548097936983666,-0.01633887094124203,0.1248910336429496,-1.26202290479685
1.9207234572609377,-0.4772689403335164,-0.015889903568140667,0.11152103620074709,-1.179647077878466
1.9177573978735618,-0.4972124690860156,-0.015331774193711817,0.09841084540449224,-1.0874258736409286
1.9149094265696542,-0.5146912989556256,-0.014646871110577754,0.08557683743349787,-0.985168655227894
1.9122057902910305,-0.5297590269612868,-0.01381245813809245,0.07303082578397135,-0.8729424553944429
1.9096777934779219,-0.5424707670187487,-0.01279803463147177,0.06077696429454882,-0.7511929381334967
1.9073636860497796,-0.5528813960567476,-0.011560990927921027,0.048808604526482495,-0.6208795888689151
1.905311666408005,-0.5610433812798234,-0.010039215827601844,0.037107029400597624,-0.48358595647794683
1.9035848988654054,-0.5670049656335152,-0.008137284620814842,0.025646490111913323,-0.3415257993064273
1.9022709062798049,-0.5708108767310165,-0.005694216280243421,0.01441573196702238,-0.19733332211453455
1.9015050848716557,-0.5725124487970774,-0.002367061700272699,0.0034955529388784653,-0.05354913845801568
