x,y,v_x,v_y,omega
2.375,32.48,0.0,2.8205128205128203,-4.6938775510204085
2.3740208333830255,31.922154449630696,-0.00979166616974439,2.757942683180182,-4.415851167642861
2.371218398413105,31.376586842979115,-0.01823268352946292,2.6977333833356254,-4.162268623529923
2.366845072179357,30.842839622278127,-0.025500578808017777,2.6397388236742447,-3.9303223084064793
2.3611202637133175,30.32048317652184,-0.03174750585237539,2.5838256338886216,-3.7175880990759853
2.354235087265202,29.809113446365817,-0.03710425862878153,2.529871667671621,-3.5219654055097664
2.3463563033099604,29.308349806590034,-0.041683580923633196,2.477764730086227,-3.3416277472425535
2.337629654293139,28.817833184390384,-0.04558290924457856,2.4274014919102553,-3.1749818045340774
2.328182697757902,28.337224379491236,-0.04888665610779051,2.3786865570812257,-3.020633331482374
2.3181272202936536,27.86620255812796,-0.0516681185346965,2.331531656551561,-2.8773586564112508
2.3075613005043505,27.40446389773897,-0.053991079358335296,2.2858549473383176,-2.7440807553405677
2.2965710770126,26.95172036302921,-0.05591115555916728,2.2415803997593033,-2.6198490866075437
2.2852322677193975,26.507698597142333,-0.05747693737285879,2.1986372591094505,-2.503822532903404
2.2736114786171884,26.072138914173273,-0.05873095364923261,2.156959570581136,-2.3952549215571386
2.2617673340141233,25.644794381291035,-0.05971049238141811,2.1164857582412786,-2.2934826925990546
2.2497514547675075,25.22542998041957,-0.060448300084738275,2.0771582504733637,-2.197914362796987
2.237609306809342,24.813821840815358,-0.060973179496919876,2.0389231455687455,-2.1080214968862987
2.2253809386922105,24.4097565350405,-0.061310501674393024,2.001729912179834,-2.0233309479735495
2.213101623944333,24.013030431804317,-0.06148264580438065,1.9655311201820027,-1.943418170165639
2.2008024215830897,23.62344909996888,-0.06150937780805415,1.930282198172351,-1.8679014398585503
2.1885106661048774,23.240826758712306,-0.06140817697406781,1.8959412143934173,-1.7964368493666207
2.176250396572056,22.864985769439663,-0.06119451835414735,1.8624686783329854,-1.7287139589009441
2.1640427329956524,22.49575616554274,-0.06088211740988917,1.8298273606362512,-1.6644520112713737
2.1519062070174235,22.132975216550243,-0.060483142372399455,1.7979821292887301,-1.6033966288479837
2.139857052887792,21.776487023591457,-0.060008398923913985,1.7668998002991132,-1.5453169248767658
2.127909463885291,21.426142143427533,-0.05946749110109822,1.736549001340138,-1.4900029716815508
2.116075818602421,21.081797238593534,-0.058868961727602115,1.7069000469998616,-1.4372635769852864
2.104366880910875,20.7433147514474,-0.058220415187856464,1.677924824461461,-1.3869243268593907
2.092791976898269,20.41056260014409,-0.057528624938200545,1.6495966885716575,-1.3388258599110663
2.0813591516242975,20.083413894748926,-0.05679962780151806,1.6218903653799746,-1.2928223424489496
2.070075308164502,19.761746671877283,-0.056038806796437655,1.5947818633364625,-1.2487801186932543
2.0589463310845924,19.445443646400946,-0.055250964002658116,1.5682483914268877,-1.2065765137532651
2.047977196209071,19.134391978897874,-0.05444038475255296,1.5422682836038177,-1.1660987701938312
2.0371720683078474,18.82848305764336,-0.05361089425968641,1.5168209289413503,-1.1272431016448474
2.0265343881176685,18.527612294049035,-0.05276590764210023,1.4918867070018653,-1.0899138491490208
2.016078293605989,18.23168142375862,-0.05179503747469473,1.4674219959023038,-1.050708306088786
2.00581597932048,17.94059568343328,-0.05082810538039581,1.4434354073510671,-1.0132970939064265
1.9957464909995475,17.654261157807696,-0.04986677782892898,1.4199098489048068,-0.9775768192639784
1.9858685636676499,17.37258727173151,-0.04891249549004605,1.3968290118570386,-0.9434511753193928
1.9761806642563182,17.095486637951275,-0.047966498623272354,1.3741773259453316,-0.9108303789107921
1.966681029432387,16.822874913638245,-0.04702984961603827,1.351939917184951,-0.8796306584023288
1.9573676991703763,16.554670665062062,-0.04610345300406754,1.3301025685768753,-0.8497737871043868
1.9482385465433092,16.290795239858234,-0.04518807326660483,1.3086516834613926,-0.8211866577436973
1.93929130415133,16.03117264638116,-0.044284350653187504,1.2875742513093404,-0.7938008939538332
1.9305235875592661,15.775729439674052,-0.04339281526744999,1.2668578157617527,-0.7675524951923811
1.921932916071896,15.524394613623329,-0.04251389960625109,1.2464904447454848,-0.7423815118754926
1.9135167311384023,15.277099498898028,-0.04164794972868798,1.2264607025075087,-0.7182317478600619
1.9052724126446499,15.033777666304857,-0.040795235208835705,1.2067576234241888,-0.6950504877041234
1.8971972933229737,14.794364835217024,-0.03995595800792654,1.1873706874541456,-0.6727882464021147
1.8892886714835997,14.558798786760168,-0.039130260385813735,1.1682897971144197,-0.6513985395276436
1.8815438222492529,14.327019281461755,-0.03831823195765292,1.1495052558696948,-0.6308376719260061
1.873960007454535,14.098967981091441,-0.03751991598952613,1.1310077478334466,-0.6110645432851227
1.8665344843539817,13.874588374439284,-0.0367353150160077,1.1127883186881355,-0.5920404690795671
1.859264513267057,13.653825706796564,-0.03596439585323834,1.0948383577390597,-0.5737290155303726
1.8521473642744564,13.436626912920328,-0.03520709407276839,1.0771495810233052,-0.5560958473554326
1.8451803230677684,13.222940553277855,-0.034463317994112536,1.0597140154014288,-0.539108587203404
1.838360696043607,13.012716753381195,-0.033732952247501065,1.042523983565165,-0.5227366857696901
1.8316858147235957,12.805907146034716,-0.03301586095261147,1.0255720898996046,-0.5069513016877432
1.825153039572932,12.602464816330457,-0.0323118905540248,1.0088512071430005,-0.491725190373819
1.8187597632825603,12.40234424923699,-0.03162087234969308,0.9923544637916594,-0.4770326010795354
1.812509094643794,12.205679986122895,-0.030885814037967838,0.9742881673492965,-0.49849378084166596
1.8064014364042014,12.012617623265946,-0.030190768357960897,0.9563354612201971,-0.5217175647281249
1.8004288655592524,11.823134751347418,-0.029534940091526195,0.9384932579650963,-0.5465906584069894
1.7945836243236553,11.637209566301202,-0.02891747226444734,0.9207585924970795,-0.5730024321014827
1.7888581318512538,11.454820845299825,-0.028337452459566016,0.9031286175167039,-0.6008446726570136
1.7832449947473357,11.275947923612062,-0.02779391857961556,0.8856005993609135,-0.6300113416336172
1.7777370164795512,11.100570672250651,-0.027285864098230674,0.8681719142531856,-0.6603983384210443
1.7723272057863184,10.928669476330828,-0.026812242834097225,0.8508400449450323,-0.6919032673861731
1.7670087841749194,10.76022521406216,-0.026371973279890836,0.8336025777416634,-0.7244252080676207
1.76177519259548,10.595219236297257,-0.02596394251450307,0.816457199907361,-0.7578644874303188
1.7566200973716253,10.433633346561628,-0.025587009724043857,0.799401697448924,-0.7921224531831983
1.7515373954637998,10.275449781488888,-0.02524000935421303,0.7824339532784738,-0.8271012471457467
1.7465212191369957,10.12065119158504,-0.024921753913827182,0.7655519457599931,-0.8627035776237244
1.7415659401009584,9.969220622244315,-0.024631036446545827,0.7487537476472514,-0.8988324897203174
1.73666617318779,9.821141494937159,-0.02436663268513705,0.732037525424297,-0.9353911324659636
1.7318167796292832,9.676397588488378,-0.024127302899931313,0.715401539063523,-0.9722825215974031
1.7270128699942493,9.534973020359974,-0.023911793450405606,0.6988441422205066,-1.0094092967534969
1.7222498068445997,9.396852227848978,-0.0237188380460897,0.6823637828894431,-1.0466734717812354
1.7175232071679747,9.26201994910522,-0.02354715872016127,0.6659590045481322,-1.0839761767592635
1.712828944644342,9.130461203867686,-0.023395466516164174,0.6496284478272157,-1.1212173902472302
1.7081631518042049,9.002161273810483,-0.02326246188520861,0.6333708527448142,-1.158295660156334
1.7035222221369086,8.877105682380503,-0.023146834787753933,0.6171850615549864,-1.1951078115085205
1.6989028122090741,8.755280173998337,-0.023047264490592086,0.601070022266683,-1.231548639207883
1.6943018438554254,8.636670692481744,-0.022962419045893866,0.5850247928992298,-1.2675105837869247
1.689716506507326,8.521263358536714,-0.02289095443509911,0.5690485465510475,-1.3028833879116943
1.6851442597282196,8.40904444614456,-0.02283151335596549,0.5531405773704903,-1.3375537312328574
1.680582836030006,8.300000357654351,-0.0227827236261725,0.5373003075315953,-1.3714048409545605
1.6760302440502455,8.194117597367846,-0.022743196171431158,0.5215272953334384,-1.4043160752602453
1.6714847721771036,8.091382743378507,-0.02271152255998949,0.5058212445599621,-1.4361624764864094
1.6669449927172395,7.9917824173967205,-0.022686272038649424,0.4901820152578933,-1.4668142906754946
1.662409766711594,7.895303252259531,-0.022665988017806216,0.4746096361140086,-1.4961364498741179
1.657878249515368,7.801931856784144,-0.02264918394445086,0.45910431863985324,-1.5239880132830943
1.6533498972716856,7.711654777579923,-0.022634338492376064,0.44366647340236215,-1.5502215631271306
1.6488244744236682,7.624458457382399,-0.022619889987798757,0.4282967285728782,-1.5746825509187505
1.6443020624272873,7.540329189414624,-0.022604229976009325,0.4129959511048842,-1.5972085896786201
1.63978306984767,7.45925306721492,-0.02258569582016284,0.3977652708921704,-1.6176286876952928
1.6352682440450015,7.381215929295351,-0.02256256220652286,0.38260610830352904,-1.6357624196377005
1.6307586846832707,7.306203297911388,-0.022533031410785834,0.36752020553608433,-1.6514190313839225
1.6262558593265162,7.234200311130319,-0.022495222156757932,0.35250966227460023,-1.6643964759595677
1.6217616214237927,7.16519164728442,-0.02244715687047833,0.33757697618439947,-1.6744803797190067
1.6172782310269262,7.0991614407865775,-0.02238674709818558,0.322725088794032,-1.681442940685308
1.612808378635834,7.036093188174217,-0.02231177681273705,0.3079574373295898,-1.685041765270173
1.6083552126269347,6.9759696431384235,-0.022219883276256704,0.2932780130283345,-1.6850186561169527
1.6039223707942383,6.91877269919976,-0.02210853505070654,0.27869142635830485,-1.6810983735507221
1.5995140166248745,6.8644832586277715,-0.021975006642932372,0.26420297936159587,-1.6729874075303999
1.5951348810485009,6.8130810861956945,-0.021816349120802207,0.24981874495916834,-1.660372818179238
1.5907903105547256,6.764544646458866,-0.021629355816948984,0.2355456524091077,-1.6429212339591404
1.5864863227825232,6.718850923512445,-0.021410521905077026,0.22139157705511905,-1.6202781417328613
1.5822296709796828,6.675975222724432,-0.02115599612332544,0.20736543082501718,-1.5920676686123008
1.578027919155444,6.635890954909083,-0.020861522119062146,0.19347724732845673,-1.5578931505474316
1.573889530381789,6.5985694050349615,-0.020522365617488162,0.17973825141275937,-1.5173389195180493
1.5698239716627826,6.563979490188828,-0.02013322157257668,0.16616089704858986,-1.469973936765945
1.5658418402904875,6.532087515620624,-0.019688092150374297,0.1527588486334495,-1.4153581751652786
1.561955018973772,6.502856943926478,-0.01918012101678017,0.1395468683080257,-1.3530530337190956
1.558176870806659,6.47624820160053,-0.018601360654349856,0.12654055495143496,-1.2826375706481754
1.554522491216215,6.452218560159363,-0.017942435250090233,0.11375585946023761,-1.2037329622172135
1.5510090438038084,6.43072214630261,-0.01719203887397586,0.10120827910727594,-1.1160382498774488
1.5476562226811201,6.411710156176639,-0.016336172352906995,0.08891162215242124,-1.0193808615233841
1.5444869089388567,6.395131367997553,-0.015356965069728461,0.0768762596384362,-0.9137849252540087
1.541528128695402,6.380933051790542,-0.01423083736481679,0.0651069024316708,-0.7995576655957578
1.5388124843475923,6.369062335083445,-0.012925606113279337,0.05360026463931569,-0.6773868286881333
1.536380341439469,6.359467942255577,-0.01139582296795642,0.042343663639365675,-0.5484272914207196
1.5342832819472334,6.35210188709166,-0.009574771954399533,0.03131688799981227,-0.41433241248971786
1.5325899621580334,6.346919984765361,-0.007358425937599701,0.020502135263170913,-0.27716381218471253
1.5313979206929154,6.343878282233597,-0.0045619887135805726,0.009914890054481292,-0.13911305104855945
1.5308701400882638,6.342913414287775,-0.0007158173329352914,-0.00026621059625526675,-0.0020617426104740655
