x,y,v_x,v_y,omega
2.375,32.48,0.0,3.333333333333333,-4.448979591836735
2.373874807389674,31.821663012237092,-0.011251926103261313,3.2500365442956975,-4.142902219501594
2.370677582663545,31.179617867845746,-0.020720321158027997,3.1704148996177732,-3.8684895572037625
2.3657378659263246,30.553155305817278,-0.028676846214176988,3.094210720666935,-3.6215140633873486
2.3593353468727836,29.941615108543452,-0.03534834432123238,3.0211912520712896,-3.398413832686605
2.3517080161360746,29.34438143681079,-0.04092496304585756,2.9511454652553426,-3.1961735396048208
2.3430588536862205,28.760878751458623,-0.0455666614526841,2.883881388266326,-3.0122291086082904
2.333561342218764,28.190568227123023,-0.049408453221877376,2.8192238550896804,-2.8443909031558463
2.323364031498774,27.632944582299707,-0.052564653978024116,2.757012593143475,-2.690781475285029
2.312594332204089,27.087533264358463,-0.05513233896882809,2.697100586268982,-2.5497848408931167
2.301361681221826,26.55388793929954,-0.057194170853801685,2.639352664320244,-2.420004935551162
2.2897601919062502,26.03158824478925,-0.058820722301954266,2.583644280782624,-2.300231425507204
2.277870880539706,25.52023777194325,-0.060072391363485654,2.529860447677386,-2.189411443609808
2.2657635426996476,25.019462246874724,-0.06100098703710156,2.4778948030078864,-2.086626122470717
2.2534983393403056,24.528907887509007,-0.06165104655631805,2.4276487906492754,-1.9910710305908497
2.241127141331193,24.048239914822183,-0.0620609335348052,2.379030936218986,-1.9020397984066322
2.228694672336948,23.57714120066658,-0.06226375640764979,2.331956205337029,-1.8189103628038166
2.2162394828001606,23.11531103683545,-0.062288138960221694,2.286345432974245,-1.741133369903489
2.203794782035981,22.66246401209533,-0.06215886868157075,2.2421248144269668,-1.6682223638219562
2.191389150781727,22.21832898565784,-0.06189744386097289,2.199225449947932,-1.5997454589025528
2.1790471527461786,21.782648147034948,-0.06152253649451018,2.1575829362810275,-1.5353182486084755
2.166789860599093,21.35517615347197,-0.0610503849763447,2.117136999348729,-1.47459774890585
2.1546353092957773,20.935679337220108,-0.06049512805681416,2.0778311631698796,-1.4172772099042898
2.142598887536835,20.52393497582556,-0.05986908953260915,2.0396124507756133,-1.3630816585748753
2.130693676433941,20.119730619401068,-0.05918302149633481,2.002431113469302,-1.3117640589452655
2.11893074302052,19.722863469527823,-0.0584463126378719,1.9662403852631463,-1.2631019953823566
2.107319395056891,19.333139805027916,-0.057667166998414024,1.9309962597359294,-1.216894800281171
2.095867402588786,18.950374450363658,-0.05685275768263799,1.8966572869066596,-1.1729610603681235
2.0845811908907566,18.574390282871207,-0.05600935929766013,1.8631843880178254,-1.1311364464389855
2.073466008733056,18.205017775431592,-0.055142462279343066,1.8305406863783533,-1.0912718201175295
2.0625260753287993,17.84209457153006,-0.05425687176322393,1.7986913526369717,-1.0532315784839983
2.0517647088285145,17.48546508996164,-0.05335679323962455,1.7676034630472175,-1.0168922034590016
2.041184438816062,17.134980156711876,-0.052445906884900494,1.7372458694504316,-0.9821409878600929
2.0307871049104946,16.79049666178217,-0.051527432170774816,1.7075890798465978,-0.948874914254274
2.020573943282303,16.45187723894271,-0.050604184111139434,1.678605148548005,-0.9169996662551813
2.0105456626409555,16.1189899665859,-0.049678622302337744,1.6502675750200944,-0.8864287548766927
2.000702511036518,15.791708088022919,-0.04875289374203481,1.6225512106097355,-0.8570827450513598
1.9910443346355318,15.469909749717402,-0.047828870267827985,1.5954321724454208,-0.828888569531097
1.9815706294752258,15.153477756086051,-0.04690818133523305,1.5688877638680858,-0.8017789191734795
1.972280587066514,14.842299339617565,-0.04599224275188278,1.5428964008167656,-0.7756917001329098
1.9631731346015626,14.536265945170761,-0.045082281897631846,1.5174375436512526,-0.7505695497656021
1.9542469704231755,14.235273027411107,-0.04417935988624051,1.4924916339452972,-0.7263594041570389
1.9455103017261455,13.939221251482898,-0.04318732708405979,1.4680261253368077,-0.7002576241841524
1.9369701168157647,13.648014835062515,-0.0422145220197472,1.4440380388670226,-0.6753474621809498
1.9286225569419364,13.361559995086889,-0.041261076718533934,1.4205103608892475,-0.6515604251024818
1.9204637452781697,13.079766273649692,-0.04032703991913395,1.3974268534827357,-0.6288327028107661
1.9124898024111165,12.802546387299689,-0.039412388751398096,1.374772010017306,-0.6071047970918954
1.9046968596390939,12.529816084923493,-0.038517038968827945,1.3525310137446418,-0.5863211839769539
1.8970810703507017,12.261494013631342,-0.03764085391509405,1.3306896991768664,-0.5664300060328206
1.8896386197211257,11.997501592110204,-0.03678365238066672,1.3092345160345307,-0.5473827916564056
1.8823657329344852,11.7377628909502,-0.03594521548573898,1.2881524955655101,-0.5291341987291872
1.8752586821150752,11.482204519488274,-0.03512529270835982,1.2674312190537447,-0.51164178027383
1.8683137921280668,11.230755518747653,-0.0343236071617252,1.247058788352471,-0.4948657700060951
1.8615274453907367,10.983347260083328,-0.03353986021157543,1.227023798290788,-0.47876888589746197
1.8548960858182446,10.739913349172728,-0.03277373551334675,1.2073153108152195,-0.46331615006053495
1.8484162220130207,10.500389535017252,-0.03202490253889024,1.1879228307395484,-0.4484747234435877
1.8420844297937315,10.264713623644628,-0.031293019654001636,1.1688362829867043,-0.43421375397525314
1.8358973541482784,10.032825396224354,-0.030577736800531857,1.1500459912160332,-0.42050423693779243
1.829851710685193,9.804666531328955,-0.029878697830321918,1.1315426577379355,-0.4073188864696408
1.8239442866489104,9.580180531092587,-0.029195542532502523,1.1133173446257296,-0.3946320172068491
1.8181719415565893,9.359312651035836,-0.028527908390708775,1.0953614559417724,-0.38241943517018495
1.8125316075072795,9.142009833341518,-0.02787543210239102,1.077666721001387,-0.3706583370914096
1.8070202892081828,8.928220643380968,-0.027237750888573185,1.0602251786041088,-0.3593272174498056
1.8016350637574206,8.717895209303837,-0.026614503619050326,1.043029162167187,-0.3484057825594503
1.7963730802180087,8.510985164516992,-0.026005331775067538,1.0260712857012537,-0.3378748711099394
1.791231559013609,8.307443592889605,-0.025409880268930325,1.0093444305726043,-0.3277163806190659
1.7862077911729441,8.107224976532276,-0.02482779813771726,0.9928417330006943,-0.31791319930607753
1.7813040371240965,7.910459342499198,-0.024209742350760396,0.9748146073300836,-0.34317922973048653
1.7765199456115897,7.717287984142221,-0.02363117277430751,0.9568989762396896,-0.3701129068803215
1.7718477015625398,7.527688903055697,-0.023091267716192174,0.9390918346255478,-0.39860544266747383
1.767279659906083,7.341640690184423,-0.022589148848374704,0.9213902940871848,-0.42855053129068676
1.7628083563059915,7.159122502912016,-0.022123887152540465,0.9037915786368813,-0.45984411285697524
1.7584265167566047,6.9801140429684345,-0.021694508341326687,0.886293020798932,-0.49238414234148975
1.754127066143298,6.804595535079773,-0.021299997791741722,0.868892058087673,-0.5260703629324714
1.749903135861729,6.632547706285447,-0.020939305023947558,0.8515862298555857,-0.560804082815792
1.7457480705837978,6.463951765849355,-0.020611347755362917,0.8343731745053398,-0.5964879544544481
1.7416554342525632,6.298789385692597,-0.02031501555698445,0.8172506270622488,-0.6330257554121301
1.7376190153832756,6.137042681275741,-0.020049173135891843,0.800216417106313,-0.6703221697563684
1.7336328317431788,5.978694192858526,-0.01981266326507394,0.7832684670658389,-0.7082825690554653
1.7296911344787753,5.823726867064181,-0.019604309378962084,0.7664047908776136,-0.7468127919540339
1.7257884117558433,5.672124038674241,-0.019422917850358455,0.7496234930217932,-0.785818921273998
1.7219193919746298,5.523869412577749,-0.01926727996177514,0.7329227679431092,-0.8252070575407718
1.7180790466202998,5.378947045796064,-0.01913617358152723,0.7163008998737451,-0.8648830877773458
1.7142625928069248,5.237341329500953,-0.019028364552221795,0.6997562630773577,-0.9047524483413582
1.7104654955720502,5.099036970939391,-0.018942607796524666,0.68328732253828,-0.944719880501046
1.706683469978174,4.964018975173058,-0.01887764814223587,0.6668926351250346,-0.9846891773542258
1.7029124830773776,4.832272626534255,-0.01883222086572818,0.6505708512629919,-1.0245629205890514
1.6991487557958385,4.703783469692212,-0.01880505194966314,0.6343207171574439,-1.0642422054650316
1.695388764796117,4.5785372902149035,-0.01879485804755383,0.6181410776156532,-1.1036263522563698
1.6916292443769467,4.456520094500867,-0.01880034614414739,0.6020308795247199,-1.1426126022457996
1.687867188472862,4.337718088943241,-0.018820212896701573,0.5859891760515579,-1.1810957961843827
1.6840998528193944,4.222117658173879,-0.01885314363797115,0.5700151316420724,-1.218968032939995
1.6803247573538937,4.109705342218771,-0.018897811017037386,0.5541080279090059,-1.256118305843364
1.6765396889272965,4.000467812376659,-0.01895287324893408,0.5382672705121143,-1.2924321140048942
1.6727427044085768,3.8943918456103823,-0.019016971938264654,0.5224923971506378,-1.327791045618066
1.6689321342711931,3.7914642972146417,-0.019088729435571782,0.5067830868067537,-1.3620723299868773
1.6651065867598351,3.6916720714939473,-0.01916674567800661,0.4911391704001892,-1.3951483547181391
1.6612649527462624,3.5950020901500466,-0.01924959445772334,0.4755606430388156,-1.426886144209262
1.657406411395265,3.5014412580383443,-0.019335819052251308,0.46004767807822333,-1.4571467952468178
1.6535304367759698,3.410976425906984,-0.019423927140698443,0.4446006432353904,-1.485784865223977
1.649636805570119,3.3235943496796523,-0.01951238491781011,0.42922011903794555,-1.5126477082067529
1.6457256060478986,3.2392816457827145,-0.019599610304392855,0.4139069199314391,-1.5375747538613662
1.6417972485037498,3.1580247419483207,-0.019683965137095603,0.3986621184125143,-1.5603967241451455
1.637852477369779,3.07980982284651,-0.01976374620261151,0.383487072605607,-1.580934782730928
1.6338923852534704,3.004622769810563,-0.01983717496047624,0.36838345775386655,-1.5989996124822687
1.6299184291800184,2.932449093820228,-0.01990238577404207,0.3533533021494899,-1.6143904170735304
1.6259324493586305,2.863273860797168,-0.01995741243983561,0.3383990280811006,-1.6268938442732626
1.6219366908376673,2.7970816081470353,-0.020000172769798187,0.32352349842022154,-1.636282830798892
1.617933828467036,2.733856251355469,-0.020028450936514577,0.3087300694954336,-1.6423153724682291
1.6139269956499,2.6735809793163625,-0.020039877234844135,0.29402265089563223,-1.6447332292926358
1.609919817442544,2.616238136949022,-0.020031904838715368,0.27940577277778916,-1.6432605841607002
1.6059164486556514,2.5618090935621893,-0.020001783030210683,0.26488466109053976,-1.6376026872846026
1.6019216177291393,2.510274095372946,-0.019946526234911423,0.25046532080189843,-1.6274445387197327
1.5979406773067373,2.461612100628365,-0.019862877989108414,0.23615462664389797,-1.6124496910828927
1.5939796626426257,2.415800595972346,-0.019747268652010107,0.22196041991627716,-1.5922592985508508
1.5900453592579065,2.3728153931497253,-0.019595765195182285,0.20789160830994244,-1.5664916028074076
1.5861453816738647,2.332630405999005,-0.019404010645236076,0.19395826319726875,-1.5347421411785607
1.5822882656547472,2.295217409187309,-0.019167149545935628,0.18017170491968112,-1.4965851000503225
1.578483577315708,2.2605457826338835,-0.018879733844459068,0.1665445606145685,-1.4515764362331
1.5747420438916695,2.2285822495563856,-0.01853560039592336,0.15309077016039832,-1.3992596746092107
1.5710757132527986,2.19929062226284,-0.018127705992786722,0.13982550277506064,-1.3391756916257518
1.5674981529439005,2.172631579124605,-0.017647897096194666,0.1267649286073026,-1.2708783394439256
1.5640247055287708,2.148562509659012,-0.017086577055102647,0.11392576604861682,-1.1939584632086198
1.560672826822042,2.127037483153682,-0.016432210012184766,0.1013244990046985,-1.1080796530359485
1.5574625495785765,2.1080074193567135,-0.015670562422469347,0.08897613896498119,-1.0130297104102224
1.5544171411671175,2.091420563330125,-0.014783521692119987,0.07689242130089795,-0.9087916440021395
1.5515640657144387,2.077223377736736,-0.013747232834669484,0.06507943463298628,-0.7956355963447285
1.5489364296625774,2.065361933827589,-0.012529127683942654,0.05353500445848898,-0.6742257798912944
1.5465752079405475,2.0557837453955266,-0.011083089536356758,0.042246879862146994,-0.545720684855166
1.5445327883611593,2.0484396398405984,-0.009341106257526984,0.031194175687119005,-0.4118190192550646
1.542879022957059,2.0432844989515786,-0.007196547783475827,0.020357233203066552,-0.27467634466107205
1.5417134770579808,2.040273817291876,-0.004458911207306323,0.00974958339397251,-0.13661238611500104
1.5412036917733607,2.039343400636138,-0.0006389416388942193,-0.00044541683660696656,0.00037269673071335663
