x,y,v_x,v_y,omega
2.375,32.48,0.0,2.1025641025641026,-4.204081632653061
2.374515964297506,32.10487271808872,-0.005378174472157254,2.065516807561181,-4.025520101966476
2.373114315065012,31.73632871223117,-0.01019570588888618,2.029416590856038,-3.8576199963928124
2.370891185101263,31.374201367267105,-0.014505738152766422,1.9942205754113902,-3.6995216027025615
2.367933634027383,31.018331539204436,-0.01835594044590583,1.9598886252849266,-3.550449347304944
2.3643205770260685,30.66856708350833,-0.021789137346476285,1.9263831046718298,-3.409702253579045
2.3601236074771905,30.324762424275953,-0.024843857641054946,1.8936686645767649,-3.2766456291548995
2.3554077270651503,29.986778159674373,-0.027554813603834886,1.861712053218557,-3.1507038049881175
2.3502319949865496,29.654480699662738,-0.029953320602838986,1.8304819469107332,-3.031353776854292
2.344650106252685,29.327741932559263,-0.0320676653289931,1.7999487986834295,-2.918119623520362
2.338710907703988,29.006438917467115,-0.03392342965653009,1.7700847023404664,-2.8105675953434677
2.332458859187848,28.690453599956633,-0.03554377607835575,1.7408632699981772,-2.708301783199983
2.325934446361039,28.379672548726802,-0.036949699775078296,1.7122595214444218,-2.6109602910875163
2.3191745507338863,28.073986711245922,-0.038160251637727384,1.6842497838986867,-2.5182118469706682
2.3122127818514384,27.773291186608958,-0.0391927359450285,1.6568116009564506,-2.4297527958566705
2.305079775887628,27.47748501405254,-0.04006288587508863,1.6299236496704277,-2.3453044270104613
2.2978034643956513,27.186470975744463,-0.04078501959132035,1.603565664863778,-2.2646105939092798
2.290409316498176,26.900155412616563,-0.04137217926951278,1.5777183698906494,-2.187435591204381
2.2829205574034903,26.618448052141886,-0.04183625511588663,1.5523634131613273,-2.1135622577730753
2.27535836578906,26.341261847072133,-0.04218809615555588,1.5274833098359275,-2.0427902790479
2.2677420522945027,26.068512824252092,-0.042437609339528344,1.5030613881645416,-1.9749346653162305
2.260089221105144,25.800119942715924,-0.042593848320008794,1.4790817400150795,-1.909824385687853
2.2524139461685952,25.53600807288775,-0.042686984308317306,1.4554945914090989,-1.8458396006016982
2.2447278936032387,25.2761046453176,-0.04271359975119956,1.4323212704814559,-1.7845536032543565
2.237042487767564,25.02033642217617,-0.042679798422963273,1.409547875534402,-1.7258221844061332
2.2293681012540905,24.768632614151905,-0.04259116283785448,1.3871611025130002,-1.6695103001674598
2.2217141445551016,24.520924775848158,-0.042452800484239404,1.3651482119730698,-1.6154913949857814
2.2140891478014697,24.277146706926295,-0.04226938566722862,1.343496998269897,-1.5636467815046227
2.2065008353245203,24.03723435861098,-0.04204519740998676,1.3221957607891397,-1.5138650719383133
2.1989561937143582,23.801125745204722,-0.041784153814035996,1.3012332770581927,-1.466041656165364
2.191461533979952,23.568760860286268,-0.041489843234920706,1.280598777591284,-1.4200782222387074
2.1840225483556304,23.3400815972929,-0.04116555259087532,1.260281922334974,-1.3758823154500313
2.1766443622445357,23.115031674209412,-0.040814293087957546,1.24027277859272,-1.3333669324751947
2.1693315817412784,22.893556562107452,-0.040438823614898936,1.2205618003179142,-1.292450147474275
2.162088337132861,22.675603417298138,-0.04004167203418643,1.2011398086744598,-1.2530547673283663
2.1549183227382867,22.4611210168779,-0.03962515457219163,1.1819979737726267,-1.2151080134703847
2.147824833412677,22.250059697463747,-0.039191393490137,1.1631277974957557,-1.1785412280127776
2.1408107980106545,22.042371296928486,-0.03874233319900571,1.144521097340439,-1.1432896020946464
2.1338788100759043,21.838009098959922,-0.03827975496488364,1.126169991199186,-1.1092919245673578
2.127031155998787,21.636927780280164,-0.037805290336422666,1.108066883020361,-1.0764903493138944
2.120269840861346,21.439083360372642,-0.03732043341292063,1.0902044492854162,-1.0448301796552757
2.1135966121688066,21.24443315357462,-0.03682655205973729,1.0725756262482005,-1.0142596684393856
2.1070129816483782,21.05293572340259,-0.03632489816724522,1.055173597885445,-0.9847298325352649
2.100520245279717,20.86455083898687,-0.035816617040105185,1.037991784511461,-0.9561942805709147
2.0941195017065364,20.679239433499607,-0.03530275599523225,1.0210238320136724,-0.9286090528563065
2.087811669165431,20.496963564468174,-0.03478427223927064,1.0042636016688808,-0.9019324725268109
2.0815975010558305,20.317686375872693,-0.034262040089625405,0.9877051605031466,-0.8761250070267258
2.0754797996333108,20.14160693762222,-0.03371242016059396,0.968733042279851,-0.9022521103678124
2.0694582065546068,19.968932717659655,-0.03319416960278121,0.9498694017486781,-0.9297869469674818
2.0635271437723413,19.799644435708267,-0.0327065279779459,0.931111508822296,-0.9586173505350297
2.057681175201382,19.633723292710478,-0.032248678366050366,0.9124567467087062,-0.9886328246961983
2.0519150164273094,19.47115095069219,-0.03181975245697599,0.893902609050004,-1.019724302825634
2.0462235435395293,19.311909513106162,-0.03141883518502506,0.8754466974614289,-1.05178390934572
2.04060180116894,19.15598150558222,-0.031044968932632824,0.8570867194712759,-1.0847047214737089
2.035045009805595,19.003349857011926,-0.030697157326753655,0.8388204868653214,-1.1183805303774648
2.0295485724678217,18.853997880894205,-0.030374368648509537,0.8206459144426912,-1.1527056006705652
2.0241080807908074,18.707909256866937,-0.030075538873873348,0.8025610191935921,-1.1875744271395912
2.0187193205997245,18.565068012347332,-0.029799574360377494,0.7845639199131039,-1.222881487549685
2.0133782770300046,18.425458504200915,-0.029545354192065162,0.766652837269336,-1.2585209903183228
2.008081139255429,18.289065400355284,-0.029311732192109682,0.7488260943487604,-1.2943866157811426
2.002824304883267,18.155873661270313,-0.029097538609688913,0.7310821177065074,-1.330371249696906
1.9976043840747644,18.02586852117078,-0.028901581484786217,0.7134194389549405,-1.3663667075505639
1.9924182034488929,17.899035468941136,-0.028722647691565333,0.6958366969299948,-1.4022634481132106
1.98726280982745,17.775360228574087,-0.02855950365779858,0.6783326404816902,-1.4379502746047377
1.9821354738803452,17.654828739055862,-0.028410895754478204,0.6609061319430144,-1.4733140216785745
1.9770336937312871,17.537427133560378,-0.028275550346168007,0.6435561513401694,-1.5082392263075104
1.971955198586139,17.42314171781222,-0.028152173488810262,0.6262818014171175,-1.5426077804949216
1.9668979524489674,17.3119589474644,-0.02803945025754042,0.6090823135586401,-1.5762985635668534
1.9618601579943618,17.20386540432032,-0.027936043682521297,0.591957054708903,-1.6091870516179685
1.9568402606690107,17.098847771210785,-0.02784059326582464,0.5749055353970312,-1.6411449014898687
1.9518369531008668,16.99689280531527,-0.027751713046886683,0.5579274189976308,-1.6720395064564813
1.9468491799006304,16.897987309691928,-0.027667989177960473,0.5410225323728188,-1.7017335205826605
1.9418761429478377,16.802118102752672,-0.02758797696418149,0.5241908780633275,-1.7300843485160684
1.93691730726269,16.709271985387183,-0.02751019731523683,0.5074326482198825,-1.7569435972796996
1.931972407575085,16.619435705403074,-0.02743313254704026,0.4907482404924653,-1.7821564864692838
1.9270414557142632,16.53259591890756,-0.027355221462091357,0.474138276124345,-1.8055612131499295
1.9221247489563245,16.448739148208684,-0.02727485362611787,0.4576036205298317,-1.8269882677239646
1.9172228794828445,16.36785173576077,-0.027190362745882744,0.4411454066692259,-1.8462596971561525
1.9123367451222675,16.289919793619177,-0.027100019038305292,0.4247650615706815,-1.863188312263456
1.9074675615670793,16.214929147803144,-0.027002020463785904,0.40846433638526203,-1.8775768364042738
1.9026168762844882,16.14286527689283,-0.02689448267611556,0.39224534039597814,-1.8892169939785872
1.8977865843671473,16.07371324410848,-0.026775427516560427,0.3761105794301365,-1.8978885388775322
1.8929789466042362,16.0074576220371,-0.02664276984911834,0.3600629991407189,-1.9033582256850627
1.8881966100932408,15.9440824090889,-0.02649430249527495,0.34410603361709885,-1.9053787304427638
1.883442631760791,15.883570936686453,-0.026327678976388626,0.32824365974339736,-1.9036875337204429
1.878720505219485,15.825905766123594,-0.026140393704787913,0.3124804576217192,-1.8980057874137557
1.8740341914605292,15.77106857399112,-0.025929759172501617,0.29682167718356045,-1.888037199288887
1.8693881539749393,15.719040025074825,-0.025692879556273376,0.2812733107752544,-1.873466987483347
1.8647873990177,15.669799631719794,-0.025426619968607112,0.265842170947317,-1.8539609833264223
1.860237521893131,15.623325598873226,-0.02512757030438098,0.2505359717923284,-1.8291649983305698
1.8557447603669412,15.579594654439898,-0.02479200220883998,0.23536341080022014,-1.7987046247742449
1.8513160566343865,15.538581865318733,-0.024415817041768553,0.2203342461016026,-1.7621857155735157
1.846959129747654,15.500260440695548,-0.023994481699704914,0.20545936082265315,-1.7191958972110297
1.8426825611136795,15.464601526074365,-0.023522947566678148,0.1907508016349377,-1.6693076214476463
1.8384958967514726,15.43157399445802,-0.022995545346729054,0.17622177188001506,-1.6120834726268702
1.8344097716622096,15.401144245468348,-0.02240584453397186,0.16188655022743556,-1.547084734847468
1.8304360642611937,15.373276029566806,-0.021746459921761288,0.1477602931230129,-1.4738846019252902
1.8265880928952973,15.347930323487152,-0.021008777477086307,0.13385866331758275,-1.3920878831134071
1.8228808728797188,15.325065294952964,-0.020182556029343,0.12019720928451301,-1.301359576189622
1.8193314625567472,15.304636409460173,-0.019255336448117312,0.10679040730203648,-1.2014651004636785
1.8159594426186465,15.28659674720577,-0.018211551753003787,0.09365028441354928,-1.092324939958591
1.8127875974095218,15.270897607719242,-0.017031172792824918,0.08078459877009499,-0.9740851669730716
1.8098429050826887,15.25748946855892,-0.015687630838653512,0.06819472523349797,-0.8472013958477254
1.8071580050355476,15.246323303256204,-0.01414459190735909,0.05587377813000454,-0.7125251517609517
1.8047734215325795,15.237352101955082,-0.01235078034784118,0.04380623632691909,-0.5713668794550222
1.8027410681839124,15.230532094240615,-0.01023092352623728,0.031971627167171474,-0.4254909979459141
1.801130282973283,15.225822468667172,-0.007666689925203496,0.020357545871099954,-0.27698585965019734
1.8000405822486774,15.22318044436944,-0.004441095903746892,0.008998279659270084,-0.12796292420713085
1.7996462952724905,15.222536115298382,6.012950166985574e-05,-0.0018390677586218457,0.019782441756755864
