x,y,v_x,v_y,omega
2.375,32.48,0.0,3.7435897435897436,-8.0
2.3729659756981083,31.778127879312986,-0.02141078212517811,3.64453784258931,-7.415142053719923
2.367202275509254,31.094620358053852,-0.03925974617855133,3.550278170664752,-6.894947640660604
2.3583311816247368,30.428603039236833,-0.05412018944794344,3.460430448461757,-6.430194847452501
2.3468756148904,29.77926961622109,-0.0664647235450716,3.3746582148618396,-6.013219412427305
2.333276398074777,29.14587420798552,-0.07668492714570305,3.292661871828358,-5.637613453540028
2.317906191691665,28.527724880949364,-0.08510671899231721,3.2141731496048753,-5.29798983020374
2.3010808166781542,27.924178120492577,-0.09200249167621413,3.1389506446770956,-4.989796192867867
2.2830685073071204,27.334634072204086,-0.09760076486098315,3.0667761794122903,-4.70916706116645
2.264097512310426,26.758532414213672,-0.10209391931474997,2.99745179943417,-4.452805293091241
2.244362368882131,26.195348752411512,-0.10564443256203866,2.930797272167505,-4.217886470431547
2.224029103940709,25.64459145308879,-0.10838993524240145,2.866647983861149,-4.001981295353784
2.203239563495463,25.105798844714037,-0.11044733260229374,2.804853156925735,-3.8029922464450623
2.1821150297927123,24.57853673370332,-0.11191618005823946,2.7452743273975986,-3.619101599776037
2.160759253980914,24.062396189212183,-0.11288146006595291,2.687784035666991,-3.448728564168587
2.1392610070668283,23.55699155993191,-0.11341587587179161,2.632264693599084,-3.2904937676248305
2.117696232279053,23.061958692159102,-0.11358175347321324,2.5786075987462365,-3.1431897046833135
2.096129866382142,22.576953323424416,-0.11343262438900728,2.526712072145191,-3.0057560416414666
2.0746173850742244,22.101649630006648,-0.11301454727328221,2.4764847006734447,-2.8772588993861565
2.0532061176582737,21.63573890994123,-0.11236721499988755,2.427838668436172,-2.756873407587511
2.0319363681719484,21.17892838582089,-0.11152488485616396,2.380693164409524,-2.643868960760405
2.0108423736860708,20.730940113905312,-0.11051716236360479,2.3349728557544838,-2.537596714783267
1.9899531252222618,20.291509987901627,-0.10936966357122657,2.2906074179684888,-2.437478948354955
1.9692930724508049,19.860386827321168,-0.10810457612831975,2.247531114457418,-2.342999982471067
1.9488827298181635,19.437331541617837,-0.10674113579421929,2.2056824192618323,-2.253698406053983
1.9287391988685105,19.02211636241459,-0.10529603209686486,2.1650036776144717,-2.169160400251495
1.9088766191452038,18.614524137061757,-0.10378375446425998,2.1254407997837528,-2.0890139898494486
1.8893065580911066,18.21434767757348,-0.10221688821044717,2.086942984303383,-2.0129240794519414
1.8700383487348056,17.8213891596781,-0.10060636817166793,2.0494624672269435,-1.9405881559183535
1.8510793825920282,17.435459567314183,-0.09896169648914677,2.0129542944984933,-1.87173255807029
1.8324353640786792,17.056378178420204,-0.09729112996715826,1.977376114911799,-1.806109230730326
1.8141105317840962,16.68397208831542,-0.09560184155476995,1.9426879914543138,-1.7434928933917846
1.7961078511580695,16.31807576736204,-0.09390005977182692,1.908852229107615,-1.6836785647730053
1.7784291824966016,15.958530649942698,-0.09219118929625397,1.875833217411752,-1.6264793936030446
1.761075427547798,15.605184752089752,-0.09047991542799336,1.8435972863034609,-1.5717247535575758
1.7440466575831093,15.257892315369208,-0.08877029472662619,1.812112573912795,-1.51925856658703
1.7273422253759136,14.916513474857883,-0.08706583377017127,1.7813489051537987,-1.468937824174656
1.7109608631872244,14.580913949261049,-0.08536955768971279,1.7512776800760155,-1.4206312805093138
1.694900768567285,14.25096475140333,-0.08368406988859944,1.7218717710578584,-1.3742182953023874
1.679159679533809,13.926541917490681,-0.08201160414798794,1.6931054280226627,-1.3295878071392901
1.6637349404758877,13.60752625368869,-0.08035407014592313,1.6649541909456567,-1.2866374209312499
1.6486235599514156,13.293803098694148,-0.07871309326957111,1.6373948089968653,-1.2452725953025885
1.633822261390661,12.98526210109485,-0.07709004947521486,1.6104051657325718,-1.2054059176785918
1.6193275275852863,12.681797010418531,-0.07548609584451893,1.5839642098076359,-1.1669564564839274
1.6051356397275,12.3833054808671,-0.07390219739533631,1.5580518907337528,-1.1298491812666
1.5912427116652408,12.089688886818116,-0.07233915062844727,1.5326490992555435,-1.0940144427652474
1.577644719954069,11.800852149252837,-0.07079760422599117,1.507737611957935,-1.0593875059694289
1.564337530212783,11.516703572340077,-0.06927807726122936,1.4833000397553033,-1.0259081301095931
1.551328046642836,11.237157591931247,-0.06766385505400245,1.4592892277060503,-0.990335762847211
1.5386217557867963,10.962131552111256,-0.06608657500957306,1.4357217177675299,-0.956317658507986
1.5262116876885035,10.69154267777835,-0.06454572076193311,1.4125822225788494,-0.9237680264767782
1.5140909756412904,10.425311034606377,-0.06304072184030743,1.3898561265998155,-0.8926067093542666
1.502252865530223,10.163359404941726,-0.06157096353934957,1.3675294488175476,-0.8627587539221673
1.4906907234206987,9.905613170551614,-0.06013579550827578,1.3455888079204552,-0.8341540191634161
1.479398041621722,9.652000201772989,-0.058734539217793764,1.3240213897493052,-0.806726817765862
1.4683684434238882,9.40245075264588,-0.057366494443614795,1.3028149168518428,-0.7804155879172999
1.4575956866873938,9.156897361646614,-0.05603094488790572,1.2819576199825347,-0.7551625925350235
1.4470736664337793,8.915274757665024,-0.05472716304487931,1.2614382114026041,-0.7309136433699919
1.4367964165761806,8.677519770896232,-0.0534544144035267,1.2412458598478338,-0.7076178476889693
1.4267581109062908,8.44357124834163,-0.05221196106899812,1.2213701670427302,-0.6852273754717152
1.4169530634416954,8.213369973635846,-0.05099906487411002,1.2018011456497193,-0.663697245268078
1.4073757282245034,7.986858590936762,-0.04981499004370114,1.182529198551175,-0.6429851270447874
1.3980206986509953,7.763981532634215,-0.04865900546690995,1.1635450993703742,-0.6230511605165615
1.3888827064021922,7.544684950650254,-0.04753038662575383,1.1448399741450075,-0.6038577876032264
1.379956620036605,7.328916651119474,-0.046428417222533554,1.1264052840737302,-0.5853695977859327
1.3712374432988361,7.116626032252533,-0.04535239054345475,1.1082328092624845,-0.5675531852530833
1.3627203131910288,6.9077640251993095,-0.044301610591359064,1.090314633403015,-0.5503770168318196
1.3544004978482813,6.702283037740511,-0.04327539301651013,1.0726431293211998,-0.5338113097952563
1.3462733942539762,6.500136900647927,-0.04227306587091336,1.0552109453375658,-0.5178279187203213
1.338334525826422,6.301280816564123,-0.04129397020860283,1.0380109923866991,-0.5024002306471221
1.330579539904198,6.105671311261993,-0.04033746055165098,1.021036431846238,-0.48750306785917336
1.3230042051540576,5.9132661871537735,-0.03940290523930107,1.004280664029776,-0.47311259766540864
1.3156044089221468,5.724024478927316,-0.038489686675548376,0.9877373173013464,-0.45920624862040976
1.3083844558164976,5.538114059515557,-0.03750981969970551,0.9692144659803289,-0.4895465222327394
1.3013455801920473,5.355712738245742,-0.0365836079260878,0.9507994421229754,-0.5213417475457944
1.2944777481299914,5.176800293756308,-0.03570936114818445,0.932489447239495,-0.5544826977979281
1.2877712479674557,5.001357025791105,-0.034885377404822004,0.9142817944995012,-0.5888621993782287
1.281216692231505,4.829363734313112,-0.03410994613150281,0.8961739052688271,-0.6243748879177365
1.2748050190084346,4.660801699238682,-0.033381350953448935,0.8781633060409755,-0.6609169680595202
1.2685274928141563,4.495652660717802,-0.03269787214421656,0.860247625757775,-0.6983859758591945
1.2623757050272082,4.333898799886725,-0.03205778877102674,0.8424245935167181,-0.7366805427624022
1.2563415739421537,4.175522720019419,-0.03145938054533681,0.8246920366654585,-0.7757001600924609
1.250417344497857,4.020507428003928,-0.030900929394629184,0.8070478792871008,-0.8153449429594937
1.244595587732322,3.8688363160687445,-0.030380720768897296,0.7894901410832463,-0.8555153924715312
1.2388692000134571,3.720493143682628,-0.029897044692838045,0.7720169366653423,-0.896112155087789
1.23323140209327,3.5754620195488904,-0.02944819657229081,0.7546264752687422,-0.9370357779040227
1.2276757380316103,3.4337273836120907,-0.029032477760969545,0.73731706090811,-0.978186458598843
1.2221960740346742,3.295273988991063,-0.028648195890988548,0.7200870929974486,-1.0194637886973648
1.2167865972530651,3.1600868837473044,-0.028293664968054955,0.7029350674631778,-1.0607664887236807
1.2114418145843011,3.0281513923917807,-0.027967205229460206,0.6858595783844398,-1.1019921337154224
1.2061565515252917,2.8994530970261394,-0.02766714276011406,0.6688593202012514,-1.1430368674610525
1.2009259511214958,2.773977818005875,-0.027391808858790563,0.6519330905383923,-1.1837951036924084
1.1957454730612826,2.6517115940031175,-0.027139539143454083,0.6350797937011423,-1.2241592123202572
1.1906108929664634,2.5326406613352184,-0.02690867238095896,0.6182984449083208,-1.2640191886381302
1.1855183019331332,2.4167514324117505,-0.026697549022517135,0.6015881753387208,-1.3032623032384787
1.1804641063808996,2.3040304731370504,-0.026504509422046532,0.5849482380791655,-1.3417727301844795
1.1754450282733757,2.1944644790872836,-0.02632789170978423,0.568378015076289,-1.379431150760274
1.170458105778558,2.088040250260086,-0.026166029288298802,0.5518770252100116,-1.4161143298823569
1.1655006944445123,1.9847446641707762,-0.026017247912181882,0.5354449336248326,-1.451694661996609
1.1605704689737715,1.8845646470412127,-0.02587986230614379,0.5190815624758215,-1.4860396830120153
1.1556654256891452,1.7874871427953707,-0.025752172268870385,0.502786903269885,-1.5190115445386994
1.1507838857944421,1.6934990795387925,-0.025632458201687802,0.48656113100987386,-1.5504664464132143
1.145924499546073,1.6025873331567837,-0.025518975991673132,0.47040462037969827,-1.5802540232217388
1.1410862514658893,1.5147386876176157,-0.025409951168155143,0.4543179642431316,-1.6082166802927746
1.1362684667421774,1.4299397915116003,-0.025303572239338327,0.43830199476756937,-1.6341888744563602
1.1314708189847729,1.3481771102936513,-0.025197983101762328,0.422357807526642,-1.6579963348028006
1.1266933395221914,1.2694368736253416,-0.025091274399095125,0.40648678898186463,-1.679455218787979
1.1219364284539328,1.19370501713178,-0.024981473687838027,0.3906906477924692,-1.6983711994226587
1.117200867700296,1.1209671177985285,-0.024866534245181517,0.37497145045227187,-1.714538480092243
1.1124878363258937,1.0512083221346131,-0.02474432232747592,0.35933166179947035,-1.7277387349872373
1.1077989284525511,0.9844132661201961,-0.024612602655077784,0.34377419098388495,-1.7377399754809555
1.103136174123765,0.9205659858445117,-0.024469021858460602,0.3283024434970198,-1.7442953465002744
1.0985020635382512,0.8596498176257299,-0.024311089568002407,0.312920379858575,-1.7471418626199786
1.09389957513705,0.8016472862980493,-0.024136156760432386,0.29763258148542976,-1.7459991021725638
1.089332208111201,0.7465399802665189,-0.023941390880084255,0.2824443241096372,-1.7405678904088921
1.0848040200012523,0.6943084118895975,-0.02372374711937393,0.26736165880534013,-1.730529021563607
1.080319670195299,0.6449318617891713,-0.023479935048554782,0.25239150014652867,-1.7155420973162891
1.075884470313707,0.5983882058637597,-0.023206379494519206,0.23754172012094382,-1.69524459956552
1.0715044427198916,0.5546537241792109,-0.022899174124589528,0.22282124497957415,-1.6692513743722148
1.0671863887556179,0.5137028916633568,-0.022554025499344616,0.2082401499241609,-1.637154789569369
1.0629379688281957,0.47550815183391393,-0.02216618426299376,0.19380974301736809,-1.5985259524317128
1.0587677972767047,0.4400396769327273,-0.021730358384280987,0.17954262436358087,-1.552917551860956
1.0546855561804755,0.40726512124409453,-0.0212406005233938,0.16545269867464246,-1.4998691427406947
1.0507021342167755,0.37714937962449113,-0.020690156989238376,0.1515551078474814,-1.4389160438369082
1.046829799769697,0.3496543711315283,-0.020071258243166717,0.13786603418367835,-1.3696035000581261
1.0430824224599586,0.32473887900383147,-0.0193748187014467,0.12440230400259288,-1.2915083754660304
1.0394757652652935,0.3023584938742019,-0.018589993873975415,0.11118069736191093,-1.204271353489548
1.0360278822676974,0.2824657269050235,-0.017703511363878204,0.09821684968207682,-1.1076432468727229
1.0327596776469543,0.26501038083539186,-0.01669864253867931,0.08552363526144804,-1.0015490743047906
1.0296957142487204,0.24994028080885755,-0.015553603758520164,0.07310899659679213,-0.8861719469124911
1.026865412124293,0.23720245151119457,-0.014239050182820349,0.06097341706280568,-0.7620534501923159
1.0243048634702208,0.22674473797354722,-0.012714093544257014,0.04910777807030546,-0.6301950661109085
1.0220596515714566,0.21851762569116318,-0.01091971591641871,0.037493403849490986,-0.4921240442400749
1.0201894496511643,0.21247548969380148,-0.008766620086658752,0.02610802770165751,-0.34986116408407236
1.0187764672708535,0.2085753510877808,-0.006106878653454655,0.014946062888047363,-0.20571441628573553
1.0179461600199067,0.20676724424063053,-0.002633197672300356,0.004086640766133288,-0.06185222435220625
