x,y,v_x,v_y,omega
2.375,32.48,0.0,2.1025641025641026,-5.673469387755102
2.374271331404969,32.08416359307787,-0.007670195737169958,2.064134917668826,-5.421190816961511
2.3721638427696154,31.69552740767402,-0.014513895161286608,2.0267722971085282,-5.184854456098068
2.3688267739987774,31.3138938890154,-0.020613144531746112,1.9904226361400879,-4.963099272055496
2.3643946265864826,30.93907529097993,-0.0260410387555666,1.9550362905490883,-4.754705910583827
2.35898875919312,30.57089296248507,-0.030862828542985814,1.920567167291574,-4.558579449507953
2.352718787715043,30.20917670646922,-0.03513687122625145,1.8869723697173635,-4.373734564954218
2.3456838171539562,29.853764201924303,-0.03891545046939351,1.8542118886501433,-4.199282726753496
2.337973528239781,29.50450048094479,-0.04224548546929551,1.8222483321868175,-4.034421107942373
2.329669138195615,29.161237453994058,-0.04516914657455779,1.7910466883472282,-3.8784229483159405
2.32084425209648,28.82383347760722,-0.04772439131107278,1.760574115724751,-3.730629156310469
2.311565618840274,28.492152959592776,-0.04994543243846473,1.7307997581115224,-3.5904409694074886
2.3018938037227765,28.16606599749686,-0.05186314774571621,1.7016945797401797,-3.4573135225115297
2.2918837879123166,27.845448046680318,-0.05350543973281057,1.673231218328738,-3.3307501977202696
2.281585503693398,27.530179614850752,-0.05489755204527983,1.6453838535614271,-3.2102976486336505
2.271044313144089,27.220145980306906,-0.05606234847376244,1.6181280890053638,-3.095541408663644
2.2603014368906624,26.91523693150361,-0.05702055945704356,1.591440845766174,-2.986102006358992
2.2493943387137416,26.615346525844284,-0.0577910003000169,1.5653002664372517,-2.8816315220643824
2.238357071037765,26.320372865862595,-0.058390764710261576,1.5396856281068458,-2.7818105297012696
2.2272205856993486,26.03021789117302,-0.05883539674675777,1.514577263362362,-2.6863453754162974
2.2160130138431975,25.744787184757655,-0.0591390438443058,1.4899564883783027,-2.59496575155737
2.2047649199163315,25.463996040711358,-0.05926194485954791,1.4657397647406287,-2.5043996191588067
2.1935026535645137,25.187762802848603,-0.05928822726484666,1.4419785285515188,-2.4178455533077465
2.1822436939809884,24.91600246445591,-0.05922713677226253,1.41865661242421,-2.3350789105226974
2.1710038416216415,24.64863301956356,-0.059087098589284556,1.3957585969689392,-2.255890037338217
2.159797366909558,24.385575325093065,-0.058875793116856284,1.3732697658784199,-2.1800831061623414
2.1486371452694497,24.12675297122214,-0.05860022414744035,1.3511760643418125,-2.107475054229604
2.137534779840345,23.87209215936319,-0.05826678036945596,1.3294640604892314,-2.037894615376129
2.126500713070707,23.62152158720469,-0.05788129088989052,1.3081209096002384,-1.9711814355038995
2.115544328272742,23.374972340313118,-0.057449075404475254,1.2871343208373893,-1.9071852636018607
2.104674042099899,23.132377789835996,-0.056974989572822696,1.2664925262902105,-1.8457652110709544
2.093897388811654,22.893673495885462,-0.05646346609290964,1.2461842521364517,-1.7867890728745819
2.083221097100995,22.658797116216586,-0.05591855191403055,1.2261986917464582,-1.7301327047191228
2.072651160181176,22.427688319846204,-0.05534394197880169,1.2065254805733425,-1.675679451072812
2.0621928997581924,22.20028870528651,-0.0547430098420774,1.1871546726866054,-1.6233196193656116
2.051851024452881,21.976541723093362,-0.054118835476986336,1.1680767188201764,-1.572949996186459
2.0416296831807874,21.756392602452763,-0.05347423054505522,1.1492824458177362,-1.524473401714919
2.0315325139480973,21.539788281550038,-0.05281176137799924,1.1307630373687991,-1.4777982789983681
2.021562688477377,21.32667734148584,-0.05213376989273832,1.1125100159385561,-1.4328383150189972
2.0117229530369447,21.117009943520394,-0.05144239263812956,1.094515225803009,-1.3895120907920542
2.002015665811937,20.91073776944379,-0.05073957815142632,1.0767708171085941,-1.3477427580021113
1.9924428311230458,20.707813964884643,-0.05002710278426987,1.0592692308824008,-1.3074577399214409
1.9830061307700673,20.508193085382914,-0.04930658514181819,1.0420031849253129,-1.2685884545670731
1.9737069527514974,20.311831045065034,-0.04857949926418071,1.024965660526019,-1.2310700582436052
1.9645464175880876,20.118685067770866,-0.04784718666644999,1.008149889938924,-1.1948412077898298
1.9555254024572732,19.928713640492177,-0.04711086734212192,0.9915493445735983,-1.159843840000926
1.9466494079601875,19.742098203658585,-0.04632065367983337,0.9728236747273739,-1.1716261942819186
1.9379207378202883,19.559029372185496,-0.0455600846348952,0.9542166565682837,-1.1853010882684611
1.929333793236485,19.379484905368557,-0.04482880572092868,0.9357250993995051,-1.2007418992669088
1.9208830513713833,19.203443155852618,-0.04412637180645719,0.9173459481366903,-1.2178247062102079
1.9125630818473804,19.03088304429629,-0.043452254761994796,0.8990762787719936,-1.2364280143733053
1.904368561849006,18.861784034853436,-0.04280585048405021,0.8809132943106971,-1.2564324856676694
1.8962942899460196,18.696126111382704,-0.0421864853368608,0.8628543211706631,-1.2777206733958322
1.8883351987443666,18.533889754297878,-0.041593422048959244,0.844896806038043,-1.3001767603544752
1.8804863664653908,18.37505591797255,-0.04102586509815378,0.8270383131759396,-1.3236862991743321
1.8727430275476276,18.219606008613155,-0.04048296561514341,0.8092765221860883,-1.348135953776982
1.8651005823600764,18.0675218625139,-0.03996382583276501,0.7916092262271345,-1.3734132408122912
1.8575546061110122,17.91878572460613,-0.0394675031047526,0.7740343306967856,-1.3994062699156318
1.8501008570321495,17.773380227212975,-0.03899301351485486,0.7565498523890553,-1.4260034815907703
1.8427352839142914,17.63128836891752,-0.038539335094177576,0.7391539191420486,-1.453093381482183
1.835454033067486,17.492493493449373,-0.03810541066166751,0.7218447699963251,-1.4805642697491435
1.8282534547761555,17.35697926849028,-0.03769015029970462,0.7046207558888772,-1.5083039641928735
1.8211301093176733,17.224729664294077,-0.03729243347379263,0.6874803409132682,-1.536199515716973
1.8140807726114443,17.095728932009976,-0.03691111080230348,0.670422104182547,-1.5641369146199082
1.8071024415647103,16.969961581590493,-0.03654500547910689,0.6534447423383136,-1.5920007861262655
1.8001923391810717,16.847412359156454,-0.03619291434866824,0.6365470727568331,-1.6196740734606538
1.7933479194981183,16.728066223680962,-0.03585360862978833,0.6197280375115166,-1.6470377066546675
1.7865668724216364,16.61190832284212,-0.035525834280547196,0.6029867081605241,-1.673970255153656
1.7798471285256348,16.498923967880177,-0.03520831199315475,0.5863222914388329,-1.7003475621571855
1.773186863889976,16.389098607278616,-0.034899736803253305,0.5697341359460153,-1.726042358486759
1.7665845050507651,16.282417799069982,-0.03459877729370331,0.5532217399343167,-1.7509238536294465
1.7600387341429085,16.178867181546146,-0.03430407436794726,0.5367847603165912,-1.7748573014609674
1.7535484943195054,16.078432442128182,-0.034014239562610266,0.520423023030375,-1.7977035380130515
1.7471129955390756,15.981099284123562,-0.033727852862967436,0.5041365349129836,-1.819318488527245
1.7407317208191668,15.886853391066836,-0.03344345997817599,0.4879254972630836,-1.8395526409446792
1.7344044330638084,15.795680388304607,-0.03315956902559583,0.47179032128671267,-1.8582504829385604
1.7281311825827086,15.707565801445615,-0.03287464656493025,0.4557316456500538,-1.8752498996315352
1.7219123154322977,15.622495011252088,-0.032587112913080536,0.43975035638706395,-1.8903815292933857
1.7157484827229292,15.540453204498839,-0.03229533665921839,0.4238476094366145,-1.9034680746416723
1.7096406510531124,15.461425320271918,-0.03199762828622228,0.40802485610992467,-1.9143235679473507
1.7035901142509935,15.38539599111926,-0.03169223278871303,0.39228387181278734,-1.9227525890888566
1.697598506625996,15.312349478402343,-0.03137732115862743,0.3766267883652846,-1.9285494371553906
1.691667817960316,15.242269601132033,-0.03105098058537388,0.36105613026955796,-1.931497258388353
1.6858004105019089,15.175139657506115,-0.03071120318733244,0.345574855266411,-1.9313671364705194
1.6799990382591612,15.110942338304913,-0.030355873052117597,0.3301863994830938,-1.9279171558481851
1.6742668689447058,15.049659631251856,-0.029982751310571498,0.31489472739116586,-1.9208914554947703
1.6686075089749173,14.991272715418834,-0.029589458897727842,0.29970438664066457,-1.9100193001268406
1.663025032007051,14.935761844767931,-0.02917345655349631,0.2846205675793602,-1.8950142095314988
1.6575240115946395,14.883106219996971,-0.028732021471887942,0.26964916685180246,-1.8755732059914672
1.6521095586740566,14.83328384803248,-0.028262219797405133,0.2547968538270417,-1.8513762670826124
1.6467873647770686,14.78627138884514,-0.027760873855100496,0.2400711376186249,-1.8220861095368606
1.641563752120398,14.742043989827962,-0.02722452253090368,0.22548043098323514,-1.7873484837695557
1.6364457320921342,14.70057510889022,-0.026649372503454775,0.21103410520351434,-1.7467932339623986
1.63144107419593,14.661836328841229,-0.026031236930272643,0.19674252689113164,-1.700036483039905
1.62655838832061,14.625797167789884,-0.025365456494149247,0.18261706312302978,-1.6466844452401244
1.6218072244206416,14.592424893466173,-0.024646795084466024,0.1686700350212915,-1.5863395624707424
1.617198195548711,14.561684353955695,-0.02386929830427885,0.1549145914047819,-1.5186099147066052
1.6127431330263184,14.533537843754743,-0.02302609666827516,0.1413644633420782,-1.4431231730134926
1.6084552869097437,14.507945032676407,-0.02210912561145846,0.12803354800881786,-1.3595467293987082
1.6043495916193573,14.484862996019277,-0.021108719550502055,0.1149352589083232,-1.2676159836243723
1.6004430268569116,14.464246396672419,-0.020013014791032555,0.1020815763217601,-1.1671729198619525
1.5967551195112377,14.446047880446642,-0.018807062531850587,0.0894817523706421,-1.0582166886635693
1.5933086558103937,14.43021874751226,-0.017471502740190027,0.0771406995702264,-0.9409662082271779
1.59013070899841,14.416709940205976,-0.01598056896490295,0.0650572720748554,-0.8159306713313863
1.5872541459683094,14.405473313326148,-0.014299041878261053,0.053223010870706876,-0.6839759540608722
1.5847198842101673,14.39646298362132,-0.012377397681129847,0.04162256496959509,-0.5463628956427818
1.5825804229452252,14.38963622007627,-0.010143247212998559,0.030238103925664943,-0.4047203987178367
1.5809059425621568,14.384952655579486,-0.007482862082455934,0.019062574987859654,-0.2609111678943668
1.579797441047473,14.382368592304566,-0.004185574914214915,0.008138091063940126,-0.11676304823151606
