x,y,v_x,v_y,omega
2.375,32.48,0.0,2.8205128205128203,-4.448979591836735
2.374166822050502,31.94983378811936,-0.008770294205238827,2.760184146651789,-4.197201709846171
2.371777719661198,31.430925125016618,-0.016378151997964926,2.702012307061284,-3.966469156026718
2.3680396645895834,30.922876252651395,-0.022969796124293996,2.64587055994104,-3.754476487541383
2.363133745108954,30.42531250429266,-0.028671461566539175,2.5916425806772545,-3.5592189613700045
2.357218676618759,29.937880435001567,-0.03359241727762389,2.5392213065973728,-3.3789476362856465
2.3504337861607834,29.460246155824823,-0.037827482280010746,2.488507947894693,-3.2121320034548355
2.3429015580243586,28.992093842927435,-0.041459129682356405,2.4394111352357153,-3.0574287436049876
2.334729811665091,28.533124397914534,-0.0445592530467769,2.391846180689565,-2.9136554965784986
2.326013570426413,28.083054239583987,-0.04719065472878268,2.345734433316154,-2.779768752175111
2.3168366693240614,27.64161421055269,-0.04940830424333664,2.3010027143817613,-2.654845145369674
2.3072731418884285,27.20854858478624,-0.05126040560543176,2.2575828200019115,-2.5380655759528397
2.297388419345047,26.783614164168654,-0.05278930537753155,2.215411081235818,-2.4287016810319955
2.2872403699311077,26.366579453976584,-0.05403226740077538,2.1744279734175542,-2.326104275125649
2.276880201648933,25.95722390855014,-0.05502213556948451,2.1345777679134326,-2.2296934416752188
2.2663532480528343,25.555337239639183,-0.05578790228418526,2.095808220622951,-2.1389500154035375
2.2556996536018947,25.16071878089699,-0.05635519719938854,2.0580702924527654,-2.053408239920631
2.244954972567689,24.773176902829093,-0.056746708423830165,2.021317897735637,-1.9726494215154216
2.234150693367013,24.39252847321262,-0.056982546320126684,1.985507677174561,-1.8962964298868354
2.2233146984186325,24.018598358603644,-0.05708055839967019,1.9505987923936448,-1.8240089209958765
2.2124716681381376,23.651218963064913,-0.057056602447647695,1.9165527395929811,-1.7554791773121954
2.2016434364363127,23.290229800689204,-0.056924783887351005,1.8833331801513074,-1.6904284773148308
2.19084930403344,22.93547709887531,-0.056697662458675156,1.8509057863107627,-1.6286039198466133
2.1801063150116176,22.58681342964512,-0.05638643250787606,1.819238100322797,-1.5697756403415044
2.169429501272437,22.24409736657851,-0.05600108053613206,1.7882994056415187,-1.5137343654657769
2.158832098926005,21.9071931651945,-0.05555052311051799,1.7580606089270245,-1.460289260677057
2.148325740091002,21.575970464828107,-0.05504272778424839,1.7284941317718523,-1.4092660318843464
2.137920623119091,21.250304010246456,-0.054484819288505425,1.699573811192893,-1.3605052480099407
2.1276256638579896,20.930073391419104,-0.053883172933613485,1.6712748080423914,-1.313860855992017
2.117448630225436,20.615162800009227,-0.05324349688274146,1.6435735225878827,-1.2691988637727705
2.10739626207237,20.30546080128691,-0.05257090472847653,1.616447516594417,-1.2263961702128128
2.097474378060715,20.000860120285502,-0.051869979604735175,1.5898754413151122,-1.1853395237580562
2.0876879710629597,19.70125744112891,-0.051144830897949196,1.5638369708595838,-1.145924594142874
2.078041293402279,19.40655321855303,-0.050399144477636895,1.538312740465433,-1.1080551435111905
2.0685379330887734,19.116651500730363,-0.04963622724347603,1.513284289246861,-1.0716422851318657
2.0591808820659847,18.831459762583343,-0.048859046680614644,1.4887340070375525,-1.036603819423372
2.049979487935086,18.550890813829103,-0.04799773364463305,1.4646233482702424,-1.0005483003277473
2.040941555615151,18.274860469763496,-0.0471383960388961,1.4409592208414095,-0.9660776995462981
2.0320665675493093,18.003285354113025,-0.04628253096996231,1.417726207058289,-0.9331040698885487
2.0233537398239285,17.736084955511956,-0.04543144508668065,1.3949095676897911,-0.9015452666212447
2.0148020564102302,17.473181502177322,-0.04458627505751116,1.3724952042537464,-0.8713245036223132
2.0064102997251365,17.21449984351173,-0.04374800583821267,1.3504696238050773,-0.842369948024239
1.998177077907505,16.959967338177286,-0.04291748697895967,1.3288199060312118,-0.8146143496222782
1.990100849161429,16.70951374821889,-0.042095447190261794,1.3075336724782274,-0.7879947017201405
1.9821799434790472,16.463071138847525,-0.04128250736112559,1.2865990577466695,-0.7624519304367563
1.97441258202072,16.22057378352315,-0.04047919220021432,1.2660046825099107,-0.7379306098083217
1.9667968943998644,15.981958074003764,-0.039685940650896964,1.2457396282204833,-0.7143787002950326
1.9593309340927314,15.747162435051607,-0.03890311521365988,1.2257934133811705,-0.691747308546124
1.9520126921694976,15.516127243509942,-0.038131010294065286,1.2061559712679173,-0.6699904664938133
1.944840109521866,15.288794751484403,-0.037369859681003814,1.186817629000927,-0.6490649280397918
1.9378110877435948,15.065109013381782,-0.036619843248166875,1.1677690878687537,-0.6289299817698688
1.9309234988037,14.845015816576552,-0.03588109296125212,1.1490014048178694,-0.6095472782857543
1.9241751936372786,14.628462615491276,-0.035153698264235374,1.1305059750271533,-0.590880670879924
1.917564009765732,14.415398468891851,-0.034437710909939544,1.1122745154931024,-0.5728960684019692
1.9110877780464552,14.205773980212058,-0.03373314929297279,1.094299049557342,-0.5555612992744345
1.904744328641629,13.999541240734349,-0.0330400023367773,1.0765718923132954,-0.5388459857143724
1.8985314962864472,13.796653775465387,-0.0323582329809261,1.0590856368336865,-0.5227214273049492
1.8924471249288244,13.597066491555516,-0.031687781309840096,1.0418331411649562,-0.5071604931405772
1.8864890718052187,13.400735629121169,-0.03102856735969397,1.0248075160387056,-0.49213752184018544
1.8806552110105925,13.207618714338363,-0.03038049363637088,1.0080021132539687,-0.47762822878727323
1.8749434366146212,13.017674514683922,-0.0297434473738536,0.9914105146875041,-0.46360962001307365
1.8693567585182265,12.831068734955288,-0.029063690482932204,0.9728608508770795,-0.49312053250420945
1.863895198657782,12.647977061260239,-0.028426413311217973,0.9544199248602977,-0.5241073129821484
1.8585507953777034,12.468379102390237,-0.02783046332119131,0.9360849053502344,-0.5564614457699109
1.8533158095650522,12.292254994451522,-0.027274650496188695,0.9178530729520172,-0.590076432732435
1.8481827313425347,12.11958537993662,-0.026757751846099305,0.8997218166785241,-0.6248475561553599
1.8431442859465839,11.950351387421186,-0.0262785154797,0.8816886308523484,-0.6606716449285818
1.8381934388701966,11.784534611813275,-0.025835664271744184,0.8637511123888321,-0.697446843036625
1.833323400345137,11.62211709508285,-0.02542789914993436,0.845906958457754,-0.735072379349725
1.82852762923361,11.46308130739957,-0.02505390202403675,0.8281539645241508,-0.7734483376935586
1.823799836395548,11.307410128606456,-0.024712338376614323,0.8104900227717822,-0.812475426151447
1.8191339875942165,11.155086829956119,-0.024401859532136937,0.7929131209159725,-0.8520547445201746
1.8145243059999014,11.006095056034582,-0.024121104618548824,0.7754213414160152,-0.8920875487987854
1.809965274349032,10.860418806795458,-0.023868702232707862,0.7580128611010636,-0.9324750115382414
1.805451636814174,10.718042419624243,-0.0236432718184311,0.740685951227523,-0.9731179768179412
1.800978400638923,10.578950551348534,-0.02344342476315796,0.7234389779904548,-1.0139167085419831
1.7965408375908605,10.443128160105374,-0.02326776521644583,0.7062704035164996,-1.054770630662825
1.7921344852853904,10.310560486971024,-0.023114890630609796,0.6891787873714025,-1.0955780578416223
1.7877551484335088,10.181233037251701,-0.022983392020773215,0.6721627886214783,-1.1362359149419328
1.7833989000673904,10.055131561325595,-0.022871853938369827,0.6552211684954183,-1.1766394436255005
1.7790620827991197,9.93224203491695,-0.022778854148688556,0.6383527937008333,-1.216681894174265
1.774741310170058,9.812550638671766,-0.02270296299933125,0.6215566404590122,-1.256254200500393
1.7704334681511926,9.696043736891646,-0.022642742462408768,0.6048317993317344,-1.2952446361248817
1.766135716858521,9.58270785526718,-0.022596744828872813,0.5881774809257952,-1.333538448704197
1.7618454925520703,9.47252965743466,-0.022563511028503066,0.5715930225744327,-1.371017470462911
1.757560509992714,9.365495920159606,-0.022541568543666225,0.5550778961103329,-1.4075597016483754
1.7532787652375657,9.261593506927174,-0.02252942887894986,0.5386317168626348,-1.443038863862032
1.7489985389625704,9.16080933969231,-0.022525584542051336,0.5222542540306694,-1.4773239198433281
1.7447184004101186,9.063130368511409,-0.022528505483757493,0.5059454426104038,-1.5102785559908032
1.7404372120702083,8.968543538741194,-0.022536634936352423,0.48970539707607635,-1.5417606236082535
1.7361541352161374,8.87703575544925,-0.022548384580182965,0.4735344270496604,-1.5716215345740452
1.7318686364300853,8.788593844633166,-0.02256212895720871,0.45743305522490313,-1.5997056068672326
1.7275804952705465,8.703204510790954,-0.022576199037937172,0.4414020378509932,-1.6258493551733157
1.7232898132527206,8.62085429032338,-0.02258887483391162,0.4254423881234642,-1.6498807216770355
1.7189970243350055,8.541529500178381,-0.02259837693151219,0.40955540287650355,-1.6716182421910848
1.714702907130154,8.465216181068154,-0.022602856803766752,0.3937426930206354,-1.6908701430578852
1.7104085990890203,8.391900034500182,-0.022600385734483103,0.37800621822117725,-1.7074333649273086
1.7061156129388186,8.321566352764687,-0.02258894216237502,0.36234832636298164,-1.721092510745972
1.7018258556974355,8.254199940913086,-0.02256639722060427,0.34677179839072525,-1.7316187173680173
1.6975416506317869,8.189785029647375,-0.022530498207277684,0.3312798991430864,-1.7387684535106462
1.6932657625832706,8.128305177922758,-0.02247884967184218,0.31587643480024086,-1.7422822519059942
1.6890014271495035,8.069743163952698,-0.022408891736229068,0.3005658175161947,-1.7418833912791052
1.6847523842924168,8.014080863209262,-0.02231787518047456,0.2853531376778529,-1.7372765554215084
1.6805229170439278,7.961299111952627,-0.022202832698356226,0.2702442439709208,-1.7281465138909609
1.6763178961103398,7.9113775548340435,-0.022060545549940577,0.2552458309615311,-1.7141568943065555
1.672142831348631,7.864294475247764,-0.021887504573307296,0.2403655331045836,-1.6949491535338
1.6680039313231942,7.82002660743791,-0.021679864115501726,0.22561202278862097,-1.670141909632286
1.6639081724845046,7.778548930016807,-0.02143338681807226,0.21099510795981327,-1.6393308759823706
1.6598633799972988,7.739834441703934,-0.0211433762051483,0.1965258216493721,-1.602089754475064
1.6558783229760294,7.7038539220203255,-0.020804592439793636,0.18221649080966726,-1.5579726112893668
1.6519628280092031,7.670575682766753,-0.020411144053115275,0.1680807644910915,-1.506518497038364
1.648127916617919,7.639965320932461,-0.019956344276191734,0.15413357060673255,-1.4472594084928503
1.6443859751027765,7.611985490971353,-0.01943251377793937,0.14039095529965057,-1.3797331490787272
1.6407509697511444,7.586595725051133,-0.01883070044976563,0.12686973859738654,-1.3035032475249677
1.6372387276812845,7.563752344801973,-0.018140268706656505,0.1135868956043061,-1.218188815166074
1.6338673154163823,7.543408527510383,-0.017348281450206667,0.10055854957032166,-1.1235079252506632
1.6306575663267933,7.525514611751909,-0.016438551071785223,0.0877984584136311,-1.019338377015898
1.6276338385960596,7.510018744915868,-0.015390161883305714,0.07531592933415758,-0.9057986082706424
1.6248251342451154,7.496867969219693,-0.014175147074000014,0.06311328852030713,-0.7833471442211214
1.6222667901714058,7.486009773598106,-0.012754790543996076,0.05118350749639769,-0.6528883053484397
1.6200030986014617,7.477393932879327,-0.01107354177120359,0.039509552701272696,-0.5158520724000125
1.6180915480289673,7.4709739897156915,-0.009048043202425084,0.02806879638963166,-0.37418913594175335
1.6166104174870637,7.466706730478357,-0.0065428046070849484,0.0168497218980814,-0.230203094210312
1.6156761713857504,7.464544943098559,-0.003291364880424138,0.005905934731353764,-0.08615881795397912
