x,y,v_x,v_y,omega
2.375,32.48,0.0,2.923076923076923,-4.326530612244898
2.373736946019148,31.816212840479004,-0.010983078094365223,2.8489853336273576,-4.025776074367575
2.370149941851583,31.169086152754897,-0.020208262493155,2.7782032552779263,-3.7564051424775595
2.364612240376828,30.53788596449005,-0.027945663374281712,2.7104940339815813,-3.5141867910201965
2.35744014257253,29.921930025687452,-0.03442040448917708,2.645644564301907,-3.295563405662974
2.348902396373673,29.32058275305944,-0.039820866805236346,2.5834621542025427,-3.097528864784731
2.339227890607526,28.733250833620907,-0.04430527029168844,2.523771927871664,-2.917531258619408
2.328611983929051,28.159379376809458,-0.04800696169505318,2.4664146530974467,-2.7533947508129906
2.3172217343407273,27.598448527320343,-0.051038686899065044,2.4112449076774802,-2.603256429860557
2.305200238343013,27.049970468184775,-0.053496060907145274,2.358129519588312,-2.465514983263865
2.292670245366148,26.51348675692657,-0.055460399761246774,2.3069462304830286,-2.3387887583176
2.279737179550481,25.988565947964403,-0.05700104211411868,2.257582543101038,-2.2218813212181803
2.2664916747586084,25.47480146254125,-0.05817726042390678,2.209934721448114,-2.1137530403588602
2.253011708149854,24.9718096739024,-0.059039840521780004,2.1639069188897317,-2.013497535414582
2.2393644014152287,24.479228180605496,-0.05963239195322296,2.1194104141268384,-1.920322076355558
2.225607545877864,23.99671424502263,-0.059992438806471336,2.0763629387676334,-1.8335312041429845
2.2117908973692675,23.523943377502924,-0.060152330833498156,2.0346880831428593,-1.7525129909376194
2.1979572785315824,23.06060804946825,-0.06014000688550456,1.9943147693325745,-1.6767274720802636
2.1841435195379946,22.606416521039243,-0.0599796365369975,1.955176782224004,-1.6056968722497504
2.1703812628336783,22.161091770728838,-0.05969216089184012,1.9172123509099588,-1.538997319601128
2.156697653118892,21.724370516370442,-0.05929574967151812,1.8803637739456602,-1.4762517985189936
2.143115930221511,21.296002317825245,-0.058806188566580195,1.8445770829690777,-1.4171241370751475
2.1296559395792745,20.87574875318355,-0.05823720832243126,1.809801740002159,-1.361313861798133
2.1163345726468226,20.463382661174663,-0.05760076500323593,1.7759903644229917,-1.3085517818276293
2.1031661475595724,20.05868744335769,-0.056907279233722186,1.7430984861593737,-1.2585961883986567
2.0901627387463986,19.661456420405116,-0.05616584088083435,1.711084322123879,-1.211229575016705
2.07733446282246,19.271492237430667,-0.055384384544719056,1.6799085733060957,-1.1662557995360898
2.064689726961465,18.888606313869115,-0.054569840333497564,1.649534240272617,-1.1234976223412059
2.052235445002134,18.51261833390009,-0.05372826366068645,1.6199264551102042,-1.0827945655080582
2.0399772257534146,18.143355773831967,-0.05286494719774126,1.5910523280908542,-1.0440010466314433
2.0279195373001953,17.780653463233705,-0.05198451761286253,1.5628808075461904,-1.0069847482921332
2.016065850553887,17.424353176929795,-0.05109101931155589,1.5353825516182582,-0.9716251901889887
2.004418764822435,17.074303255262155,-0.05018798704889854,1.5085298107090428,-0.9378124759985291
1.992980117777334,16.73035825027827,-0.049278508995455515,1.4822963195855972,-0.9054461912308042
1.9817709828432393,16.392380960155254,-0.04819222956189089,1.4566366380058704,-0.8696082554932204
1.970810007027822,16.06023958801449,-0.04712060361564942,1.4315492066964257,-0.8355946224126026
1.9600936812469034,15.733805103339087,-0.04606483795755521,1.4070115296114323,-0.8032889309194365
1.949618245478084,15.41295351819549,-0.04502590785826762,1.3830022542459357,-0.7725836477638363
1.9393797384711295,15.097565632589749,-0.044004587854378344,1.3595010988474645,-0.7433792925869142
1.9293740408294722,14.787526795930066,-0.043001478594817066,1.3364887851497635,-0.7155837400025759
1.9195969123113317,14.482726683381571,-0.04201703025857737,1.3139469761414924,-0.6891115901637715
1.9100440240874355,14.183059086005649,-0.04105156299269464,1.2918582184317344,-0.6638836003256801
1.9007109865961231,13.88842171367197,-0.04010528475784821,1.2702058888176277,-0.6398261708189911
1.8915933735535961,13.598716009817668,-0.03917830691629912,1.2489741446980462,-0.6168708796291145
1.8826867426052698,13.313846977206055,-0.03827065785175516,1.2281478780116284,-0.5949540604585057
1.8739866530420337,13.033723013907785,-0.03738229487203673,1.2077126724080953,-0.574016419743516
1.8654886809513531,12.758255758791101,-0.036513114612142836,1.1876547633891616,-0.5540026886162963
1.8571884321263887,12.487359945865666,-0.03566296212667914,1.1679610011798252,-0.5348613062565655
1.8490815530156888,12.220953266877022,-0.034831638835929275,1.1486188161127409,-0.5165441314762474
1.8411637399606735,11.95895624159633,-0.03401890946855029,1.1296161863280634,-0.499006179729568
1.8334307469373616,11.701292095293589,-0.03322450812546624,1.1109416076088103,-0.48220538304860183
1.825878391991968,11.44788664292199,-0.03244814357360737,1.0925840651877052,-0.4661023706749683
1.8185025625366038,11.19866817957719,-0.031689503864343986,1.0745330073757822,-0.45066026839713214
1.8112992196508622,10.95356737682824,-0.0309482603594962,1.0567783208759585,-0.43584451481364267
1.8042644015172182,10.71251718454701,-0.030224071237407304,1.0393103076564547,-0.42162269292916865
1.797394226102525,10.475452737890524,-0.029516584542533135,1.0221196632695015,-0.4079643756553922
1.790684893184208,10.242311269115845,-0.02882544083413561,1.0051974565103254,-0.3948409839353497
1.7841326858077586,10.01303202393035,-0.028150275482817233,0.9885351103200785,-0.3822256563399372
1.7777396342292402,9.787662860673315,-0.027441477373865045,0.9711967440889145,-0.3887856203830315
1.7715059540581244,9.566266724575161,-0.026764437157576405,0.9539870480689532,-0.3977462786988533
1.7654243169976398,9.348814466460372,-0.026119363368376346,0.9369021529292292,-0.40897621112149035
1.7594873626600682,9.13527780863594,-0.025506326523549398,0.9199383498919195,-0.42234830537012696
1.7536877288942707,8.925629308848048,-0.024925271439907675,0.9030920830462726,-0.43773944616786103
1.7480180793954712,8.719842325940355,-0.02437602854965419,0.886359942238025,-0.4550302173331384
1.7424711288187305,8.51789098708521,-0.023858324291569068,0.8697386565023869,-0.47410461555066186
1.737039665600757,8.319750156466032,-0.023371790647328812,0.8532250880121895,-0.4948497745883371
1.7317165726793173,8.12539540529528,-0.022915973886930327,0.8368162265161108,-0.5171556987775964
1.7264948462854153,7.93480298305774,-0.022490342581781834,0.8205091842450905,-0.540915004616649
1.7213676129705258,7.747949789873719,-0.022094294938997294,0.8043011912681272,-0.5660226693901325
1.71632814501938,7.564813349880495,-0.02172716550574687,0.788189591281653,-0.5923757857244554
1.7113698743880836,7.385371785533845,-0.021388231288134742,0.7721718378196502,-0.6198733210159292
1.7064864052975777,7.209603792734004,-0.02107671732496056,0.7562454908746284,-0.6484158806785952
1.701671525603631,7.037488616682328,-0.020791801752837433,0.7404082139225668,-0.6779054741603767
1.6969192170565774,6.869006028376216,-0.02053262039545451,0.7246577713479723,-0.7082452826696569
1.692223664556881,6.704136301650337,-0.02029827090625406,0.7089920262683592,-0.7393394275393429
1.6875792645062644,6.542860190671988,-0.020087816490410068,0.6934089387607569,-0.7710927381315607
1.6829806323485648,6.385158907797422,-0.019900289228716832,0.6779065644963466,-0.803410518152886
1.6784226093896415,6.231014101694139,-0.01973469302279075,0.6624830537930769,-0.8361983092068892
1.6739002689815707,6.080407835631416,-0.01959000617782455,0.6471366511001624,-0.8693616503570998
1.6694089221529835,5.933322565837624,-0.01946518363597831,0.6318656949327981,-0.9028058324085034
1.6649441227647601,5.7897411198181175,-0.01935915887031119,0.6166686182803125,-0.9364356455384903
1.6605016722683938,5.649646674521495,-0.01927084544591635,0.6015439495164043,-0.9701551188177916
1.6560776241431818,5.513022734234799,-0.019199138251579925,0.5864903138461807,-1.003867250057277
1.6516682880880431,5.3798531080793595,-0.019142914401802165,0.571506435331539,-1.0374737242963725
1.6472702340442207,5.250121886968653,-0.01910103380534935,0.5565911395441587,-1.0708746191120395
1.6428802961264566,5.123813419877099,-0.019072339392598964,0.5417433569041291,-1.1039680947724921
1.6384955765424871,5.000912289254316,-0.019055656989743163,0.5269621267722319,-1.1366500670858943
1.6341134495839795,4.8814032854023495,-0.01904979482336508,0.5122466023753063,-1.1688138606001006
1.6297315657763907,4.765271379613612,-0.01905354263393042,0.49759605665719453,-1.2003498395943182
1.625347856280793,4.652501695844318,-0.019065670371265324,0.4830098891627508,-1.2311450140671032
1.6209605376476088,4.543079480671448,-0.019084926439032698,0.4684876340795984,-1.2610826176679502
1.6165681170305457,4.4369900712503565,-0.019110035448472333,0.4540289695820594,-1.2900416542437734
1.6121693979790477,4.334218860954323,-0.019139695434119277,0.4396337286443176,-1.3178964093807044
1.6077634869394157,4.234751262335912,-0.019172574475725047,0.4253019115157868,-1.3445159230226853
1.6033498006086901,4.138572667002258,-0.019207306661018372,0.41103370008121354,-1.3697634189525771
1.5989280743016705,4.0456684019413345,-0.01924248731306624,0.3968294743616085,-1.3934956866465942
1.5944983715104037,3.956023681773008,-0.019276667393599744,0.3826898314499334,-1.415562410785848
1.5900610948575014,3.869623556326232,-0.019308346979463084,0.36861560721768943,-1.435805443570271
1.5856169986701734,3.7864528528610784,-0.019335967692955605,0.3546079011749591,-1.4540580149905409
1.5811672034314896,3.706496112160579,-0.01935790394777363,0.3406681049163517,-1.4701438764617711
1.5767132123997631,3.6297375176119253,-0.019372452849846688,0.32679793463714696,-1.483876373839073
1.5722569307269811,3.5561608162793483,-0.01937782256564947,0.31299946825482683,-1.4950574470102675
1.567800687454042,3.4857492308426927,-0.019372118938169106,0.2992751877160821,-1.5034765552732654
1.5633472608157404,3.418485361138856,-0.0193533300905398,0.28562802709988,-1.5089095309609561
1.5588999073541108,3.3543510739024605,-0.01931930870623935,0.27206142712963294,-1.5111173688674713
1.5544623954180086,3.29332737916663,-0.019267751607695224,0.2585793966602103,-1.509844966822217
1.5500390437242335,3.2353942916696568,-0.019196176164261194,0.24518658157435047,-1.5048198445183294
1.5456347657780414,3.1805306755443006,-0.019101892933061422,0.23188834125482766,-1.4957508852835253
1.5412551211093246,3.12871407058417,-0.01898197375143217,0.21869083231151035,-1.4823271715969757
1.536906374492196,3.0799204985511253,-0.01883321422359918,0.20560109841063168,-1.4642170237737084
1.5325955646076168,3.034124248409938,-0.018652089120567317,0.1926271636866318,-1.4410674081421058
1.5283305840257928,2.991297640207627,-0.01843469854746816,0.17977812502911708,-1.4125039646043889
1.5241202730006975,2.951410768791881,-0.018176701670752714,0.16706423510781843,-1.3781320256659633
1.5199745305046375,2.9144312310413056,-0.017873233077594915,0.15449696272328595,-1.3375391765759987
1.515904447387822,2.8803238442788768,-0.01751879402514818,0.14208900912390748,-1.2903001615692133
1.5119224688618909,2.8490503697933036,-0.017107106200340963,0.1298542472723777,-1.2359853020931257
1.5080425972347502,2.820569264877406,-0.016630907948708012,0.11780753460500358,-1.1741740878815397
1.5042806518882978,2.7948355006640497,-0.01608166028131126,0.10596432811984388,-1.1044762446685625
1.5006546133981808,2.7718005023064833,-0.01544910919796715,0.09434000542419668,-1.0265633313724571
1.4971850948746326,2.7514122926006195,-0.014720617093758227,0.08294877462678826,-0.9402145811443464
1.4938960099060323,2.7336159463734973,-0.013880121763634474,0.0718020621308035,-0.845380729809455
1.490815549016422,2.718354478666761,-0.012906494667760131,0.06090635271039195,-0.7422677236350159
1.487977645688047,2.705570264729559,-0.011770925578978877,0.05026072500440479,-0.6314360857162764
1.4854242308997585,2.69520696178974,-0.010432681275703785,0.03985495273314933,-0.5138979260649774
1.4832088083324997,2.687211560494884,-0.008831862787416446,0.029670275917760766,-0.39117004030794733
1.4814024921434399,2.681535439972862,-0.00687523450875489,0.019687293838941758,-0.26521445788988984
1.4801059092642832,2.6781314992386136,-0.004399399223043039,0.009912190806681273,-0.13818859947493742
1.4794839398768298,2.6769362317863497,-0.0010090302330740103,0.00048143921301030575,-0.011990785504596979
