x,y,v_x,v_y,omega
2.375,32.48,0.0,2.4615384615384617,-6.408163265306122
2.3738770833894174,31.992737193548123,-0.011229166105828086,2.411089602980276,-6.070100581839318
2.3706474173727896,31.515391833670957,-0.021067494060448347,2.3623639957913767,-5.758189702000845
2.365572845308583,31.047629545383707,-0.029678226581619872,2.3152588870811455,-5.4697457611291265
2.358884671839915,30.589135597044212,-0.037203508105058784,2.269680596313781,-5.202416543803552
2.3507875744163806,30.13961319769808,-0.043767466130283456,2.225543397147545,-4.954134534620561
2.3414629497445967,29.698782000340216,-0.04947878058755687,2.182768576431099,-4.723076879247409
2.3310717878759366,29.266376779008883,-0.05443283809904198,2.1412836368822203,-4.50763177760738
2.3197571493418145,28.842146253607023,-0.05871354724218202,2.101021617136373,-4.306370140999915
2.307646307103287,28.425852041060217,-0.06239487514309081,2.0619205083317036,-4.118021582734431
2.294852604227708,28.017267715165033,-0.06554215361270034,2.0239227506201396,-3.941453995906512
2.2814770695016278,27.616177960475763,-0.06821319364810026,1.9869747962725601,-3.7756561156022297
2.267609826159017,27.222377807987684,-0.07045923977800858,1.951026728608239,-3.61972257581953
2.253331323187153,26.835671942327423,-0.07232578994063422,1.9160319279943738,-3.4728410609313185
2.238713413995031,26.455874071752273,-0.07385330198058214,1.8819467777571113,-3.334281222936629
2.2238203033801325,26.082806353564944,-0.0750778041684036,1.8487304041161718,-3.2033850930784116
2.208709380545409,25.71629886862602,-0.07603142417882762,1.8163444452730637,-3.079558762699808
2.193431953271748,25.35618913953843,-0.07674284855778692,1.7847528456028399,-2.962265145796804
2.1780338961413155,25.002321687821794,-0.07723772274653533,1.7539216715635115,-2.8510176663990388
2.1625562238543714,24.65454762601764,-0.07753900012290732,1.7238189464780378,-2.745374739064613
2.147035599122599,24.312724281191187,-0.0776672471948175,1.6944145017864733,-2.6449349314958686
2.131504783304668,23.976714846739544,-0.07764091098449104,1.6656798427299844,-2.5493327154255407
2.1159930368331796,23.6463880597936,-0.07747655373039342,1.637588026729449,-2.458234726161435
2.1005264755328295,23.32161790182352,-0.07718905927311032,1.6101135529713708,-2.371336463049651
2.0851283881200997,23.002283320334136,-0.07679181485418479,1.5832322619224382,-2.288359373050306
2.0698195194825577,22.688267969775005,-0.07629687152123474,1.5569212436689157,-2.2090482679602834
2.0546183237423463,22.379459969995686,-0.07571508588088047,1.5311587541242493,-2.133169032842902
2.0395411905983787,22.075751680755992,-0.07505624555879287,1.5059241382727027,-2.0605065891600756
2.0246026480023125,21.777039490956472,-0.07432918040187185,1.481197759722486,-1.9908630811321728
2.00983067896343,21.483230063220816,-0.07339050998695436,1.456896517634077,-1.9194359778870635
1.9952495864519133,21.19423335525036,-0.07242041512821011,1.4330705620704636,-1.851272651760661
1.9808651395899215,20.909956025612836,-0.07142405349170733,1.4097027343047697,-1.7861851595646818
1.9666821302077628,20.63030808437056,-0.07040604032987985,1.3867766781179718,-1.7239984417760925
1.9527044758202712,20.35520273737294,-0.06937050354503782,1.364276791858262,-1.6645492977043501
1.9389353121723674,20.084556239789176,-0.06832113293399976,1.3421881839793737,-1.6076854532426885
1.9253770764522335,19.818287758215504,-0.06726122426733885,1.320496631757333,-1.5532647118445506
1.9120315821476803,19.55631924074823,-0.06619371877819219,1.2991885429154064,-1.5011541804129445
1.8989000864131445,19.29857529446531,-0.06512123856716644,1.2782509199138241,-1.4512295627087741
1.8859833507194095,19.04498306980547,-0.06404611837018469,1.2576713266846045,-1.4033745136912257
1.8732816954739948,18.79547215137572,-0.06297043408396133,1.2374378576128944,-1.3574800489137546
1.8607950492257839,18.549974454755926,-0.061896028398147104,1.2175391085850087,-1.3134440037257038
1.848522993001651,18.308424128903418,-0.060824533843183495,1.1979641499400853,-1.2711705375828941
1.8364648002645527,18.070757463791686,-0.059757393527797985,1.1787025011772196,-1.2305696792599576
1.824619472930851,17.836912802945633,-0.05869587980921973,1.1597441072833208,-1.191556909190764
1.812985773838724,17.606830460561408,-0.05764111111204744,1.1410793165589275,-1.1540527755479462
1.801562256018741,17.380452642922513,-0.05659406708778311,1.1226988598299972,-1.1179825410142632
1.790347289081368,17.15772337384518,-0.05555560228594744,1.1045938309433716,-1.0832758575025605
1.7793390830038673,16.938588423905607,-0.054526458489060375,1.0867556684523538,-1.049866466351907
1.7685357095702317,16.7229952432197,-0.053507275847296955,1.0691761384067209,-1.0176919217690668
1.757935121692097,16.510892897562165,-0.05249860293404807,1.0518473181686108,-0.9866933355002013
1.7475351708156226,16.302232007627087,-0.051500905830696525,1.0347615811821778,-0.9568151409106321
1.737333622598807,16.096964691245795,-0.05051457633745999,1.0179115826307508,-0.9280048748232028
1.7273281710253632,15.895044508390665,-0.04953993939697866,1.001290245920536,-0.9002129756206025
1.7175164511048369,15.696426408805138,-0.04857725980828345,0.9848907499347237,-0.8733925962559331
1.7079042666637827,15.501260300549319,-0.04754458460225827,0.9667703326234545,-0.8859311794020134
1.698494434269608,15.309706491652317,-0.04655373933948967,0.9487677563465717,-0.9004363615311258
1.689278666644018,15.121741739488595,-0.045603936916407455,0.9308797652906451,-0.9167841048023042
1.6802488409591732,14.937343439048064,-0.04469431993204211,0.9131032391146652,-0.9348534408551915
1.6713970122036121,14.756489596357245,-0.04382396762356749,0.8954351877935167,-0.954526193935818
1.6627154252204583,14.579158802884471,-0.0429919022079695,0.8778727469341996,-0.975686711645982
1.6541965255325155,14.405330210836116,-0.0421970946714595,0.8604131735493499,-0.9982216021800936
1.6458329690609128,14.234983509253613,-0.041438470044566134,0.8430538422756828,-1.0220194769368
1.6376176308367196,14.06809890082324,-0.040714912197366955,0.8257922420280446,-1.0469706974081727
1.6295436127983796,13.904657079312152,-0.040025268186032144,0.8086259730828486,-1.0729671252567248
1.6216042507619042,13.744639207545085,-0.0393683521787231,0.7915527445878228,-1.0999018744900193
1.6137931206454428,13.588026895836478,-0.03874294898589139,0.7745703724982503,-1.1276690646340042
1.6061040440251402,13.434802180792325,-0.03814781721713512,0.7576767779432779,-1.1561635737892826
1.5985310930950303,13.284947504395053,-0.03758169208396532,0.7408699860294536,-1.185280790429047
1.5910685951001247,13.138445693282861,-0.03704328786508935,0.724148125092476,-1.2149163627630368
1.583711136308805,12.995279938132388,-0.03653130004810763,0.7075094264122503,-1.2449659444482446
1.5764535655881124,12.85543377305008,-0.036044407158817876,0.6909522244108195,-1.2753249353737452
1.5692909976435705,12.718891054873236,-0.03558127228660096,0.6744749573576231,-1.305888216183466
1.562218815983751,12.58563594227628,-0.03514054431159731,0.658076168611936,-1.3365498751264435
1.555232675668937,12.455652874571257,-0.03472085883654174,0.6417545084383097,-1.3672029257385985
1.548328505902965,12.328926550083676,-0.03432083882317714,0.6255087364375057,-1.397739013762819
1.5415025125276394,12.20544190397564,-0.033939094930078594,0.6093377246428622,-1.4280481116047774
1.5347511804800864,12.08518408537731,-0.033574225545452,0.5932404613404124,-1.4580181985001723
1.5280712762750428,11.968138433675218,-0.033224816504984045,0.5772160556804956,-1.4875349244350153
1.5214598505764376,11.854290453791243,-0.0328894404810677,0.5612637431592366,-1.5164812557146143
1.5149142409257652,11.743625790269292,-0.032566656025657746,0.5453828920602771,-1.544737099920118
1.5084320746987427,11.636130199967194,-0.03225500624456661,0.5295730109606958,-1.5721789078258674
1.5020112723666734,11.531789523129088,-0.03195301707612497,0.5138337574203524,-1.5986792496796995
1.4956500511448882,11.43058965258794,-0.03165919514172788,0.4981649479911201,-1.6241063630769863
1.489346929117738,11.332516500818649,-0.0313720251297744,0.48256656970180156,-1.6483236694955647
1.4831007299379828,11.237555964528855,-0.031089966667778076,0.46703879319613095,-1.67118925641461
1.4769105882082205,11.145693886436721,-0.030811450629845253,0.45158198772521363,-1.692555321833158
1.470775955663424,11.056916013841995,-0.030534874818120318,0.4361967382220569,-1.7122675779582588
1.464696608286915,10.971207953548362,-0.030258598946969535,0.4208838647142957,-1.7301646108841915
1.4586726545074844,10.888555122640796,-0.02998093884733561,0.4056444443613506,-1.7460771932834243
1.4527045446432045,10.808942694561345,-0.02970015979546341,0.3904798364331503,-1.7598275475488738
1.4467930817782038,10.732355539860269,-0.029414468854543952,0.3753917105776036,-1.7712285575671203
1.4409394342828497,10.65877816092745,-0.02912200609899746,0.36038207875057443,-1.7800829285072486
1.4351451502161474,10.588194619932295,-0.028820834568025425,0.3454533312009772,-1.786182295882986
1.4294121738827354,10.520588459121377,-0.028508928766093247,0.3306082769082104,-1.7893062879738242
1.4237428648570525,10.455942612545616,-0.02818416149073812,0.31585018884940746,-1.7892215498799688
1.4181400198360934,10.394239308219209,-0.02784428871885067,0.30118285441465825,-1.785680743611083
1.4126068977426387,10.335459959661094,-0.027486932215697063,0.2866106311665025,-1.7784215474842169
1.407147248577303,10.279585045752299,-0.027109559437661655,0.27213850792143973,-1.7671656908858366
1.4017653466169064,10.226593977883628,-0.02670946016630073,0.25777217076527265,-1.7516180787703084
1.3964660286886488,10.176464953504471,-0.02628371911627715,0.24351807302630846,-1.7314660864316067
1.3912547384301122,10.129174795470625,-0.02582918346909004,0.2293835073121484,-1.7063791423464651
1.3861375776987725,10.084698777108372,-0.025342423844306274,0.2153766763103942,-1.6760087697859922
1.381121366659888,10.043010433783426,-0.02481968654453641,0.2015067569390684,-1.6399893326906025
1.3762137146191031,10.004081363159322,-0.024256833863313423,0.18778394930195003,-1.5979398364489361
1.3714231044718104,9.967881018494108,-0.023649267609614562,0.17421949735020628,-1.5494672806930037
1.366758994867253,9.934376502591817,-0.022991828435960232,0.16082566167270165,-1.4941722623234477
1.362231946071661,9.903532374834306,-0.022278659519959117,0.14761561590241457,-1.431657796610088
1.3578537784390516,9.875310490595044,-0.021503016806135138,0.1346032264901868,-1.361542671450184
1.3536377769489998,9.849669901801594,-0.020656998094383112,0.12180266144431097,-1.2834810654139863
1.349598962351747,9.826566859716596,-0.019731147878144752,0.10922775940565074,-1.1971905862213623
1.3457544604370768,9.805954975482585,-0.018713871268558047,0.09689108293446133,-1.1024911551695793
1.342124017842881,9.787785607681268,-0.017590554673400427,0.08480259507870822,-0.9993568863316675
1.3387307386866814,9.772008551297521,-0.016342236888597192,0.07296796875876735,-0.887981510977721
1.335602156152683,9.758573082162592,-0.01494358845138737,0.06138672259050926,-0.7688536637262007
1.3327718175000987,9.747429333553473,-0.013359798074455578,0.050050763500682445,-0.6428298037312032
1.3302816796556836,9.738529795058685,-0.011541580369694982,0.038944621447212016,-0.511178910585579
1.328185890440306,9.731830344242365,-0.009416311784079878,0.028049886716000037,-0.3755575761003885
1.3265573935161359,9.72728944002684,-0.006868657457622738,0.017359155439230976,-0.23786703582306043
1.3255024881561144,9.724861755015016,-0.00368039614259253,0.0069176946790090055,-0.09996022060058629
