x,y,v_x,v_y,omega
2.375,32.48,0.0,3.230769230769231,-6.408163265306122
2.373610626657922,31.8733976413512,-0.014624982548187698,3.154518755007578,-5.998796069197212
2.3696469998060814,31.280982114859015,-0.027097405365924955,3.0814341554364892,-5.628578318262503
2.3634892097626152,30.702172498100843,-0.0377214371968786,3.01129865254426,-5.292640338998
2.3554640086332372,30.136427028479737,-0.04675436416499361,2.943916817151578,-4.986832495435494
2.345852955096128,29.583239321269986,-0.05441462043615945,2.8791116797931715,-4.707603073026454
2.3348991790748284,29.04213508872203,-0.0608882850512015,2.816722347027427,-4.451899512038244
2.32281302667219,28.512669274142826,-0.06633437181868088,2.7566020169641927,-4.21708800744147
2.309776791005795,27.994423532841374,-0.07088916151179156,2.6986163125247637,-4.000887670423238
2.295948692660951,27.487004005489702,-0.07466976843393201,2.642641870124429,-3.8013163183833756
2.281466241036939,26.990039339941994,-0.07777709076619502,2.588565135640931,-3.616645612555794
2.2664490825312784,26.503178925695238,-0.08029826192496818,2.5362813301143827,-3.4453637555150425
2.2510014215649945,26.026091311552108,-0.08230869561486442,2.4856935556027904,-3.286144337127518
2.235214084636582,25.55846278208932,-0.0838737983684197,2.4367120176896857,-3.137820207137155
2.219166284965691,25.099996072557424,-0.08505040869359266,2.3892533458039558,-2.9993614772621724
2.202927135145166,24.650409205074173,-0.08588801046983169,2.343239996125026,-2.8698569312548217
2.186556947027895,24.209434431598694,-0.08642975918564935,2.298599724669482,-2.7484982594977794
2.170108351424073,23.776817271319103,-0.08671335243353416,2.255265120378827,-2.6345666440458033
2.153627264759545,23.35231563185274,-0.08677177035096417,2.213173189793448,-2.5274213070706377
2.13715372540158,22.935699005122906,-0.08663390710130242,2.172264986310071,-2.4264897053478487
2.1207226187025663,22.52674772999844,-0.08632511078305385,2.132485278157965,-2.3312591094838075
2.104364306793536,22.12525231480894,-0.08586764615410622,2.0937822501525694,-2.241269351896068
2.0881051766579684,21.731012813715683,-0.08528109211502817,2.0561072350396135,-2.1561065643538417
2.071968117936544,21.34383825165493,-0.0845826838999645,2.019414470863034,-2.07539775588566
2.0559729401787705,20.96354609319915,-0.08378760828712489,1.9836608813031122,-1.9988061064204476
2.0401367378060717,20.58996175122132,-0.08290925879391221,1.9488058763582135,-1.92602687170927
2.0244742098332593,20.222918131712717,-0.08195945670937758,1.9148111711007842,-1.8567838117181819
2.0089979403708322,19.862255211506955,-0.08094864289511758,1.8816406205387926,-1.7908260684553698
1.9937186450664064,19.50781964601332,-0.0798860445198915,1.84926006886788,-1.7279254306306508
1.9786453879127948,19.159464404367416,-0.0787798202549687,1.8176372116153328,-1.6678739320691207
1.9637857722308125,18.81704842967465,-0.07763718692379197,1.7867414693611523,-1.6104817387567185
1.9491461091085593,18.480436322256804,-0.07646453015255632,1.7565438718793311,-1.5555752860610608
1.9347315661307511,18.149498044018834,-0.07526750119279427,1.727016951678246,-1.502995633271011
1.9205462988492072,17.82410864223595,-0.07405110177082502,1.6981346460363624,-1.4525970073160748
1.9065935671185406,17.504147991223036,-0.0728197585519833,1.6698722067311198,-1.4042455115112522
1.8928758381408408,17.18950055049259,-0.07157738858169815,1.6422061167472928,-1.3578179785468238
1.8793948778225498,16.880055138135408,-0.07032745687399737,1.615114013328288,-1.313200949806227
1.8661518318397663,16.57570471827309,-0.06907302715530092,1.58857461680137,-1.2702897655315961
1.8531472976298942,16.27634620153359,-0.06781680663282635,1.5625676646670912,-1.228987752434147
1.8403813883735958,15.981880257593154,-0.06656118553873693,1.5370738504953783,-1.1892054971221775
1.8278537898979028,15.692211138910501,-0.06530827210013473,1.5120747672167683,-1.1508601952401927
1.815563811316034,15.407246514853295,-0.06405992349848422,1.4875528544380197,-1.1138750675178604
1.8035203034800813,15.126900223628901,-0.06271384319575482,1.4634607373977204,-1.075166017523833
1.7917305153725736,14.851089045290298,-0.06138918951485327,1.4398148240612771,-1.0381548976733017
1.7801903277532798,14.579729666136423,-0.060086469635607334,1.4165996933479499,-1.0027476557498867
1.7688955374203137,14.312741637896597,-0.05880606018508674,1.3938006039133695,-0.9688564358496823
1.7578418804702383,14.05004725217809,-0.05754822349991842,1.3714034562814656,-0.936399104975309
1.7470250526462066,13.791571421869413,-0.05631312201620476,1.3493947574940657,-0.905298820640874
1.736440727109112,13.537241569039622,-0.055100831005842975,1.3277615880826867,-0.875483635523109
1.7260845699276768,13.286987518909246,-0.053911349851371325,1.3064915711844174,-0.8468861356163389
1.7159522535491156,13.040741399500984,-0.05274461202821741,1.2855728436394105,-0.8194431087222245
1.7060394684818565,12.79843754660769,-0.051600493942933166,1.264994028921586,-0.7930952404355955
1.6963419333952419,12.560012413742289,-0.05047882275827188,1.244744211766847,-0.7677868350804756
1.6868554038177628,12.325404486758853,-0.04937938332045471,1.224812914374586,-0.743465559310243
1.6775756795947323,12.094554202856745,-0.04830192429039379,1.2051900740686408,-0.7200822063167704
1.6684986112481153,11.867403873700464,-0.04724616356873428,1.1858660223132622,-0.6975904787988337
1.659620105365143,11.643897612406825,-0.046211793094130975,1.1668314649881886,-0.6759467890231218
1.6509361291281257,11.423981264168653,-0.04519848308499806,1.1480774638346574,-0.6551100744744434
1.6424427140852953,11.207602340300191,-0.044205885786902134,1.1295954189912356,-0.635041627737546
1.6341359592513762,10.994709955504273,-0.043233638780666515,1.1113770525447477,-0.6157049393833358
1.6260120336167128,10.785254768174916,-0.042281367899999096,1.0934143930274254,-0.597065552749002
1.6180671781350286,10.57918892356162,-0.04134868980193972,1.0756997607967234,-0.5790909296061438
1.6102977072521316,10.376465999633215,-0.040435214228555005,1.0582257542391096,-0.5617503258048412
1.602700010030988,10.177040955489858,-0.03954054599400903,1.0409852367435803,-0.5450146760658933
1.5952705509224603,9.98087008218172,-0.03866428672733724,1.0239713243947177,-0.5288564871692348
1.5880058702255637,9.787910955802033,-0.037806036397888695,1.0071773743388261,-0.5132497388547452
1.580902584276259,9.598122392730733,-0.036965394647424606,0.9905969737801034,-0.49816979181312215
1.5739647088686746,9.411671372152021,-0.03606487280083186,0.9720453481010677,-0.5271095624216701
1.5671932141384979,9.228734811922589,-0.03521401909576439,0.9536026543140048,-0.5575442002920586
1.560578803602241,9.049292284711907,-0.0344113549700979,0.9352660531668658,-0.5893634796008465
1.5541124638953403,8.87332389187375,-0.03365537878675263,0.9170328188137524,-0.6224592764728628
1.5477854687966177,8.700810242237594,-0.03294456962085109,0.8989003352510188,-0.6567253246768607
1.541589382570716,8.53173243153941,-0.032277390651797175,0.8808660931509207,-0.6920569750992146
1.5355160627010824,8.366072022416812,-0.03165229218645239,0.8629276870869613,-0.7283509579565635
1.52955766208138,8.203811024894495,-0.03106771433673318,0.845082813147962,-0.7655051467038319
1.5237066307290303,8.044931877286057,-0.030522089372209807,0.8273292669408704,-0.8034183225814993
1.5179557170809357,7.889417427438058,-0.03001384376562867,0.8096649419854348,-0.8419899387250424
1.5122979689282663,7.737250914241262,-0.029541399946682333,0.7920878285071739,-0.8811198827297656
1.5067267340445363,7.588415949332415,-0.029103177776790116,0.7745960126386003,-0.9207082365252856
1.5012356605590065,7.442896498907714,-0.02869759575510192,0.7571876760424711,-0.9606550323651887
1.4958186971257512,7.300676865566057,-0.02832307196337286,0.7398610959749878,-1.0008600036781714
1.4904700929375299,7.161741670096347,-0.027978024754748563,0.7226146458114442,-1.041222329456546
1.4851843976328905,7.026075833118384,-0.027660873188821496,0.7054467960618673,-1.0816403707755056
1.4799564611447615,6.89366455648107,-0.027370037212535572,0.6883561159098401,-1.122011397941051
1.4747814335391292,6.764493304314804,-0.02710393758359603,0.6713412753140025,-1.162231306654973
1.4696547648933427,6.638547783626684,-0.02686099552994616,0.6544010477188421,-1.2021943214606998
1.4645722052651196,6.515813924317598,-0.02663963213556161,0.6375343134294251,-1.2417926845930662
1.4595298048055132,6.39627785848899,-0.026438267439240964,0.6207400637138385,-1.2809163281970681
1.4545239140720125,6.279925898893964,-0.026255319229187616,0.6040174057074968,-1.3194525277045135
1.4495511846016067,6.166744516372248,-0.02608920151192655,0.5873655682052997,-1.3572855339624155
1.444608569808179,6.056720316090836,-0.025938322629416442,0.5707839084411406,-1.39429618149269
1.4396933262740466,5.949840012391803,-0.02580108299303101,0.5542719199697137,-1.4303614700295364
1.434803015511964,5.8460904020252755,-0.025675872397311852,0.5378292417832263,-1.4653541162301176
1.4299355062815746,5.745458335518368,-0.02556106686994415,0.5214556688157979,-1.4991420721886586
1.425088977553249,5.647930686399789,-0.025455025007168265,0.5051511640113492,-1.531588007108935
1.4202619222226778,5.553494317963796,-0.025356083735687304,0.4889158721569819,-1.562548748213704
1.4154531516916606,5.462136047216095,-0.025262553432912494,0.4727501357135429,-1.5918746767050695
1.4106618014444763,5.373842605596998,-0.02517271232692322,0.45665451290853687,-1.6194090743571259
1.4058873377652883,5.288600596023262,-0.02508480008558219,0.44062979839395683,-1.6449874161513987
1.4011295657605554,5.206396445728608,-0.024997010490555503,0.4246770468129226,-1.6684366043007786
1.396388638871716,5.127216354313312,-0.024907483076173662,0.4087975996638808,-1.689574139113337
1.3916650700879887,5.0510462363348765,-0.02481429359463929,0.39299311589860547,-1.7082072225174234
1.3869597450974989,4.97787165768435,-0.024715443147357914,0.37726560673851894,-1.7241317908395373
1.3822739376478639,4.90767776489642,-0.024608845796169006,0.36161747523969406,-1.737131474792769
1.3776093274257541,4.840449206437036,-0.024492314436565535,0.3460515611748656,-1.7469764868791837
1.3729680208101094,4.776170044902329,-0.02436354467548584,0.33057119182204686,-1.7534224399428673
1.3683525749073973,4.714823658951445,-0.024220096405694346,0.31518023923990474,-1.7562091060213432
1.3637660253421575,4.6563926336915955,-0.02405937270209304,0.299883184547978,-1.7550591327841376
1.3592119183558735,4.600858638149319,-0.02387859557457995,0.28468518958124395,-1.7496767469515675
1.3546943478677471,4.54820228841896,-0.02367477798464457,0.269592176001488,-1.7397464919391894
1.3502179982811047,4.498402995111697,-0.02344469134843297,0.2546109114433854,-1.7249320731568916
1.3457881939929157,4.451438793888549,-0.023184827474609756,0.23974910143184347,-1.7048754226393052
1.3414109568034283,4.407286158229727,-0.022891353467362912,0.2250154844504934,-1.6791961503707902
1.3370930727638501,4.365919794293415,-0.02256005747556375,0.21041992540540808,-1.6474916304762326
1.332842170499967,4.3273124189340635,-0.022186282144260123,0.1959734994298882,-1.609338087215911
1.3286668138024715,4.291434523955722,-0.021764840987270308,0.18168855297370862,-1.564293213387794
1.3245766124339762,4.258254132863449,-0.021289910260049706,0.1675787216817845,-1.5119010920620832
1.3205823569191886,4.227736561294176,-0.020754884632450437,0.1536588737842659,-1.4517005256903879
1.316696185968535,4.199844199682122,-0.020152178006006844,0.13994493265841984,-1.3832383291711794
1.3129317998024208,4.174536347398998,-0.019472939532038797,0.12645351242709726,-1.3060897278916326
1.3093047400636426,4.151769142377393,-0.01870663666562683,0.11320127727402564,-1.2198886857796556
1.3058327689234248,4.131495649132379,-0.017840427968245188,0.10020391477875662,-1.1243716201660086
1.302536399036885,4.11366618895503,-0.016858202416384156,0.08747461340386817,-1.019438115057247
1.2994396562561452,4.098229011197198,-0.015739090012456654,0.07502199457331026,-0.9052309527407565
1.2965712050539633,4.085131394854653,-0.01445513316840492,0.06284765113770936,-0.7822331746794415
1.293966045272781,4.0743211952410014,-0.012967601370356074,0.05094392374282475,-0.6513691068078992
1.2916681325893407,4.06574864007742,-0.011220953192174449,0.03929349903173188,-0.5140769034894752
1.2897346069459723,4.059367714490975,-0.009131948316966912,0.027874138720328633,-0.37229494593130225
1.288243361955901,4.055135479871556,-0.006565367367993502,0.01667569937880736,-0.228288277565853
1.287310469458565,4.053004589295625,-0.0032545536565955014,0.005754727736261843,-0.08426070397681204
