x,y,v_x,v_y,omega
2.375,32.48,0.0,3.641025641025641,-2.979591836734694
2.3743265735897774,31.832647208271347,-0.007482515669138464,3.551783155959374,-2.7781419755859034
2.372411906910729,31.201013570640928,-0.013791558542513117,3.466368373267484,-2.5971738845807746
2.3694513179744674,30.58443318830946,-0.01910387408261333,3.3845247637488334,-2.4340013496857584
2.3656109004772197,29.98228426630822,-0.023567431442360936,3.3060188140427056,-2.2863528226077343
2.3610322421553716,29.393985207763777,-0.027306549911508226,3.2306373920066838,-2.152298967045439
2.3558363100005706,28.818991148670946,-0.03042602958628208,3.1581854868025263,-2.030194235718456
2.350126662701059,28.256790871571567,-0.03301449596384909,3.0884842587461314,-1.9186295066996921
2.3439921172166915,27.70690404702018,-0.03514712052911994,3.0213693473803627,-1.8163934895247498
2.3375089704637686,27.168878760077085,-0.036887843392247203,2.956689396431825,-1.722441125024778
2.3307428568634108,26.642289285802647,-0.038291196611726114,2.8943047621730376,-1.6358675924077624
2.3237503066454175,26.126734083201818,-0.039403805810424304,2.8340863778361873,-1.5558868347926407
2.3165800572905044,25.62183398155729,-0.040265631466383255,2.7759147515474565,-1.4818137433692726
2.309274160578559,25.12723053680029,-0.04091099866634262,2.7196790790858714,-1.4130493175712693
2.301868919813314,24.64258453865626,-0.041369454280823226,2.665276455847823,-1.3490682566098824
2.2943956854752803,24.16757465189,-0.04166648280844446,2.612611174888366,-1.2894085457144482
2.286881532477311,23.70189617715537,-0.04182410605788331,2.561594099940873,-1.2336626854095174
2.279349838100224,23.245259918802105,-0.041861387020856115,2.5121421039842557,-1.1814702793676817
2.2718207763670426,22.797391148566014,-0.041794854458938484,2.464177565305672,-1.1325117497806312
2.264311741915726,22.358028655414692,-0.04163886166680336,2.417627914153461,-1.0865029918171965
2.2568377142279332,21.926923872977788,-0.041405890419784444,2.372425224034359,-1.0431908129085543
2.24941157126781,21.503840076988283,-0.04110680913713335,2.3285058425156757,-1.00234903010821
2.2420443601029265,21.088551646025152,-0.04075109269490828,2.285810057074687,-0.9637751210057629
2.234745530857973,20.680843379597995,-0.04034701002680115,2.2442817921159417,-0.9272873417096671
2.227523139341852,20.280509868268243,-0.039901784596764085,2.203868333770179,-0.8927222401009262
2.2203840228511758,19.887354911072997,-0.03942173196630691,2.1645200795103463,-0.8599325045614734
2.2133339529565412,19.50119097601865,-0.03891237797407578,2.1261903099824027,-0.8287850982224173
2.206377768496948,19.121838699851775,-0.038378560465848935,2.0888349807606588,-0.7991596368740184
2.199519491521822,18.74912642370267,-0.037824517035550516,2.052412532007149,-0.7709469753618827
2.192762428512732,18.382889761539673,-0.03725396084322646,2.0168837142483866,-0.7440479728264926
2.1861092588744446,18.022971198675563,-0.036670146248856936,1.982211428686178,-0.7183724117375058
2.179562112396429,17.669219717836526,-0.03607592572909535,1.9483605806364122,-0.6938380495004888
2.173122637142227,17.32149045054323,-0.03547379931759002,1.9152979448446603,-0.6703697846093178
2.1667920590178062,16.97964435176653,-0.0348659576204186,1.882992041563131,-0.6478989219936447
2.1605712340949856,16.643547896010507,-0.03425431929981223,1.8514130223926926,-0.6263625244579797
2.1544606946172227,16.313072793145295,-0.033640563786444616,1.820532564998559,-0.605702839000737
2.1484606894882536,15.988095722464362,-0.03302615986876251,1.7903237759007091,-0.5858667883982257
2.142571219935843,15.668498083577333,-0.032412390713576406,1.7607611006218378,-0.5668055197893916
2.1367920709502974,15.35416576287205,-0.03180037579248886,1.731820240547991,-0.5484740031426933
2.1311228390180563,15.044988914389823,-0.03119109012130353,1.7034780759212063,-0.5308306734602625
2.125562956602528,14.740861754057267,-0.030585381162342277,1.675712594440507,-0.5138371114040875
2.1201117137657315,14.44168236630777,-0.02998398369095489,1.6485028249983475,-0.4974577577372808
2.114768277273799,14.147352522206681,-0.02938753288607136,1.6218287761248604,-0.4816596575795558
2.109531707485817,13.857777508267706,-0.02879657586928464,1.5956713787526504,-0.46641223099570983
2.1044009732877766,13.572865965214376,-0.028211581886717442,1.570012432951029,-0.4516870668823935
2.0993749653007896,13.292529736000798,-0.027632951302029477,1.5448345583109335,-0.437457737502832
2.094452507564404,13.016683722460641,-0.027061023546700848,1.5201211476908127,-0.4236996313507163
2.089632367871284,12.745245750003082,-0.026496084154628792,1.4958563240598293,-0.410389802311018
2.084916338130352,12.47813685155456,-0.02590424630017571,1.472020325368212,-0.39659276278782263
2.080305721402695,12.215280711289772,-0.025324828451568193,1.448603455351659,-0.38337687708189794
2.0757982922942015,11.956603140204898,-0.02475771719835792,1.4255917789247152,-0.37071116901863105
2.0713918479779228,11.70203240493317,-0.0242027752047405,1.4029719463166803,-0.3585666248480087
2.0670842121624133,11.451499125178358,-0.023659844967586087,1.3807311620701037,-0.34691604903694273
2.0628732384251247,11.20493617655335,-0.02312875211339906,1.3588571559855416,-0.3357339320764432
2.0587568129888827,10.962278598486272,-0.022609308289287453,1.337338155870901,-0.32499632918668375
2.054732857010183,10.723463506881007,-0.022101313696267152,1.3161628619653896,-0.31468074891739345
2.0507993284398585,10.488430011241437,-0.021604559307335843,1.2953204229187043,-0.30476605074262647
2.0469542235095135,10.257119135989338,-0.021118828807610377,1.2748004132157402,-0.29523235083934696
2.043195577890789,10.029473745724793,-0.020643900289328904,1.2545928119458727,-0.28606093531976184
2.039521467568996,9.805438474195519,-0.020179547730589876,1.2346879828238608,-0.27723418025911284
2.0359300094677497,9.58495965675747,-0.019725542283259727,1.2150766553767027,-0.2687354779247186
2.032419361856934,9.367985266123998,-0.019281653392466166,1.1957499072174198,-0.26054916866933286
2.028987724572542,9.154464851214478,-0.018847649767449282,1.1766991473328188,-0.25266047800313873
2.0256333390735617,8.944349478925918,-0.018423300221220705,1.157916100317827,-0.2450554584046123
2.022354488358152,8.737591678662845,-0.01800837439444061,1.1393927914940782,-0.23772093547166953
2.019149496758711,8.534145389471423,-0.017602643377127844,1.1211215328550705,-0.23064445805148012
2.016016729633148,8.33396590963386,-0.017205880240238874,1.1030949097844882,-0.22381425202056202
2.012954592967628,8.13700984858842,-0.016817860487759864,1.0853057684981793,-0.21721917741666708
2.009961532904244,7.943235081048833,-0.016438362438729568,1.0677472041638825,-0.21084868865089396
2.0070360352054806,7.752600703205037,-0.0160671675475286,1.0504125496560852,-0.20469279755274034
2.00417662466592,7.565066990894408,-0.01570406066981541,1.0332953649064374,-0.19874203902271287
2.0013818644803782,7.380595359639663,-0.015348830280645289,1.0163894268129325,-0.19298743908690186
1.9986503555765696,7.199148326455873,-0.015001268650562788,0.9996887196736431,-0.18742048516582027
1.9959836153781023,7.020903553015167,-0.014629177999073414,0.9808087630008548,-0.22910295240520412
1.993380169455993,6.846048036185927,-0.01429799891325305,0.9620303128795921,-0.27190306021558275
1.990832771326556,6.67456373094765,-0.014006424747158372,0.9433508564345768,-0.3157234060365345
1.9883344113027288,6.506433036026035,-0.013753131073144137,0.9247679760278272,-0.3604678604838635
1.985878319433036,6.341638776961151,-0.013536778590108134,0.9062793469153134,-0.40604135692692267
1.9834579679462239,6.180164189567741,-0.01335601570780522,0.8878827352336923,-0.45234968143116994
1.981067073258247,6.021992903728023,-0.013209480825269865,0.8695759963187331,-0.499299262138143
1.978699597595273,5.867108927456961,-0.013095804318884557,0.8513570733597172,-0.546796957125204
1.9763497502837886,5.715496631178862,-0.013013610253166235,0.8332239963969521,-0.5947498397494005
1.9740119887567635,5.567140732152602,-0.012961517824890204,0.8151748816726165,-0.6430649804329924
1.9716810193231398,5.422026278980699,-0.01293814254870515,0.7972079313485215,-0.6916492237918892
1.9693517977466666,5.280138636134605,-0.012942097189886977,0.7793214336080581,-0.7404089599415749
1.9670195296793194,5.1414634684251475,-0.012971992447304412,0.7615137631636985,-0.789249888737121
1.9646796709942325,5.005986725342776,-0.013026437386994492,0.7437833821959806,-0.8380767756134885
1.9623279280632486,4.873694625187184,-0.013104039623937278,0.7261288417550271,-0.8867931975882766
1.9599602580248967,4.744573638899702,-0.013203405246639235,0.7085487836614319,-0.9353012778699982
1.9575728690898644,4.618610473504681,-0.013323138475942449,0.6910419429498991,-0.9835014073793285
1.9551622209328872,4.495792055057606,-0.01346184104602655,0.6736071509064808,-1.031291951336914
1.952725025222482,4.376105510987731,-0.013618111291810493,0.656243338758783,-1.0785689388974533
1.9502582463431637,4.259538151711496,-0.01379054292283492,0.6389495420882753,-1.1252257336139693
1.9477591023687852,4.146077451379494,-0.013977723459147632,0.6217249060450628,-1.171152682296571
1.9452250663504933,4.035711027604183,-0.01417823229965151,0.6045686914583995,-1.2162367395846292
1.9426538679886296,3.928426619997328,-0.01439063838772267,0.5874802819511168,-1.2603610652784816
1.9400434957648032,3.8242120673252273,-0.01461349743257197,0.5704591921833508,-1.3034045911751733
1.9373921996184789,3.723055283065353,-0.014845348637696876,0.5535050773708244,-1.3452415538217026
1.9346984942619105,3.6249442291198477,-0.01508471087972928,0.5366177442459117,-1.3857409892392536
1.9319611632382654,3.529866887408655,-0.015330078271885022,0.5197971636562468,-1.424766185285268
1.929179263840565,3.4378112290272327,-0.015579915035897712,0.5030434850262442,-1.4621740869120174
1.9263521330238218,3.34876518061008,-0.015832649594579765,0.48635705294213016,-1.4978146491598672
1.9234793944597703,3.262716587490754,-0.016086667783770384,0.46973842616149364,-1.5315301323062214
1.9205609669031891,3.179653173190715,-0.01634030506713171,0.45318839939447497,-1.563154333202027
1.9175970740613735,3.0995624947021767,-0.01659183761971008,0.4367080282559353,-1.5925117465051082
1.9145882561842615,3.0224318929529623,-0.016839472125977622,0.42029865784646436,-1.6194166493219002
1.9115353836226021,2.948248437753165,-0.017081334114682583,0.40396195548463143,-1.6436721027839536
1.9084396726359796,2.876998866423129,-0.017315454625567696,0.38769994818244385,-1.6650688644432043
1.9053027037722967,2.808669515189166,-0.017539754970907994,0.37151506552826385,-1.6833842062633348
1.9021264431864287,2.743246242307535,-0.01775202931651547,0.35541018871208924,-1.6983806346981234
1.8989132673195095,2.680714341739396,-0.017949924760363813,0.3393887064894627,-1.709804512300713
1.8956659914234413,2.621058446052597,-0.018130918529281528,0.3234545789194228,-1.717384585117605
1.8923879024901564,2.564262417076158,-0.01829229184055079,0.30761240970769177,-1.7208304276976565
1.8890827972354622,2.5103092226910455,-0.01843109987827296,0.291867527904684,-1.719830829231366
1.8857550258982414,2.459180798025084,-0.01854413720196102,0.27622607949490546,-1.7140521621109464
1.8824095427555145,2.4108578892618944,-0.01862789771722593,0.2606951289850004,-1.7031368009960488
1.8790519644353065,2.3653198783244633,-0.018678528062863128,0.24528277031980075,-1.6867017006129188
1.875688637353123,2.3225445869344483,-0.018691772850287478,0.22999824512482758,-1.6643373003963677
1.8723267159382029,2.2825080591062736,-0.018662909537712668,0.21485206407709823,-1.6356070130979645
1.8689742538089558,2.2451843222088534,-0.0185866696761438,0.19985612367200947,-1.600047686323921
1.8656403107976356,2.210545128620705,-0.018457141560748683,0.1850238050852057,-1.5571716202828452
1.8623350798716845,2.178559683172505,-0.018267646505374158,0.17037003322812327,-1.506471009219437
1.8590700398231323,2.149194366681005,-0.018010576256314064,0.15591126112186396,-1.4474260842991704
1.8558581425554963,2.122412473861587,-0.017677171161863924,0.14166532576055796,-1.3795188149128217
1.8527140486638738,2.098173995965304,-0.017257205411721033,0.12765109530923868,-1.302254811003444
1.8496544330792828,2.076435495919174,-0.01673852330595774,0.11388779409220223,-1.2151970565297572
1.8466983959939731,2.057150147298863,-0.01610633319748244,0.10039385724457446,-1.1180161527039998
1.8438680366372504,2.040268036522072,-0.015342104099435037,0.08718515138643783,-1.0105623683344949
1.8411892844682394,2.0257368520561023,-0.014421808889576943,0.0742724537909844,-0.8929637208278497
1.838693143596707,2.0135030819367365,-0.013313089683004159,0.06165832531306729,-0.7657488596688704
1.8364176104272847,2.003513758710504,-0.011970612199466718,0.04933415497840303,-0.6299791606075185
1.834410721418923,1.995718527635205,-0.010328154560109408,0.03727952363602621,-0.4873465023370196
1.8327356606457184,1.9900711907835955,-0.008283631808828365,0.025468663604069908,-0.3401545778715679
1.8314804626310488,1.9865284435017045,-0.005663012798611543,0.013895195083589456,-0.19107543200926125
1.8307833694604994,1.9850382160679416,-0.002082466874161529,0.0026628875137715783,-0.04261095580101121
