x,y,v_x,v_y,omega
2.375,32.48,0.0,2.051282051282051,-2.7346938775510203
2.3746912037466403,32.11397501883586,-0.0034310694817716106,2.015662183875016,-2.620827505953603
2.3737967082157216,31.75428318810341,-0.00650776975066282,1.9809137131522192,-2.513582772280351
2.3723773256592082,31.400770990172372,-0.009263147543928783,1.9469995971926353,-2.4124397296337596
2.370488219359769,31.053291382753983,-0.011726922449842178,1.9138849296783544,-2.3169278262987736
2.368179469156111,30.711703429179924,-0.013925857590800922,1.8815367767001008,-2.2266205044914282
2.3654965743549448,30.375871956615498,-0.015884084644381218,1.8499240295713033,-2.1411304640044135
2.362480901690619,30.04566723950143,-0.017623389403677782,1.8190172716961124,-2.0601054998166717
2.3591700849606214,29.720964705844793,-0.019163463151854642,1.788788657822062,-1.983224836435613
2.355598382085327,29.401644664258708,-0.020522124351414022,1.759211804245551,-1.9101958931807095
2.351796994588796,29.08759204989029,-0.021715514498932602,1.730261688736889,-1.8407514242029874
2.347794353853487,28.77869618758331,-0.02275827144894707,1.7019145591184108,-1.7746469850936766
2.343616377948712,28.474850570801372,-0.02366368304855407,1.6741478495698114,-1.7116586847317012
2.3392867023563966,28.17595265499323,-0.02444382353272629,1.646940103853979,-1.6515811867688324
2.3348268875066673,27.881903664218164,-0.02510967479759744,1.6202709047578958,-1.5942259300284694
2.3302566056801957,27.592608409968282,-0.02567123438541974,1.5941208091296544,-1.539419541242783
2.3255938095259703,27.307975121229607,-0.026137611772642667,1.5684712879667375,-1.4870024170913227
2.3208548841753758,27.0279152849159,-0.026517114345072996,1.5433046710744456,-1.4368274555295375
2.316054784700384,26.752343495891047,-0.026817324265944593,1.5186040958683686,-1.3887589189885532
2.3112071604603983,26.481177315868074,-0.02704516728945436,1.4943534599424437,-1.342671414254936
2.3063230028210375,26.21433851927799,-0.027223250925665535,1.4705220577251554,-1.2974451094761574
2.3014115503901613,25.95175154388124,-0.02734844275073806,1.4471110022387257,-1.2541395792373158
2.2964818977502186,25.69334199409494,-0.027425475470843782,1.4241062176090533,-1.2126516081906515
2.2915423239288515,25.439037954027754,-0.027458678099901795,1.4014942275819209,-1.1728845730506952
2.286600361822819,25.18876988247561,-0.027452011967130922,1.3792621229974222,-1.134747953954394
2.281662861450586,24.942470513581092,-0.027409103279900565,1.3573975313861186,-1.0981568869361142
2.27673604762165,24.70007476278924,-0.027333272597168723,1.3358885885233778,-1.0630317536488112
2.2718255725502683,24.461519637760766,-0.027227561529292007,1.314723911792976,-1.0292978048650236
2.2669365638875627,24.226744153929225,-0.027094756945215716,1.2938925752241746,-0.9968848146478599
2.2620736685981275,23.995689254412,-0.026937412937394732,1.273384086078282,-0.9657267623985031
2.257241093064666,23.768297734006534,-0.026757870767734365,1.2531883628713476,-0.9357615402678794
2.252442639766117,23.544514167022484,-0.02655827699392178,1.233295714729215,-0.9069306836702764
2.2476817408407723,23.32428483871867,-0.026340599954351902,1.2136968219798272,-0.8791791228595804
2.2429614888154816,23.10755768012989,-0.026106644771097216,1.1943827178955113,-0.8524549537276499
2.238284664754847,22.894282206083837,-0.025858067013734474,1.175344771505068,-0.8267092261619706
2.233653764059925,22.68440945622221,-0.02559638515206644,1.1565746714019338,-0.801895748458611
2.2290710201241013,22.477891938852785,-0.025322991912640945,1.1380644104805322,-0.7779709064287591
2.2245384260341585,22.274683577471095,-0.025039164642277793,1.1198062715382555,-0.7548934959646677
2.2200577544869278,22.07473965980097,-0.024746074771396922,1.1017928136853643,-0.7326245679453078
2.2156305760760437,21.878016789213433,-0.02444479646065003,1.0840168595095112,-0.7111272844648951
2.2112582760890396,21.684472838392466,-0.024136314506062625,1.066471482945634,-0.6903667854599801
2.2069420699421505,21.494066905124853,-0.023821531570479993,1.0491499978056489,-0.670310064894113
2.2026830173685843,21.306759270099025,-0.02350127480247906,1.032045946925747,-0.6509258557342028
2.1984820354655437,21.12251135660541,-0.023176301897970146,1.015153091892196,-0.63218452302046
2.1943399106958315,20.94128569203727,-0.022847306654391112,0.9984654033093737,-0.6140579643930325
2.1902581155130867,20.76326977378186,-0.022505973153882735,0.9794892439729579,-0.6453571382121484
2.186235084559796,20.588659948552056,-0.0221943707715696,0.9606199252470943,-0.6779891664393961
2.182265528831052,20.417437226926843,-0.021911803992252565,0.9418547594775032,-0.7118474920421725
2.1783442895003065,20.24958309362806,-0.02165752190491962,0.9231911660645211,-0.7468271112385866
2.1744663474393318,20.085079488498902,-0.021430723217021254,0.9046266687039154,-0.7828243475059143
2.170626831876068,19.923908787945805,-0.02123056081924597,0.8861588929971713,-0.8197366266764281
2.1668210282689278,19.766053786777206,-0.021056145926754685,0.8677855644316754,-0.8574622521632483
2.16304438547173,19.611497680372292,-0.020906551819889894,0.849504506734062,-0.8959001793343689
2.1592925222595336,19.460224047111957,-0.02078081720451271,0.8313136406030059,-0.9349497880207287
2.155561233282289,19.312216831002896,-0.020677949209312915,0.8132109828309797,-0.9745106521036608
2.1518464945103317,19.167460324423587,-0.020596926034657872,0.7951946458279906,-1.0144823050776715
2.1481444682333835,19.025939150918298,-0.020536699264769014,0.7772628375641356,-1.0547640004256214
2.144451507672855,18.887638247961846,-0.020496195852211904,0.7594138619520137,-1.095254465574263
2.1407641612658814,18.75254284961364,-0.02047431978082759,0.7416461196946864,-1.1358516481178869
2.137079176678681,18.620638468974413,-0.02046995341028816,0.7239581096300702,-1.1764524529056333
2.1333935046065395,18.491910880352947,-0.020481958502393736,0.7063484306084499,-1.2169524684828432
2.129704302417984,18.366346101043014,-0.020509176926004954,0.6888157839463508,-1.2572456812575736
2.126008937701576,18.24393037260218,-0.02055043103408365,0.6713589765074002,-1.2972241756290288
2.1223049917752697,18.124650141514284,-0.020604523702650705,0.6539769244691926,-1.3367778181640357
2.118590263220455,18.00849203910603,-0.02067023801751406,0.6366686578447145,-1.3757939237398202
2.1148627715057504,17.89544286057461,-0.020746336590317077,0.6194333258377444,-1.4141569013853383
2.1111207607693547,17.78548954296805,-0.020831560480745435,0.6022702031240567,-1.4517478773487262
2.107362703833399,17.678619141942086,-0.020924627696540386,0.585178697164426,-1.48844429269497
2.1035873065293607,17.57481880709684,-0.021024231237218246,0.5681583566716367,-1.5241194724963647
2.099793512420321,17.474075755672892,-0.021129036641000673,0.5512088813722187,-1.5586421634206316
2.095980508013773,17.376377244359162,-0.021237678987314088,0.5343301332247795,-1.591876036251346
2.092147728567986,17.281710538933652,-0.021348759299200028,0.5175221492808917,-1.6236791495988911
2.0882948646057726,17.190062881422204,-0.021460840280950876,0.500785156401866,-1.6539033707875308
2.08442186926204,17.101421454419224,-0.021572441316080448,0.4841195880756848,-1.6823937496509587
2.0805289666060687,17.015773342167233,-0.021682032639155007,0.46752610361312014,-1.7089878407582277
2.076616661096183,16.933105487938384,-0.021788028581797653,0.45100561004072276,-1.733514969458994
2.0726857483437993,16.85340464720015,-0.02188877977802194,0.43455928705078467,-1.7557954371323887
2.068737327386089,16.77665733597832,-0.021982564196536523,0.4181886154140147,-1.775639661221534
2.0647728146921493,16.70284977375331,-0.022067576847237397,0.4018954093082927,-1.7928472461428326
2.0607939601572483,16.631967820139785,-0.02214191798499905,0.38568185306423225,-1.8072059821302313
2.0568028653741486,16.563996904505572,-0.022203579604993463,0.36955054287146527,-1.8184907707323374
2.0528020045107347,16.498921947585146,-0.022250429988496464,0.3535045340221217,-1.8264624783452161
2.0487942481705037,16.436727274037995,-0.022280196014068172,0.3375473942795623,-1.8308667232977052
2.04478289066892,16.377396514798708,-0.022290442892416752,0.321683263934754,-1.831432608274802
2.0407716812268455,16.32091249797238,-0.022278550908411052,0.30591692302445894,-1.8278714192283396
2.0367648596664534,16.26725712696056,-0.02224168865150554,0.2902538659957619,-1.8198753257692073
2.0327671973013577,16.216411244483343,-0.022176782071776268,0.274700383751077,-1.8071161383643795
2.0287840438508438,16.168354481229127,-0.022080478489490615,0.2592636524068907,-1.7892442073660104
2.0248213813931493,16.12306508807231,-0.021949104373784223,0.24395182711330776,-1.7658875921437167
2.020885886628913,16.080519751238256,-0.021778615228833828,0.22877413770950034,-1.7366516913467056
2.0169850030918766,16.04069339059596,-0.021564535182686414,0.21374098053826107,-1.7011196160766036
2.0131270254825897,16.0035589426186,-0.0213018826982793,0.19886399698795276,-1.6588537183774998
2.0093211991147495,15.969087131758236,-0.02098507694439092,0.18415612368275686,-1.6093988741031566
2.0055778387203906,15.937246237443578,-0.020607816326260266,0.16963159092454277,-1.552288382813788
2.0019084728339953,15.90800186919331,-0.020162915744801606,0.15530583407844512,-1.4870537123873897
1.9983260231148667,15.881316770164169,-0.019642081134403543,0.141195266245332,-1.4132398048879666
1.9948450329999048,15.857150680630241,-0.019035586809619146,0.12731683968720126,-1.3304282764494482
1.991481968175271,15.835460308021666,-0.018331800130755613,0.11368730040805991,-1.238271530967762
1.98825562436964,15.816199468864557,-0.017516464376254672,0.10032202355981888,-1.1365413576839272
1.9851876988032475,15.799319487120634,-0.016571597472551162,0.0872333291504378,-1.0251954583711824
1.9823036148386612,15.784769943472039,-0.015473779911741571,0.07442826694504645,-0.9044633845630491
1.9796337427244812,15.772499848602191,-0.014191465801367908,0.061906120497689385,-0.7749474346078673
1.9772152491846753,15.76245921583076,-0.012680684640921432,0.04965646585154544,-0.6377212373413208
1.9750949823443795,15.754600757000318,-0.01087783580680776,0.037659743375568266,-0.49438736638361647
1.9733342312802342,15.748880886320375,-0.008686064905919623,0.025894375290458804,-0.3470306216512534
1.9720176792833624,15.745258001199723,-0.005942290614878998,0.014359903827889398,-0.19799360071451316
1.971276482910898,15.743681388203804,-0.002293224634724037,0.0031580183489816685,-0.04944106359426079
