x,y,v_x,v_y,omega
2.375,32.48,0.0,3.0769230769230766,-2.36734693877551
2.3743854232133814,31.841698167263868,-0.005853112253512171,3.0021419967543563,-2.2092109193771594
2.3726371354874094,31.218768566063464,-0.01079724704145751,2.930520871820924,-2.0669306411899315
2.369931805407552,30.61056953552351,-0.014967801338136466,2.8618508476071916,-1.9384526753100557
2.366419957202977,30.016501338722982,-0.018478372038769588,2.795941502874012,-1.8220367630819976
2.362230145496245,29.436002508877312,-0.021424596596772722,2.7326187813704754,-1.7162017477526537
2.357472400970494,28.86854659971306,-0.023887256029424084,2.671723210670036,-1.6196818509758513
2.3522410857360567,28.313639284822756,-0.025934793822363744,2.613108359713824,-1.5313911301997463
2.346617268553816,27.77081575993522,-0.027625369818025214,2.5566394963579127,-1.4503944432722693
2.340670707810562,27.23963840938163,-0.029008542022488273,2.502192413676297,-1.3758836173905478
2.3344615127246207,26.71969470399189,-0.030126649272188326,2.449652399559307,-1.307157801977644
2.3280415395577516,26.210595302525746,-0.03101595231704166,2.398913328689694,-1.2436072017023068
2.3214555687730294,25.711972332757465,-0.031707578966029305,2.349876859579651,-1.1846995530641122
2.3147423004664254,25.2234778316671,-0.03222830966829309,2.302451722233347,-1.1299688377976949
2.3079351985235457,24.744782326978477,-0.03260123264484809,2.2565530843249717,-1.0790058277304488
2.3010632084382823,24.275573544628585,-0.03284629197670606,2.2121019856739847,-1.0314501353166472
2.2941513692887407,23.815555228736123,-0.032980747542739434,2.1690248323494816,-0.9869835068693593
2.2872213367743646,23.364446062322898,-0.033019562117983646,2.1272529430145792,-0.9453241453017934
2.2802918313029013,22.92197867848209,-0.03297572808643069,2.0867221411835506,-0.9062218888486034
2.273379022740627,22.48789875292296,-0.032860543935228054,2.0473723879510617,-0.8694541039663035
2.266496861497252,22.061964169885897,-0.03268384885881989,2.009147450497142,-0.8348221761033588
2.259657364023652,21.64394425434226,-0.032454222318323234,1.9719946022994046,-0.802148502593996
2.252870859489188,21.23361906419163,-0.03217915420037894,1.9358643515161473,-0.771273908582648
2.2461462033225517,20.830778736864467,-0.031865190243777375,1.900710194456825,-0.7420554204225212
2.2394909624032753,20.435222885344945,-0.03151805660647619,1.866488391443356,-0.714364342034984
2.23291157594614,20.046760039160148,-0.03114276679480802,1.8331577626975797,-0.6880845887570208
2.2264134955002035,19.665207126348445,-0.030743713642682607,1.8006795021757844,-0.6631112406299646
2.2200013069658637,19.290388992830618,-0.030324748589126687,1.7690170075178144,-0.6393492832023221
2.213678837099328,18.922137955969607,-0.029889250139785765,1.7381357244918092,-0.6167125089784314
2.2074492466093827,18.56029338942535,-0.02944018309778825,1.7080030045011085,-0.5951225568395255
2.201315111644594,18.204701336695187,-0.028980149900196914,1.6785879738813871,-0.5745080702523813
2.1952784952102373,17.855214150982647,-0.028511435188917862,1.64986141385712,-0.5548039579903191
2.189341009835347,17.511690159261903,-0.028036044571941178,1.621795650149932,-0.5359507435247244
2.183503872624753,17.173993348605492,-0.02755573838609732,1.5943644513396946,-0.5178939912859034
2.177767953673336,16.841993073021506,-0.02707206115120588,1.5675429351744576,-0.5005837997078547
2.1721338186855865,16.515563779206722,-0.02658636730355067,1.5413074821092243,-0.48397435241780584
2.166601766529085,16.194584749765347,-0.02609984371075147,1.5156356554276649,-0.4680235201534993
2.1611718623527056,15.878939862571968,-0.025613529397621647,1.490506127366408,-0.45269250702642905
2.155851369911222,15.568517897988094,-0.025057827187941074,1.4658935353371403,-0.43595264803364053
2.1506466499737305,15.263211759104685,-0.024510934121498344,1.4417839778381911,-0.4200043895014951
2.145555816977669,14.962917742424292,-0.02397318965051681,1.4181590381655453,-0.40480072197484507
2.140576922211834,14.667535921029359,-0.02344485573838796,1.3950011655957253,-0.39029795666719086
2.1357079690235947,14.376969968076914,-0.02292612700674871,1.3722936244275714,-0.3764554538659013
2.1309469260264766,14.091126990620683,-0.02241713963246904,1.3500204465841488,-0.3632353764968053
2.126291738554129,13.809917373043238,-0.021917979151795938,1.3281663874867735,-0.3506024662506105
2.121740338575828,13.53325462943847,-0.021428687308211302,1.3067168849395694,-0.33852383996871327
2.117290653261878,13.261055264337216,-0.020949268062741562,1.285658020786674,-0.3269688042445583
2.112940612363931,12.993238641216436,-0.020479692870085244,1.2649764851255247,-0.31590868642365444
2.1086881545549545,12.729726858275978,-0.020019905310647085,1.2446595428788334,-0.30531668038485066
2.1045312328558428,12.470444631006462,-0.01956982515708244,1.224695002545134,-0.2951677056611029
2.100467819260228,12.215319181108068,-0.019129351944008735,1.2050711869633874,-0.28543827861280646
2.0964959086555113,11.964280131353085,-0.01869836810091459,1.1857769059412036,-0.27610639450348995
2.0926135221263307,11.717259406015316,-0.018276741700807203,1.1668014306089822,-0.26715141944855536
2.08881870971633,11.474191136517124,-0.017864328870627357,1.1481344693738058,-0.25855399131478696
2.0851095527150156,11.23501157197035,-0.01746097590379416,1.1297661453573724,-0.250295928743255
2.0814841655285354,10.999658994310593,-0.017066521110303778,1.111686975211742,-0.2423601475524973
2.077940697186226,10.768073637745754,-0.016680796435498756,1.0938878492152893,-0.23473058385375986
2.0744773325286383,10.540197612259444,-0.01630362887486325,1.076360012559092,-0.22739212327674785
2.0710922931173417,10.315974830927921,-0.01593484170891127,1.0590950477411174,-0.22033053576374878
2.0677838379020734,10.095350940825934,-0.015574255579358015,1.042084857992072,-0.21353241544300525
2.0645502636765904,9.87827325731218,-0.01522168942524418,1.0253216516627095,-0.20698512513957135
2.061389905350915,9.664690701499278,-0.01487696129547389,1.0087979275078012,-0.20067674512424455
2.0583011360644,9.454553740726233,-0.014539889052288023,0.9925064608069283,-0.19459602573908963
2.055285016216541,9.247949019283276,-0.014185061879701005,0.9751575529355311,-0.2142105094010193
2.052340561091858,9.044975664221091,-0.013857367879186455,0.9579220190852578,-0.2356677784063236
2.0494620769798018,8.845610196207566,-0.013556766521346644,0.9407967239007066,-0.2588606537029381
2.046643888845606,8.649829781730713,-0.013283120470993526,0.9237786520693345,-0.2836847858515209
2.043880359774208,8.457612208407316,-0.013036204018514448,0.9068649033916045,-0.31003842842696766
2.0411659087141376,8.26893586128643,-0.01281571083929853,0.8900526882358643,-0.33782221810203716
2.038495026657458,8.083779700068625,-0.012621261129077075,0.8733393233622676,-0.36693896055564645
2.0358622913822075,7.902123237164847,-0.012452408159024982,0.8567222281022855,-0.3972934213670021
2.0332623808749837,7.7239465165214405,-0.012308644290722396,0.8401989208825559,-0.428792121069641
2.0306900855432644,7.5492300931399505,-0.012189406487557466,0.8237670160840066,-0.46134313354664014
2.0281403193197085,7.377955013222046,-0.012094081355834242,0.8074242212293823,-0.494855886949633
2.0256081297540467,7.210102794871034,-0.012022009745708093,0.7911683344945342,-0.5292409663197045
2.023088707182144,7.04565540928229,-0.011972490939079157,0.774997242541121,-0.5644099170775165
2.0205773930564264,6.884595262355042,-0.011944786448707364,0.7589089186707513,-0.6002750485328582
2.018069687517057,6.726905176657787,-0.01193812345004626,0.7429014213030948,-0.6367492365398877
2.015561256279019,6.572568373678731,-0.011951697864602668,0.7269728927831501,-0.6737457243931885
2.0130479369065815,6.4215684562913005,-0.011984677110990693,0.711121558525708,-0.7111779210209132
2.010525744543518,6.273889391362747,-0.012036202537236486,0.6953457265081409,-0.7489591954841247
2.0079908771648536,6.12951549243116,-0.012105391545278342,0.6796437871260325,-0.7870026667352858
2.0054397204139227,5.98843140237279,-0.012191339415967919,0.6640142134298922,-0.8252209875229007
2.002868852087027,5.850622075977292,-0.012293120840183351,0.648455561765337,-0.8635261212526874
2.000275046327125,5.716072762343337,-0.012409791158882856,0.6329664728437585,-0.901829110527362
1.99765527758768,5.584768987000796,-0.012540387312024141,0.6175456732756937,-0.9400398359860342
1.9950067244281298,5.456696533658324,-0.012683928493213863,0.6021919776050025,-0.9780667639491438
1.9923267732034549,5.331841425466493,-0.01283941650369183,0.586904290888624,-1.0158166812445213
1.9896130217120132,5.210189905676387,-0.01300583579575183,0.5716816118742823,-1.0531944154431527
1.9868632828683093,5.091728417561683,-0.01318215319190468,0.5565230368371951,-1.0901025385681864
1.9840755884706551,4.976443583458366,-0.013367317261943498,0.541427764146772,-1.1264410521562767
1.9812481931379222,4.864322182760155,-0.013560257335512952,0.5263950996457045,-1.1621070513452745
1.9783795784948053,4.755351128688975,-0.013759882122742418,0.511424462936952,-1.1969943654356028
1.9754684576913784,4.649517443638228,-0.013965077909896506,0.49651539468921685,-1.2309931721239114
1.972513780350312,4.54680823286153,-0.01417470629073332,0.48166756508885905,-1.2639895823371428
1.9695147380441254,4.44721065625065,-0.014387601387235573,0.4668807835861777,-1.2958651923045441
1.9664707704153912,4.350711897912873,-0.014602566505470772,0.45215501010695003,-1.3264965991979867
1.9633815720651595,4.257299133219366,-0.01481837016340276,0.43749036792646595,-1.3557548763536327
1.9602471003491801,4.166959492951577,-0.015033741417352607,0.42288715843343005,-1.3835050037712668
1.9570675842381173,4.0796800241212985,-0.015247364402294818,0.4083458780454116,-1.4096052492885338
1.9538435344171323,3.9954476469810167,-0.015457871988037107,0.39386723757631764,-1.433906495572161
1.9505757548223697,3.9142491076735233,-0.01566383843827402,0.3794521843998112,-1.4562515078966571
1.9472653558374249,3.836070925892482,-0.015863770942152914,0.36510192780058115,-1.4764741376520905
1.9439137694023738,3.7608993368379053,-0.016056099867857,0.3508179679572854,-1.4943984567237603
1.9405227663220148,3.688720226651572,-0.016239167564134776,0.33660212905542425,-1.5098378184462797
1.937094476099465,3.619519060407079,-0.016411215507766374,0.3224565970826244,-1.5225938419408689
1.9336314096672105,3.553280801608061,-0.016570369561324523,0.30838396290801046,-1.5324553185724439
1.930136485441522,3.4899898220179644,-0.01671462306428088,0.29438727128339487,-1.5391970424141286
1.9266130591897794,3.429629800509769,-0.016841817428503845,0.28047007641369576,-1.5425785715682174
1.9230649582764006,3.3721836094921898,-0.01694961984177134,0.2666365047060943,-1.5423429348232425
1.919496520945794,3.3176331873532554,-0.01703549759257889,0.2528913251885265,-1.53821530968421
1.9159126414161363,3.2659593952856873,-0.017096688404159798,0.2392400278359159,-1.5299017151404792
1.9123188217052216,3.217141856857417,-0.017130165985504712,0.22568890957617477,-1.5170877883356728
1.9087212313040707,3.1711587788228925,-0.01713259973974101,0.2122451669431092,-1.4994377525358233
1.9051267760794408,3.1279867520277485,-0.017100307161497227,0.1989169930106505,-1.4765937402403975
1.9015431781619498,3.0876005319814155,-0.017029196814607073,0.18571367409729472,-1.4481757183461303
1.8979790691267961,3.049972799974533,-0.016914698758283962,0.17264567834920078,-1.4137823840139259
1.8944440996061431,3.015073907823865,-0.016751677628888264,0.15972472308574956,-1.3729935772558477
1.8909490697651816,2.982871612912504,-0.016534320856458794,0.14696379987958,-1.3253750121982946
1.887506087127439,2.953330815835212,-0.016255989979185058,0.13437712466605384,-1.2704864923740595
1.8841287615509896,2.926413321570017,-0.015909015510809095,0.12197996357391024,-1.2078952771732139
1.8808324525729514,2.9020776577832095,-0.015484403327650692,0.10978826296712627,-1.1371969254999912
1.8776345932394132,2.8802790016642525,-0.014971399848903487,0.09781798578484185,-1.058046726486676
1.8745551291820401,2.860969289699124,-0.014356829268934697,0.08608403293066319,-0.9702055599666698
1.8716171357298979,2.8440976101416133,-0.013624060751467739,0.07459862952182574,-0.8736041954237891
1.8688477151119134,2.829610995171521,-0.012751373705525839,0.06336913209808968,-0.7684284247308848
1.8662793403100528,2.8174557121320483,-0.0117093386931475,0.05239546827783883,-0.6552216547816884
1.8639519226724028,2.8075790443714475,-0.01045654357018578,0.04166803420406862,-0.5349880845809272
1.8619160969666024,2.79993124933112,-0.008932272675532728,0.031168109037139173,-0.4092557281066176
1.8602387694204128,2.794466701651679,-0.00704227538341615,0.020875202195630698,-0.28002949714987146
1.8590139600488935,2.7911416210084887,-0.004622575773910256,0.010792232501422711,-0.14955151094744412
1.8583934035063412,2.7898988911197797,-0.0012874865361132545,0.0010432902482005076,-0.019840908094844623
