x,y,v_x,v_y,omega
2.375,32.48,0.0,2.4615384615384617,-7.26530612244898
2.3732936043685102,31.920290707522856,-0.014838222882518792,2.4054988643497097,-6.830765807241535
2.368410516139691,31.373212810521483,-0.027623413889823593,2.3517002400100524,-6.434870158296493
2.36079154996448,30.838268946555914,-0.03862846589462006,2.2999855336036084,-6.0730855879190635
2.350819377063056,30.314995968455204,-0.04808608107428625,2.2502142759677817,-5.741520047861378
2.338826994751392,29.802961410085175,-0.05619550424452864,2.202260144641184,-5.436817134098277
2.3251047959288695,29.30176046087297,-0.06312796377740545,2.1560089789432046,-5.156070262786635
2.3099065031419914,28.81101335605182,-0.06903110393457694,2.1113571499363477,-4.896752597922767
2.293454174681126,28.330363109622887,-0.07403262181207859,2.0682102103152276,-4.656659454726093
2.2759424470004816,27.859473532223678,-0.07824327106309008,2.0264817670692037,-4.433860666891786
2.2575421447525597,27.398027487722068,-0.08175935717971147,1.9860925329447856,-4.22666097238214
2.238403364219791,26.94572535133644,-0.08466482136610076,1.946969522582446,-4.0335668973070815
2.218658116006058,26.502283639077298,-0.08703298918810164,1.90904536662747,-3.8532589394887657
2.198422597149767,26.06743378379781,-0.08892804434486627,1.8722577227593902,-3.684568099805565
2.1777991503392142,25.640921037485782,-0.09040627574689455,1.8365487669104192,-3.5264559998042273
2.1568779579127,25.222503482893465,-0.0915171366575767,1.8018647512836212,-3.377997972363735
2.1357385102596664,24.811951140382185,-0.09230414728184469,1.768155618379714,-3.2383686285991575
2.114450881689599,24.40904515810672,-0.0928056663709186,1.7353746622764903,-3.106829496226386
2.0930768414858627,24.013577075493806,-0.09305555279200417,1.7034782300097044,-2.9827183978599727
2.0716708234685433,23.625348151467204,-0.09308373431512261,1.6724254571781458,-2.865440296382503
2.0502807737646758,23.244168750106702,-0.09291669789241983,1.642178032913189,-2.754459381781854
2.0289488934782463,22.869857777452026,-0.09257791329392302,1.6126999901709413,-2.649292212126942
2.0077122904494806,22.502242164016238,-0.09208819999968963,1.583957517966334,-2.54950175250783
1.9866035522008536,22.1411563882889,-0.09146604564054622,1.555918792706204,-2.4546921812466826
1.965651250412095,21.7864420371126,-0.09072788295735451,1.5285538262181304,-2.3645043536183707
1.944880385788996,21.437947399327683,-0.08988833115654989,1.5018343284333369,-2.2786118305873226
1.9243127809430942,21.095527089515052,-0.08896040663390084,1.4757335829808147,-2.1967173943682634
1.9040064602030453,20.7590520547383,-0.08761629545348212,1.450136284643125,-2.1097501126479994
1.884012937080625,20.42839821827743,-0.08624042735017162,1.425114467190547,-2.0272192060415826
1.8643387008734722,20.103435872064416,-0.08483988749463633,1.4006450650965008,-1.948840782404614
1.8449887092423074,19.784040473538937,-0.0834209092981006,1.376706226429411,-1.8743525852220633
1.8259665729755064,19.470092375888683,-0.08198897128277834,1.3532772313989037,-1.8035120822081676
1.8072747197828518,19.16147657625742,-0.08054888256639109,1.330338417568576,-1.7360947455920952
1.7889145395742134,18.858082480462276,-0.07910485837828965,1.3078711110848806,-1.6718925025895448
1.770886513374556,18.559803682902746,-0.07766058683612458,1.2858575633457983,-1.6107123372276961
1.7531903277626117,18.266537760469276,-0.07621928805034575,1.2642808925974212,-1.5523750269952306
1.7358249764910556,17.97818607937026,-0.07478376648492482,1.2431250300027492,-1.4967139997843235
1.7187888507462281,17.69465361389569,-0.07335645738314174,1.222374669776111,-1.44357429832274
1.702079819331287,17.415848776224173,-0.07193946796417255,1.202015223019669,-1.3928116407994477
1.6856952999045864,17.14168325645924,-0.07053461400713741,1.182032774936286,-1.3442915676986094
1.6696323222721154,16.872071872152034,-0.0691434523621747,1.1624140451263507,-1.2978886660015565
1.6538875846164185,16.606932426631367,-0.06776730986127784,1.14314635070557,-1.2534858629174437
1.6384575034423565,16.346185575519446,-0.06640730904360677,1.1242175720067646,-1.2109737821803082
1.6233382579304958,16.08975470086371,-0.06506439105953105,1.1056161206517885,-1.1702501567199521
1.6085258293101714,15.837565792361733,-0.06373933607372372,1.0873309098001966,-1.1312192921906556
1.5940160357950228,15.589547335198763,-0.062432781449309346,1.0693513263995618,-1.0937915764374921
1.5798045635627669,15.345630204055773,-0.06114523796161155,1.051667205278621,-1.0578830305053983
1.5658869942071907,15.105747562880747,-0.05987710426079034,1.0342688049390074,-1.0234148972602062
1.5522588290428392,14.86983477004761,-0.058628679777047894,1.017146784914359,-0.9903132641013203
1.538915510600921,14.63782928855607,-0.057400176239631645,1.0002921845772903,-0.958508716609355
1.5258524416178298,14.40967060095188,-0.05619172796116203,0.983696403285229,-0.9279360202946082
1.5130766342646342,14.18542934692788,-0.05490224902314704,0.9662275447495519,-0.9210301166898539
1.5005926386259474,13.965190210175276,-0.053654234791520455,0.9488953835339665,-0.916927693085609
1.488390921876725,13.748922240743177,-0.0524476499843273,0.9316956550060133,-0.9154764601673497
1.4764619754190123,13.536595447861885,-0.05128231921317489,0.9146242830921686,-0.9165294727163151
1.4647963456276911,13.328180757658117,-0.0501579398417902,0.8976773708536478,-0.9199447467740309
1.4533846617600594,13.12364997295452,-0.049074093789789774,0.8808511917863139,-0.9255848948140711
1.4422176612625532,12.92297573499193,-0.04803025836243934,0.8641421818014449,-0.9333167772015261
1.4312862126901122,12.726131486922153,-0.047025816180526196,0.8475469318487904,-0.9430111683193827
1.4205813364373436,12.533091438927553,-0.04606006427832991,0.8310621811477337,-0.9545424358270727
1.4100942234656555,12.34383053483096,-0.04513222243200271,0.8146848109965357,-0.967788231590628
1.399816252196803,12.158324420065995,-0.04424144077541195,0.7984118391335935,-0.9826291928868857
1.3897390037307353,11.976549410883358,-0.043386806755609,0.7822404146284603,-0.9989486525365578
1.3798542755341543,11.798482464673416,-0.04256735147553165,0.766167813284076,-1.0166323566631719
1.3701540937357306,11.624101151289189,-0.041782055467282905,0.750191433535295,-1.0355681888072066
1.3606307241544309,11.453383625256901,-0.04102985393532293,0.7343087928324119,-1.0556458991474436
1.3512766821787787,11.28630859876344,-0.040309641505130354,0.7185175245020146,-1.076756837594722
1.342084741607119,11.122855315311373,-0.039620276509301645,0.7028153750811921,-1.0987936895269814
1.3330479425519914,10.96300352393267,-0.03896058483963394,0.6872002021249274,-1.1216502129286186
1.324159598505532,10.806733453851898,-0.03832936339044693,0.6716699724904719,-1.1452209756816536
1.315413302657381,10.654025789488227,-0.037725383115214825,0.6562227611066792,-1.1694010917307354
1.3068029335518523,10.504861645683274,-0.0371473917154708,0.640856750240735,-1.1940859548083527
1.2983226601671165,10.359222543038445,-0.03659411597788454,0.6255702292795159,-1.2191709683603813
1.2899669464958374,10.217090383240777,-0.03606426377236849,0.610361595048027,-1.2445512702548642
1.281730555704099,10.078447424250548,-0.035556525721009466,0.5952293526930773,-1.270121450788284
1.2736085539435635,9.94327625521668,-0.035069576544516604,0.5801721171666536,-1.2957752624230887
1.2655963138906299,9.811559770977215,-0.03460207608969012,0.5651886153504466,-1.3214053195974809
1.2576895180859327,9.683281145991774,-0.03415267003811087,0.5502776888707811,-1.346902786843219
1.2498841621478793,9.55842380754051,-0.03371999029278848,0.5354382976619394,-1.3721570533292857
1.242176557935087,9.436971408009633,-0.033302655035841774,0.5206695243456804,-1.397055391819011
1.2345633367346325,9.31890779606671,-0.0328992684463713,0.5059705795058048,-1.421482599886309
1.2270414525560014,9.204216986509401,-0.032508420063464834,0.49134080794907614,-1.4453206210845568
1.2196081856146133,9.092883128548603,-0.03212868377469223,0.4767796960578448,-1.4684481436018717
1.2122611460939,8.984890472261064,-0.03175861640542431,0.4622868803555457,-1.4907401737732302
1.2049982782812176,8.880223332916415,-0.03139675587876903,0.4478621574240126,-1.5120675816593823
1.197817865180537,8.778866052849537,-0.031041618909759563,0.4335054953314588,-1.532296615754382
1.1907185337140034,8.680802960509926,-0.030691698190532843,0.4192170467521267,-1.551288383761839
1.1836992606353145,8.58601832627538,-0.030345459015456946,0.40499716398305763,-1.568898296305112
1.176759379290611,8.494496314566966,-0.030001335286312682,0.39084641609009046,-1.5849754704380152
1.1698985873775267,8.406220931745576,-0.02965772482746347,0.3767656084437342,-1.5993620899422538
1.1631169558705188,8.321175969206987,-0.029312983929128258,0.36275580493531395,-1.6118927196956239
1.1564149393010297,8.239344941022171,-0.02896542102295044,0.34881835319352017,-1.6223935719560896
1.1497933876049906,8.160711015392767,-0.0286132893773899,0.33495491314911763,-1.630681723351792
1.1432535597783757,8.085256939109083,-0.02825477868013002,0.3211674893177122,-1.636564282866801
1.1367971396149885,8.012964954111638,-0.02788800534932488,0.3074584671818052,-1.6398375134092675
1.1304262538407621,7.94381670517048,-0.027511001383079037,0.2938306540456382,-1.640285912986071
1.1241434930076017,7.8777931376150825,-0.0271217015139678,0.28028732469696044,-1.6376812665735492
1.1179519355700323,7.814874383981156,-0.026717928377940674,0.266832272119791,-1.6317816871596245
1.1118551756439314,7.755039638404092,-0.026297375327284503,0.25346986333294386,-1.6223306751219926
1.1058573550448298,7.6982670176049375,-0.02585758640403435,0.24020510013798194,-1.6090562404967963
1.0999632003334483,7.64453340741936,-0.025395932825371195,0.22704368408442055,-1.5916701547637204
1.0941780657734328,7.593814294065844,-0.02490958508780759,0.2139920842070329,-1.5698674303283982
1.0885079833541833,7.546083579815566,-0.02439547942740623,0.20105760492583452,-1.5433261708590793
1.082959721387177,7.501313383529954,-0.02385027680743005,0.1882484497316453,-1.5117079995072777
1.0775408537055082,7.459473827842221,-0.023270311728821654,0.17557377363996501,-1.4746593622886401
1.0722598422756775,7.420532816818916,-0.0226515267914449,0.16304371351918814,-1.431814130417085
1.0671261372141227,7.384455811084692,-0.021989386787292675,0.15066937982189968,-1.3827981005572565
1.0621503000199664,7.351205612079113,-0.02127876272710985,0.1384627854440111,-1.327236229637466
1.057344158654924,7.320742173901937,-0.02051377088195407,0.12643667696620584,-1.2647637525715378
1.052721007491932,7.293022470699476,-0.019687543578845893,0.11460422044649365,-1.1950427160668098
1.0482958719966784,7.268000460180289,-0.01879189551031634,0.10297847972035681,-1.1177858828815839
1.0440858686359311,7.245627199314438,-0.017816829365747078,0.09157161476531848,-1.0327902965368294
1.040110706908404,7.225851184278277,-0.01674979435188078,0.08039373337520393,-0.9399827460221962
1.0363934055078972,7.20861899654226,-0.015574565652526072,0.06945137737277618,-0.839478302573004
1.032961333083026,7.193876325290024,-0.014269542389831785,0.05874576395101569,-0.7316498824693919
1.0298477448068841,7.181569373012579,-0.012805138272272983,0.04827121237460601,-0.6171998121854154
1.0270940928868946,7.171646484788152,-0.011139661031983725,0.03801477218564256,-0.4972123995911991
1.0247536237076038,7.164059491245876,-0.009212244874893024,0.027959084703716795,-0.37315125816857675
1.022897458867517,7.158763550560355,-0.006928318951948884,0.01809257343123411,-0.24675483819463837
1.0216270681545707,7.155712423074931,-0.004118556812802583,0.008438969920273978,-0.11979205143172042
