x,y,v_x,v_y,omega
2.375,32.48,0.0,3.3846153846153846,-2.7346938775510203
2.3743615662220767,31.844711459140203,-0.00672035555708943,3.3026324139087455,-2.552800770267421
2.3725449756498422,31.224671924636716,-0.012401650466430516,3.2240995282332245,-2.3890603765565133
2.3697330148315596,30.61924748699277,-0.01719793709443778,3.148789289071475,-2.2411319773199727
2.366081546018484,30.0278455443874,-0.02123857672741164,3.0764943173008406,-2.1070303908865857
2.36172378699488,29.44991120568601,-0.024632570889473904,3.0070250374506355,-1.9850648194633536
2.356773846678251,28.884924092125594,-0.027472064022407077,2.9402077368695405,-1.8737893570761277
2.3513296576003557,28.332395482928703,-0.029835189429123842,2.8758828862556314,-1.7719627264772313
2.345475417372887,27.791865759244125,-0.031788391912653986,2.8139036788451746,-1.6785153624482152
2.3392836286655356,27.26290210813741,-0.03338833132262086,2.7541347538571137,-1.5925223750165451
2.3328168095473716,26.74509645428021,-0.034683448868579235,2.696451076218696,-1.5131812432369762
2.3261289321243255,26.238063591824517,-0.03571526084769618,2.640736949630678,-1.4397933335545827
2.3192666363893153,25.741439492928546,-0.036519431099780855,2.58688514401113,-1.3717485247226677
2.312270257439083,25.25487977270167,-0.037126663113188324,2.5347961215348995,-1.3085123672850019
2.3051746972094738,24.77805829309154,-0.03756344456690934,2.48437734804542,-1.249615319741452
2.298010166260327,24.310665890551313,-0.037852670687265964,2.4355426786938343,-1.1946436931574222
2.290802816610715,23.852409214281145,-0.03801416772970561,2.388211808360578,-1.1432320067557908
2.2835752829588123,23.40300966349946,-0.03806513386927026,2.342309778815049,-1.0950565131850734
2.2763471466420997,22.962202413617675,-0.03802051156980981,2.2977665357300356,-1.0498296969162892
2.269135334264895,22.529735522407922,-0.03789330292707853,2.254516529635802,-1.0072955850535599
2.2619544609329196,22.105369108300014,-0.03769483740950494,2.212498355710602,-0.9672257386511048
2.254817126402966,21.68887459384859,-0.037434999747904506,2.1716544279885985,-0.9294158158829946
2.247734171111761,21.280034008195848,-0.037122424370042165,2.1319306841455097,-0.8936826172555384
2.2407148979375964,20.878639343038103,-0.03676466167379293,2.0932763175149804,-0.8598615383790573
2.2337672646279136,20.484491957200287,-0.03636832053339576,2.055643533409389,-0.8278043683272137
2.226898051061004,20.097402025444353,-0.03593919069723067,2.0189873271793832,-0.7973773818607104
2.220113004872305,19.717188027595434,-0.03548234813118533,1.9832652817566165,-0.7684596822154098
2.2134169684427656,19.343676274472827,-0.03500224586396122,1.9484373826918513,-0.7409417581003367
2.206813989800128,18.976700467468532,-0.03450279247959153,1.9144658489323383,-0.7147242242958217
2.20030741960868,18.616101288930516,-0.03398742006196961,1.8813149777836131,-0.6897167200081968
2.1938999961070174,18.261726020786845,-0.033459143113425,1.848951002676051,-0.6658369431032851
2.187593919586518,17.913428189094223,-0.03292060973393305,1.8173419625094767,-0.6430098016502452
2.181390917777451,17.57106723241494,-0.03237414615098795,1.7864575814829846,-0.6211666669764284
2.1752923033181677,17.234508192122775,-0.031821795525677044,1.756269158434549,-0.6002447147572059
2.1692990243200905,16.90362142291376,-0.031265351822504166,1.7267494648182466,-0.5801863426190648
2.1634117089025766,16.578282321954923,-0.030706389414483417,1.6978726505378867,-0.5609386543824131
2.1576307044534624,16.25837107524489,-0.030146288997244357,1.6696141569361518,-0.5424530024638781
2.1519561122699105,15.943772419886564,-0.029586260303305068,1.6419506363094205,-0.5246845811386378
2.1463878181475082,15.634375421085934,-0.029027362037770354,1.6148598773814082,-0.5075920643662698
2.1409255194111645,15.330073262793356,-0.02847051939742685,1.5883207362246927,-0.49113728273743307
2.135568748817351,15.030763050995962,-0.027916539484821964,1.5623130721689251,-0.4752849348272164
2.130316895702122,14.736345628753423,-0.027366124886008838,1.5368176882788511,-0.4600023288639022
2.1251692247017675,14.446725402144573,-0.02681988564403471,1.5118162760248157,-0.4452591511556499
2.120124892331833,14.161810176360856,-0.026278349828961677,1.487291363803777,-0.43102725817589554
2.115187069547844,13.881511463732153,-0.025698732107764497,1.4632214007088786,-0.4160623984145906
2.110358318387284,13.60574384791526,-0.025130227477080432,1.439595607889986,-0.4017527313259185
2.1056365239292054,13.334424385810301,-0.024572872081641724,1.416398730056952,-0.3880620462841436
2.1010195682199013,13.067472969615448,-0.02402666170050285,1.3936161772573032,-0.3749565119285119
2.0965053374103615,12.804812203880555,-0.023491557347283747,1.3712339883731632,-0.362404494936587
2.0920917278939264,12.546367289270734,-0.022967490194140083,1.3492387969933877,-0.3503763944429735
2.0877766515648877,12.292065912605594,-0.022454365901005805,1.3276177994817826,-0.33884449059691585
2.0835580403042533,12.041838142772452,-0.021952068421461284,1.306358725077592,-0.3277828059120066
2.0794338497861804,11.795616332141641,-0.021460463347725153,1.2854498078782992,-0.3171669782025254
2.075402062687438,11.553335023139308,-0.020979400849564372,1.2648797605673288,-0.30697414402605533
2.0714606913724847,11.314930859658155,-0.02050871825520791,1.244637749760612,-0.29718283166299164
2.0676077801181725,11.080342503009547,-0.020048242316499387,1.2247133728562973,-0.28777286276209735
2.0638414069345403,10.849510552141478,-0.019597791195417668,1.2050966362812658,-0.2787252618688773
2.0601596850315356,10.622377467866276,-0.01915717620463224,1.1857779350366406,-0.27002217313154614
2.0565607639756642,10.398887500859832,-0.018726203330857047,1.16674803345224,-0.261646783548897
2.0530428305754294,10.178986623210506,-0.018304674566348718,1.1479980470670044,-0.25358325218643074
2.049604109529891,9.962622463311046,-0.01789238907089956,1.1295194255588772,-0.245816644842553
2.046242863870671,9.749744243900867,-0.017489144184047626,1.1113039366535138,-0.23833287369624404
2.042957395224219,9.54030272307886,-0.01709473630491846,1.093343650946581,-0.23111864151202924
2.0397460439180186,9.334250138118897,-0.016708961655084745,1.0756309275793348,-0.22416139001790206
2.0366071889516713,9.131540151931251,-0.01633161693804597,1.0581584007116736,-0.21744925210759758
2.033539247851358,8.932127802023246,-0.015962499907359342,1.0409189667410035,-0.21097100755073409
2.030540676424022,8.73596945182204,-0.015601409854069116,1.0239057722190377,-0.20471604192322762
2.027609968425714,8.543022744231127,-0.015248148022861127,1.0071122024221353,-0.19867430849639622
2.0247456551568392,8.353246557300295,-0.014902517965292213,0.9905318705339858,-0.1928362928466147
2.021949154177659,8.166800767843366,-0.014534334447134459,0.9720553869073859,-0.2288313691273927
2.019219018069249,7.983855521224303,-0.014203940378234215,0.9536840511880293,-0.2661418450602506
2.0165481634781877,7.804391096073282,-0.013910318475039499,0.9354151609279955,-0.30466696913625146
2.0139297038464776,7.628388274737887,-0.013652414490329666,0.9172461162866896,-0.34430769376712983
2.0113569560256357,7.455828324078702,-0.013429141518530628,0.8991744169678816,-0.38496645788544465
2.008823446112033,7.286692976813903,-0.013239383887813583,0.8811976595036881,-0.42654697163318495
2.0063229145795165,7.120964413347227,-0.013082000664992264,0.8633135348823685,-0.4689540022186771
2.0038493207806907,6.958625244014062,-0.01295582879633527,0.8455198265193619,-0.5120931600047315
2.0013968468841012,6.799658491680223,-0.012859685904606863,0.827814408573677,-0.5558706838664595
1.9989599013109713,6.644047574627336,-0.012792372759916347,0.8101952446145875,-0.6001932248246291
1.996533121732049,6.491776289657519,-0.012752675439266873,0.7926603866466311,-0.6449676269192408
1.9941113776825514,6.34282879534819,-0.012739367187022588,0.7752079745042124,-0.690100704237541
1.9916897728511305,6.197189595385371,-0.012751209985830639,0.757836235630705,-0.735499012950148
1.9892636470972194,6.054843521900665,-0.012786955844812285,0.7405434852609225,-0.7810686171374752
1.986828578250103,5.915775718733006,-0.012845347809043967,0.7233281270302324,-0.8267148471051462
1.984380383742556,5.779971624531473,-0.012925120691450711,0.7061886540385098,-0.872342048790457
1.9819151221319746,5.647416955609561,-0.01302500152519406,0.6891236504026684,-0.9178533227508491
1.979429094562597,5.518097688454219,-0.013143709731414321,0.6721317933377647,-0.963150251098355
1.9769188462237075,5.392000041784822,-0.013279956993737683,0.6552118558137816,-1.0081326105994868
1.9743811678607153,5.2691104580474,-0.013432446827233106,0.6383627098433018,-1.052698069996341
1.9718130973987107,5.149415584218154,-0.013599873825446161,0.6215833304645558,-1.096741869419966
1.9692119217416482,5.032902251776999,-0.01378092256468494,0.6048728004949672,-1.1401564795594086
1.9665751788147205,4.9195574556964345,-0.013974266139816272,0.5882303161425544,-1.182831238017477
1.963900659922903,4.80936833227311,-0.014178564300369156,0.5716551935766474,-1.2246519600253858
1.9611864125051515,4.702322135608643,-0.014392461149646001,0.5551468765756442,-1.265500520401721
1.958430743371478,4.598406212522065,-0.01461458236270772,0.5387049453883245,-1.3052544033257505
1.9556322225192369,4.4976079756483145,-0.014843531871407915,0.5223291269669426,-1.3437862161512266
1.952789687635636,4.399914874444693,-0.015077887955968488,0.5060193067553997,-1.3809631631162866
1.9499022494059073,4.30531436378968,-0.015316198672757273,0.4897755422447242,-1.4166464744121587
1.9469692977610027,4.2137938698149995,-0.015556976536764716,0.47359807854140534,-1.4506907856661737
1.9439905092153762,4.125340752561492,-0.015798692364566623,0.45748736623237074,-1.4829434624867743
1.940965855464683,4.039942264991378,-0.016039768169047185,0.4414440818740838,-1.5132438643318369
1.937895613435473,3.957585507822472,-0.016278568980530348,0.4254691514828077,-1.5414225416309837
1.9347803770045875,3.878257379573025,-0.016513393449842876,0.409563777458754,-1.5673003598700188
1.9316210706355141,3.8019445211177896,-0.01674246306671862,0.3937294694384706,-1.5906875443098472
1.9284189652130614,3.728633253955657,-0.016963909801205174,0.37796807963660384,-1.6113826392805672
1.925175696397127,3.6583095112759025,-0.01717576194547315,0.3622818433081678,-1.6291713767376488
1.9218932858620525,3.5909587607835967,-0.01737592789741611,0.34667342503189574,-1.6438254502478684
1.9185741658413316,3.5265659181057103,-0.017562177583857714,0.331145971577435,-1.6551011931662363
1.9152212074599688,3.465115249450399,-0.01773212116732874,0.3157031721626839,-1.662738164028805
1.9118377534109299,3.40659026203814,-0.017883184612028053,0.3003493269137205,-1.66645764894132
1.9084276556212554,3.3509735806749,-0.018012581595072533,0.2850894242782945,-1.6659611012017876
1.904995318662589,3.2982468087116352,-0.018117281127731394,0.26992922796660423,-1.660928554345656
1.9015457497978099,3.248390371560504,-0.018193970080468927,0.2548753736242581,-1.6510170688907866
1.8980846167323233,3.2013833409636625,-0.018239009556232717,0.23993547476354912,-1.6358593091975389
1.8946183143748814,3.1572032384119417,-0.018248383679997305,0.22511823630719488,-1.6150624008252787
1.8911540422404747,3.1158258166082717,-0.018217638787442144,0.2104335721524857,-1.5882072990662113
1.8876998945996304,3.077224818852084,-0.01814181006354951,0.19589272001792193,-1.5548490183991714
1.8842649661826554,3.0413717179739628,-0.018015331167767535,0.18150834185702266,-1.514518248337707
1.8808594773325922,3.0082354394090984,-0.017831919885527934,0.16729459040470293,-1.4667251386992044
1.877494924218529,2.9777820778025905,-0.017584428683557918,0.15326711071644297,-1.4109664103779584
1.8741842624979674,2.9499746240926186,-0.01726464205919527,0.139442928335875,-1.3467374772496763
1.870942137375466,2.924772731506316,-0.016862990809241685,0.12584015151993008,-1.2735519900820058
1.8677851805603933,2.9021325656728827,-0.016368133559945586,0.11247738356885217,-1.1909721421201669
1.8647324072038733,2.88200680706764,-0.01576632282447562,0.0993727070126408,-1.0986541068534703
1.8618057668158179,2.864344902265959,-0.015040418102422367,0.08654208037346356,-0.9964137196257472
1.8590309368157145,2.8490936873452064,-0.014168318740771044,0.07399702405550783,-0.8843169162399174
1.8564385046705412,2.8361985120813458,-0.013120440682105156,0.06174166293249006,-0.7627951907557093
1.854065781197065,2.8256049299716253,-0.011855595880801385,0.04976972769614524,-0.6327743194869752
1.8519596652817831,2.817260792936139,-0.010314045332693474,0.03806329373002569,-0.49577996666166607
1.850181385313703,2.811118035552955,-0.008404691173413054,0.026597310303485507,-0.3539471283002109
1.848815232295484,2.807132180826869,-0.005975866913102702,0.01535905523426698,-0.20983002353532346
1.8479896306343995,2.8052535584129075,-0.0027146768877866867,0.004415917544262453,-0.06592714572774086
