x,y,v_x,v_y,omega
2.375,32.48,0.0,3.5897435897435894,-6.040816326530612
2.373521034484661,31.80663887498926,-0.015568058056198191,3.498268252474669,-5.616336270013278
2.3693222713690605,31.15026166847991,-0.028629448423810173,3.4109655002553465,-5.236808105902561
2.3628430406750636,30.51010469040496,-0.03957297993404933,3.32752900579675,-4.89609037798425
2.3544550206126305,29.885459437524414,-0.048721968091562935,3.247684182419549,-4.589032749857288
2.344473524998358,29.275666985893277,-0.05634640679551907,3.171183729487144,-4.311293731155374
2.3331667154211195,28.680113152894908,-0.06267264138593669,3.097803986285175,-4.059195922117138
2.320763159117554,28.098224292258287,-0.0678911091779078,3.027341915152952,-3.8296102242845147
2.3074580593855516,27.529463615160203,-0.0721625722115957,2.9596125806163482,-3.6198626083810517
2.2934184144099734,26.97332795270933,-0.07562316437343433,2.894447024129686,-3.427658586748252
2.278787306328323,26.4293448919222,-0.07838849964393745,2.831690457840084,-3.251021681671113
2.2636874808096894,25.897070230193552,-0.08055703213115425,2.7712007182509537,-3.0882430310629396
2.2482243452026727,25.376085703265307,-0.0822128163637612,2.7128469336253067,-2.9378399110980995
2.2324884881407634,24.86599694954399,-0.08342778428791485,2.6565083687043387,-2.7985214387251953
2.2165578036996547,24.36643167983486,-0.08426363088164857,2.6020734177075564,-2.6691600861556624
2.2004992875360707,23.877038026538756,-0.08477338136660374,2.549438722251459,-2.548767923536914
2.184370559969785,23.39748305037906,-0.08500269827850977,2.498508395218994,-2.4364767262235314
2.1682211609948236,22.927451386003348,-0.0849909751421386,2.4491933350516715,-2.331521254848253
2.152093654185202,22.466644010496402,-0.08477225443282531,2.401410617652979,-2.233225151228428
2.1360245699823848,22.01477712107001,-0.08437600033367093,2.3550829552564427,-2.1409889995751605
2.120045213596961,21.571581110052314,-0.08382775109183932,2.3101382133508532,-2.054280186933042
2.1041823584776056,21.136799626858448,-0.08314967121716817,2.266508978163528,-1.972624264140536
2.0884588428019626,20.71018871793953,-0.0823610201053914,2.2241321683514266,-1.8955975625812957
2.0728940835738405,20.291516036824234,-0.08147855071694417,2.182948685493809,-1.822820865447842
2.057504520548137,19.88056011732006,-0.08051684955361967,2.1429030987606517,-1.7539539673643318
2.0423040002532415,19.47710970375865,-0.07948862723475336,2.1039433597804744,-1.6886909847254303
2.027304108763659,19.080963132873407,-0.07840496739243259,2.066020544274714,-1.6267563023392673
2.012514460531844,18.691927762506417,-0.07727554031088167,2.0290886174830733,-1.5679010609620414
1.9979429494683896,18.30981944287038,-0.07610878667284941,1.9931042207909977,-1.5119001059060946
1.983595967523853,17.934462026551827,-0.07491207590121976,1.958026477299026,-1.4585493297463592
1.969478595241361,17.56568691384477,-0.07369184286185473,1.9238168143542056,-1.40766335276215
1.9555947680904031,17.20333263035723,-0.07245370609559641,1.8904388013041178,-1.3590734935476763
1.9419474218375052,16.84724443414396,-0.07120257025069598,1.8578580009408439,-1.3126259895383396
1.9285386197412158,16.497273949892907,-0.06994271497340528,1.8260418332807749,-1.2681804332987312
1.9153696639626625,16.153278827935548,-0.06867787216926015,1.7949594504808901,-1.2256083955185613
1.9024411932470062,15.815122426066335,-0.06741129325869996,1.7645816218266348,-1.1847922099398134
1.889753268645638,15.482673512347645,-0.06614580780833335,1.7348806278437978,-1.1456238990347025
1.8773054488058831,15.155805987246996,-0.0648838747154027,1.7058301626893422,-1.108004222285731
1.8650968561475474,14.834398623605235,-0.06362762695129116,1.6774052440660543,-1.0718418314813511
1.8531262350683093,14.518334823070393,-0.062378910724899414,1.6495821299849134,-1.037052519611466
1.8413920031680653,14.207502387753799,-0.06113931980398546,1.6223382417687306,-1.0035585517904084
1.8298922963519817,13.90179330597432,-0.05991022562847194,1.595652092752116,-0.9712880682041214
1.8186250085599558,13.601103551055076,-0.05869280376127274,1.569503222187276,-0.9401745504168324
1.8075878267736813,13.305332892225508,-0.05748805714687931,1.543872133913436,-0.9101563435169517
1.7967782618692762,13.014384716761626,-0.05629683658370346,1.5187402393905978,-0.8811762275624567
1.7861936758115036,12.728165862569547,-0.05511985876127063,1.494089804736557,-0.8531810326278839
1.7758403739386779,12.446588370960427,-0.053862266215841885,1.4698837911489233,-0.823476160110644
1.7657234560292165,12.169567311722702,-0.052631606515328555,1.4461273587218526,-0.7950761704368897
1.7558378240864736,11.89701874033857,-0.05142767709249288,1.422804971637442,-0.7679086989663446
1.7461784244635081,11.62886159914072,-0.05025021367556436,1.399901777813601,-0.7419061540912748
1.7367402586687235,11.365017591006538,-0.04909889995374714,1.377403570967245,-0.7170053521925238
1.7275183924500617,11.105411060022366,-0.047973376032166275,1.3552967551819475,-0.6931471842475103
1.7185079633736784,10.849968878660249,-0.046873245824500684,1.3335683117877182,-0.6702763110282765
1.7097041870866256,10.598620341044562,-0.04579808351289535,1.3122057683774067,-0.6483408841539562
1.7011023624299892,10.351297061917766,-0.044747439188542334,1.2911971697993931,-0.6272922905504029
1.6926978755487156,10.107932880943729,-0.043720843772229984,1.2705310509799317,-0.6070849181249368
1.6844862031266739,9.868463772013751,-0.04271781330189376,1.250196411440892,-0.5876759406903667
1.6764629148599604,9.63282775724483,-0.04173785266351272,1.2301826913898561,-0.5690251203731763
1.6686236752678516,9.400964825382172,-0.040780458832370074,1.2104797492696875,-0.5510946259191475
1.6609642449288389,9.172816854338478,-0.03984512368355275,1.1910778406639078,-0.533848865468403
1.6534804812186739,8.94832753762146,-0.03893133642344641,1.1719675984625906,-0.5172543325132538
1.6461683386181098,8.727442314418408,-0.03803858568775394,1.153140014201095,-0.501279463878351
1.6390238686498928,8.510108303122667,-0.037166361346111176,1.1345864204908993,-0.48589450867528133
1.632043219497396,8.29627423810156,-0.03631415604859252,1.1162984744681073,-0.47107140728444663
1.625222635350985,8.08589040951895,-0.03548146654520508,1.0982681421909675,-0.45678367950721077
1.6185584555226409,7.87890860603812,-0.03466779480578759,1.0804876839230075,-0.443006321112083
1.612047113364464,7.675282060242331,-0.033872648964494684,1.0629496402431977,-0.4297157080711735
1.6056851350223678,7.474965396620977,-0.03309554411020177,1.0456468189289576,-0.4168895078482474
1.5994691380524408,7.277914581979349,-0.03233600294166216,1.0285722825618533,-0.4045065971582188
1.593395829924099,7.084086878139068,-0.03159355630404306,1.0117193368095245,-0.3925469856705911
1.58746200643117,6.893440796804789,-0.030867743621524252,0.995081519340775,-0.38099174517679807
1.581670889436345,6.706137660039062,-0.03009138263979354,0.9765304466142398,-0.41219385646926193
1.5760227417754376,6.522348948322605,-0.029362803264495047,0.958087571453732,-0.4448517153469015
1.5705086182045473,6.3420543714901605,-0.02868060274487488,0.9397500794140904,-0.4788578413141572
1.5651198423314456,6.165234163632647,-0.028043353814088855,0.9215152664544807,-0.514106779714247
1.5598480109092656,5.991869062450739,-0.027449608524647753,0.9033805354603385,-0.5504948651353585
1.554684997439012,5.821940289233002,-0.026897901688548803,0.8853433931474171,-0.587919988296838
1.5496229551535206,5.655429529386474,-0.026386753948204316,0.8674014473423524,-0.6262813654133859
1.5446543194508053,5.492318913448443,-0.025914674501427173,0.8495524046369136,-0.6654793090287298
1.539771809840576,5.332590998508419,-0.025480163500989104,0.8317940684159688,-0.7054149992958231
1.5349684314640544,5.176228749968995,-0.025081714146607075,0.814124337262185,-0.7459902546579755
1.5302374762440885,5.023215523573441,-0.024717814484611574,0.7965412037436567,-0.7871073008540538
1.5255725237198918,4.873535047626358,-0.02438694892798307,0.7790427535940514,-0.8286685371304797
1.5209674416185797,4.727171405331564,-0.0240875995068841,0.7616271652985368,-0.870576298492586
1.5164163862139879,4.584109017168441,-0.023818246857237355,0.7442927101027622,-0.912732612767259
1.5119138025220842,4.444332623224351,-0.02357737095227699,0.7270377524665838,-0.9550389511768814
1.5074544243815842,4.30782726539606,-0.02336345157930049,0.7098607509891155,-0.9973959710404527
1.503033274468252,4.174578269367565,-0.023174968561040205,0.6927602598371515,-1.0397032491203908
1.4986456642917316,4.044571226265099,-0.0230104017181212,0.6757349307151366,-1.0818590040217537
1.494287194224746,3.9177919738820925,-0.02286823056593737,0.6587835154217798,-1.123759805923257
1.4899537536160699,3.7942265773576302,-0.022746933735918087,0.6419048690462422,-1.1653002717752043
1.4856415210409426,3.6738613091809924,-0.02264498810752617,0.625097953865738,-1.2063727439369867
1.4813469647455573,3.556682628382177,-0.02256086763337183,0.6083618440165495,-1.2468669500448633
1.4770668433460155,3.442677158753508,-0.02249304183548814,0.5916957310220692,-1.2866696416981585
1.4727982068467718,3.3318316659303058,-0.022439973946024743,0.5750989302747772,-1.3256642093279323
1.4685383980491706,3.224133033138692,-0.022400118660303465,0.5585708885843116,-1.3637302703661842
1.4642850544273376,3.1195682353956613,-0.022371919464256866,0.542111192921278,-1.4007432275661345
1.4600361105565272,3.0181243119200225,-0.022353805491641433,0.5257195805065097,-1.4365737940366659
1.455789801188219,2.9197883364821493,-0.022344187858968922,0.5093959504184897,-1.4710874812500734
1.4515446650769355,2.8245473853851877,-0.022341455417702417,0.49314037691796253,-1.5041440459680373
1.447299549676146,2.7323885027296946,-0.022343969853765678,0.47695312471879026,-1.5355968917165033
1.443053616834943,2.6432986625669272,-0.02235006005363328,0.4608346664682203,-1.5652924201420773
1.4388063496436694,2.5572647274923135,-0.022358015643985735,0.4447857027382327,-1.5930693273254661
1.4345575605956946,2.474273403169274,-0.022366079597855238,0.42880718487270747,-1.6187578399486489
1.4303074012544175,2.3943111882035097,-0.02237243978400829,0.41290034108270357,-1.642178886167123
1.4260563736397687,2.3173643187084565,-0.022375219317557864,0.39706670623364665,-1.6631431962079681
1.4218053435775542,2.243418706813131,-0.022372465547857715,0.3813081558224245,-1.681450328217353
1.4175555562886015,2.1724598722638007,-0.022362137493750493,0.36562694469684004,-1.6968876158904578
1.4133086545337212,2.104472866161178,-0.02234209150498954,0.3500257511202606,-1.7092290361840767
1.4090666996761674,2.0394421857565312,-0.022310064890312137,0.33450772682338104,-1.7182339983027664
1.404832196077165,1.9773516791067145,-0.022263657204449117,0.31907655370100263,-1.7236460596942227
1.4006081193044584,1.9181844382654667,-0.02220030882404156,0.30373650778583106,-1.7251915817605756
1.3963979487120435,1.8619226795775816,-0.022117276359276024,0.2884925310340063,-1.722578348513121
1.3922057050462469,1.8085476095613124,-0.022011604333318183,0.2733503112425153,-1.715494187105678
1.3880359938567706,1.7580392748417424,-0.02188009239801073,0.25831637001611696,-1.7036056524623115
1.3838940556531656,1.710376394679944,-0.02171925711362138,0.24339815800281925,-1.6865568725448323
1.3797858239665088,1.6655361749011313,-0.0215252869564501,0.22860415545836235,-1.6639687012377515
1.3757179927834637,1.6234941025707137,-0.0212939886545507,0.2139439743355091,-1.6354383996732071
1.3716980952653666,1.5842237217687227,-0.021020722062261566,0.19942845515911886,-1.6005401745494405
1.3677345963303913,1.5476963925241165,-0.0207003193585317,0.18506974741569573,-1.5588270583649315
1.363837002697284,1.5138810377643175,-0.02032698204259783,0.17088135531901616,-1.5098348416461458
1.3600159955880533,1.4827438875480325,-0.019894145422987595,0.15687812064189388,-1.453089087198223
1.3562835938339668,1.4542482366154381,-0.01939429409371192,0.1430760997012225,-1.3881167010180735
1.352653359233647,1.4283542413403438,-0.018818701699129758,0.1294922716155511,-1.314464128656157
1.3491406626710223,1.4050187964953018,-0.01815705159165626,0.11614398991120697,-1.2317249838586888
1.345763040324931,1.384195551421044,-0.017396867840882575,0.1030480635020219,-1.1395806993994133
1.3425406868494283,1.3658351481337547,-0.01652264242756614,0.09021933952207672,-1.037858288373215
1.3394971606843267,1.3498857849853323,-0.015514475099818341,0.07766869361920875,-0.9266086911374283
1.3366604220781937,1.3362942128533568,-0.014345931280528742,0.06540048671736907,-0.8062057211337356
1.3340643985672922,1.3250072207266967,-0.01298063199211838,0.05340995672117014,-0.6774563315997983
1.3317514035615399,1.3159734955334876,-0.011366683857906599,0.04168188741785571,-0.5416943468288689
1.3297760149437674,1.3091453309982732,-0.009426880539697277,0.030193528742285942,-0.4008021280263889
1.3282118420887625,1.3044787810916496,-0.007038096881405737,0.018928049222165295,-0.25708007362206015
1.3271660457344268,1.301928468855067,-0.003970285795813985,0.007917342741855347,-0.11288974348018285
