x,y,v_x,v_y,omega
2.375,32.48,0.0,3.230769230769231,-2.8571428571428577
2.3742955398745864,31.841709696259446,-0.007044601254133762,3.152133806636282,-2.6662026823729477
2.372291470726813,31.218813547479073,-0.012996090223604614,3.07682768116745,-2.4944080548920082
2.369190150190909,30.61066781724991,-0.01801711513543109,3.0046296211241668,-2.3392787838423583
2.3651640227874458,30.016671041408244,-0.022244158899203198,2.935338137292478,-2.198713197457982
2.3603603921455387,29.436260305174915,-0.025792147519866703,2.8687692250408205,-2.070922703419083
2.3549053601175194,28.868907939882277,-0.028758172760328264,2.8047544278855887,-1.95437889904842
2.348907091457286,28.31411858033643,-0.031224513842006703,2.74313916757286,-1.8477705964794358
2.3424585299406075,27.771426533983345,-0.033261101324776506,2.6837812959579943,-1.7499687281360101
2.3356396663316747,27.240393421097046,-0.034927534764550475,2.6265498329049923,-1.6599975506860118
2.3285194386876764,26.720606051676775,-0.03627474167543515,2.5713238612977425,-1.5770109098897935
2.321157329837454,26.21167450998755,-0.0373463468267854,2.517991555594504,-1.5002725923576468
2.31360471449461,25.713230421973076,-0.03817980660165816,2.466449324550219,-1.4291399934015065
2.3059059986328396,25.224925384312343,-0.03880735201604428,2.41660105205711,-1.3630504877410354
2.2980995859017983,24.746429536835013,-0.03925677529436917,2.3683574227161857,-1.3015100127505272
2.2902186995670633,24.27743026247325,-0.03955208805298239,2.3216353209014606,-1.2440834703586605
2.2822920833881826,23.81763100100035,-0.039714073735824064,2.276357293827518,-1.1903866297458587
2.274344600749204,23.366750164561143,-0.039760752653962714,2.2324510705645575,-1.1400792732336908
2.2663977480279724,22.924520144491872,-0.039707774558348334,2.189849130128139,-1.092859375728632
2.2584700954786263,22.490686400203728,-0.03956875093511365,2.1484883127533436,-1.0484581464438587
2.2505776666840864,22.065006622000013,-0.03935553701028631,2.1083094692838076,-1.0066357924332707
2.242734265815695,21.647249960642093,-0.03907847167363097,2.069257144295372,-0.9671778883196639
2.2349517604391176,21.237196317296966,-0.038746582092140824,2.0312792891558793,-0.92989225671699
2.227240326368495,20.83463568820978,-0.03836775861408498,1.9943270017160006,-0.8946062801969871
2.219608660046008,20.439367559063562,-0.037948904610783596,1.958354289746126,-0.861164578987219
2.2120641630726245,20.05120034452959,-0.03749606512305272,1.9233178555936212,-0.8294269995044163
2.204613102806422,19.669950868985918,-0.03701453753896994,1.8891768998431047,-0.7992668677933312
2.197260752352268,19.295443884798807,-0.036508967002572126,1.8558929420279808,-0.7705694693297319
2.19001151277021,18.92751162492891,-0.03598342881800898,1.82342965667098,-0.7432307227536031
2.1828690199130607,18.565993386948776,-0.035441499753482174,1.7917527231303922,-0.7171560201626438
2.175836237952683,18.210735145845575,-0.03488631985029409,1.760829687901638,-0.6922592108074599
2.1689155413583077,17.86158919323795,-0.034320646093459466,1.730629838174591,-0.6684617085420956
2.1621087868396955,17.518413800862607,-0.033746899092661486,1.7011240855788456,-0.6456917063209245
2.155417376555569,17.181072906388266,-0.03316720374860902,1.6722848591645882,-0.6238834834961697
2.1488423137072905,16.84943581979499,-0.032583424734174485,1.644086006768134,-0.6029767937413891
2.142384251484148,16.523376948718134,-0.03199719749724804,1.6165027040004503,-0.5829163231720359
2.1360435361955137,16.202775541300518,-0.03140995538909419,1.5895113701757204,-0.5636512097094177
2.1298202453131134,15.887515445226288,-0.03082295343490918,1.5630895905665931,-0.5451346159839782
2.123714221050663,15.577484881726189,-0.03023728918959306,1.5372160444343912,-0.527323349134793
2.117725100025776,15.272576233449026,-0.029653921059276413,1.511870438337241,-0.510177521765049
2.1118523394782422,14.972685845188533,-0.029073684416064866,1.4870334442676814,-0.49366024908332307
2.1061014843348183,14.677714460890652,-0.028434867018174402,1.4626803987111254,-0.47596098750563914
2.1004772507777183,14.387566383979038,-0.027807468552823823,1.4388003704050054,-0.4590675701654281
2.094977336659302,14.102148689829441,-0.027191672631341486,1.415376571090975,-0.44293380250791076
2.08959940940401,13.82137173535812,-0.02658759992157563,1.3923929736222527,-0.4275166392119409
2.0843411177533975,13.545149011129748,-0.025995316584549934,1.3698342686614842,-0.41277593545387387
2.0792001019265993,13.273397001833303,-0.02541484168343355,1.3476858243029766,-0.3986742204310704
2.0741740023891255,13.006035054563963,-0.024846153691304263,1.3259336483904325,-0.38517649092396894
2.0692604673991974,12.742985254392757,-0.024289196207974227,1.3045643533216233,-0.3722500229196296
2.0644571594801877,12.48417230674562,-0.023743882982123075,1.2835651231497525,-0.35986419953442295
2.0597617609496925,12.229523426149868,-0.023210102322832223,1.2629236828077637,-0.347990353662877
2.0551719786200016,11.978968230939415,-0.022687720974073403,1.2426282692967596,-0.33660162394687126
2.0506855477709394,11.732438643540423,-0.022176587516549127,1.222667604693171,-0.32567282280716947
2.0463002354839523,11.489868795986954,-0.021676535353321168,1.2030308708415192,-0.3151803154101502
2.0420138434157473,11.251194940341737,-0.021187385328731594,1.1837076856106676,-0.30510190855861624
2.037824210080466,11.016355363720521,-0.02070894802407922,1.164688080601492,-0.2954167485985669
2.033729212701234,10.785290307640071,-0.020241025768242556,1.1459624802030015,-0.28610522752537654
2.0297267686847262,10.557941891429547,-0.019783414396835338,1.1275216819022307,-0.27714889655431535
2.0258148367660973,10.334254039463246,-0.0193359047894541,1.109356837760757,-0.2685303864929726
2.0219914178660465,10.114172411989415,-0.018898284211052722,1.091459436977565,-0.260233334317937
2.018254555696902,9.897644339345234,-0.01847033748039084,1.0738212894642407,-0.25224231541597436
2.0146023371502837,9.68461875936239,-0.01805184798579496,1.0564345103641959,-0.24454278100170831
2.011032892495095,9.475046157780685,-0.017642598566093865,1.0392915054528458,-0.2371210002701615
2.007544395411235,9.268878511499356,-0.01724237227250156,1.0223849573604367,-0.2299640068840625
2.0041350628814465,9.066069234506951,-0.016850953025384408,1.0057078125635974,-0.2230595494331048
2.0008031549610847,8.866573126341024,-0.016468126178233154,0.9892532690956881,-0.2163960455358376
1.9975501007925933,8.67052016587613,-0.01606241550668265,0.9712763355532567,-0.2444531461616638
1.9943747611777138,8.47805163883454,-0.015690980642110282,0.9534089348626622,-0.27408908570803475
1.9912703442426873,8.289145931389793,-0.015353188708155443,0.9356481395848115,-0.3051991354995421
1.988230190913048,8.10378200402922,-0.015048344588238814,0.9179911340209016,-0.33768084256484865
1.9852477867493565,7.9219393696058376,-0.014775697048674966,0.900435210212917,-0.37143380524582725
1.9823167726111552,7.743598072153375,-0.014534444333338429,0.8829777643117069,-0.40635945325753836
1.9794309542512136,7.568738666391891,-0.014323739266077025,0.8656162933031447,-0.44236083130072507
1.976584310935238,7.39734219785305,-0.014142693893680504,0.8483483920852677,-0.4793423853300537
1.9737710031759699,7.229390183555349,-0.013990383698999359,0.8311717508917387,-0.5172097505761958
1.9709853796649959,7.064864593160227,-0.013865851410741849,0.8140841530594761,-0.5558695404078142
1.9682219834805685,6.903747830540187,-0.013768110433530571,0.7970834731409142,-0.5952291351002578
1.9654755576453207,6.746022715689687,-0.013696147918947755,0.7801676753641008,-0.6351964695509039
1.9627410501038745,6.5916724669086015,-0.013648927495514985,0.7633348124467689,-0.6756798189461246
1.9600136181870418,6.440680683186557,-0.013625391672811746,0.7465830247736643,-0.7165875813412175
1.9572886326265395,6.293031326714207,-0.01362446393221123,0.7299105399498313,-0.7578280560616628
1.954561681181921,6.148708705444594,-0.013645050513972572,0.7133156727463048,-0.7993092167709469
1.9518285719397592,6.007697455624083,-0.013686041907646572,0.6967968254587967,-0.8409384779760412
1.949085336344005,5.869982524207746,-0.01374631404989487,0.6803524887045707,-0.8826224536554147
1.94632823201593,5.735549151068504,-0.013824729230856168,0.6639812426878584,-0.924266706595054
1.9435537454221363,5.60438285090272,-0.013920136707080038,0.6476817589699825,-0.9657754869040815
1.9407585944498535,5.4764693947270295,-0.014031373015748043,0.6314528027869261,-1.0070514580518342
1.9379397309501418,5.35179479085188,-0.014157261981367884,0.6152932359645673,-1.047995408621176
1.9350943433117742,5.230345265206392,-0.01429661440230875,0.5992020204903251,-1.088505947806802
1.9322198591315045,5.112107240876387,-0.014448227400388527,0.5831782228097216,-1.1284791825007294
1.9293139480502495,4.997067316702658,-0.014610883412162627,0.567221018927564,-1.1678083735984863
1.9263745248294804,4.885212244769271,-0.014783348795528619,0.5513297004063196,-1.2063835689272542
1.9233997527479605,4.776528906591732,-0.014964372019669584,0.5355036813690738,-1.2440912099402757
1.9203880474059816,4.671004287791671,-0.015152681400120167,0.5197425066315386,-1.280813709039644
1.9173380810325948,4.568625451017791,-0.015346982333747702,0.5040458611072619,-1.3164289940825022
1.9142487874011624,4.469379506841776,-0.015545953980575943,0.4884135806528753,-1.3508100162955585
1.9111193674700546,4.373253582321855,-0.01574824533050171,0.4728456645463386,-1.3838242174737627
1.907949295878714,4.2802347868851065,-0.015952470582903125,0.45734228982114744,-1.4153329519785054
1.9047383284448518,4.190310175131607,-0.016157203755721637,0.44190382771384384,-1.445190858691382
1.9014865108265204,4.10346670610809,-0.01636097242759161,0.426530862521342,-1.4732451777414297
1.8981941885335898,4.019691198535064,-0.01656225050171523,0.41122421320892094,-1.4993350065377848
1.8948620184971086,3.9389702813982304,-0.016759449863094883,0.3959849581594158,-1.5232904894528476
1.8914909824326989,3.861290339231388,-0.01695091078100405,0.3808144635089977,-1.5449319354834923
1.8880824022660356,3.7866374513230667,-0.017134890885627425,0.36571441557421724,-1.564068858473741
1.8846379579253876,3.71499732397195,-0.017309552520851774,0.3506868579369541,-1.5804989351651941
1.8811597078489883,3.6463552147967313,-0.01747294824314208,0.3357342338152259,-1.5940068776770822
1.8776501126049046,3.5806958479749547,-0.017623004197694605,0.32085943440254927,-1.6043632193373263
1.874112062079613,3.5180033191450235,-0.017757501055221024,0.30606585389677154,-1.6113230165753192
1.8705489067608814,3.4582609885608733,-0.01787405213209458,0.2913574519447134,-1.6146244755592027
1.866964493723935,3.401451360948858,-0.017970078237371824,0.2767388241754517,-1.6139875214623247
1.8633632080318885,3.3475559503971866,-0.018042778683091787,0.2622152813412538,-1.6091123422148448
1.859750020389165,3.29655512853644,-0.01808909774414113,0.2477929372662201,-1.5996779596028594
1.8561305420511474,3.248427954288033,-0.018105685636036015,0.23347880521786427,-1.585340911954181
1.85251108821234,3.203151983635152,-0.018088852752040634,0.2192809013109393,-1.565734179301694
1.848898751397503,3.1607030583151783,-0.018034515396326094,0.2052083518888122,-1.5404665510309032
1.8453014868126967,3.1210550732114726,-0.017938130451739122,0.19127149914826086,-1.509122738061324
1.8417282122541234,3.0841797237916957,-0.01779461513399317,0.17748199504951856,-1.471264681611509
1.838188926152886,3.0500462375844215,-0.017598245878378868,0.16385286702323168,-1.4264347296330346
1.8346948488729105,3.0186210979714616,-0.017342526921379612,0.15039852910637663,-1.374161668358764
1.8312585948472904,2.989867775300013,-0.017020013334820054,0.13713469760810498,-1.3139710449006745
1.8278943871572517,2.9637464905470132,-0.016622063565567873,0.12407814992190586,-1.2454018322313398
1.8246183327685626,2.940214051730443,-0.016138480321323746,0.11124623824377901,-1.1680322830565106
1.8214487875665253,2.919223823949878,-0.015556971699048114,0.09865603956188745,-1.0815187268809137
1.8184068583874748,2.900725919891432,-0.014862320091455808,0.08632300102257359,-0.9856518021797889
1.8155171189676365,2.8846677240000105,-0.01403507410692912,0.07425895789165181,-0.8804344046013654
1.8128086655004734,2.8709948748262732,-0.013049460564700285,0.06246953384572913,-0.7661827192933649
1.810316718512189,2.8596527888979466,-0.011870009318143967,0.05095132543752784,-0.6436428476378465
1.8080851215168976,2.8505886401643323,-0.010445960634768929,0.03969016189862222,-0.5140964496075286
1.8061703922401786,2.843753277687263,-0.00870133213242088,0.028663462872071784,-0.3793982292003233
1.804648863130598,2.8391016073727933,-0.0065139589633846605,0.017853240272607165,-0.24185753172535676
1.8036321549810643,2.8365873553706002,-0.0036531225319529565,0.007289279749330989,-0.10387672480606797
