x,y,v_x,v_y,omega
2.375,32.48,0.0,2.358974358974359,-7.387755102040816
2.3736404312683606,31.989739227593265,-0.012948273634660112,2.3101758544231004,-6.995545874938852
2.3697306275799304,31.509545298812377,-0.02428795196943737,2.2630996577758093,-6.633993214740723
2.363588369835346,31.039067956535757,-0.03420974083612795,2.217636935334868,-6.299905009056496
2.3554940318099162,30.57797870544583,-0.042879192739394986,2.173689265521572,-5.990492876431485
2.3456954633800065,30.125968771372236,-0.050440506593078124,2.1311672494650318,-5.703312247563619
2.334412145349578,29.68274732779606,-0.057019665125289005,2.0899893560223672,-5.436212716777409
2.3218387410140253,29.248039945156393,-0.06272704283235657,2.0500809548315972,-5.18729665467864
2.3081481448775105,28.821587227263255,-0.06765958703921181,2.011373501293548,-4.95488451592022
2.293494109775083,28.40314360588402,-0.07190265203152392,1.9738038451753452,-4.737485610423281
2.2780135186454764,27.992476269890183,-0.07553154920282681,1.937313640480243,-4.533773361393625
2.261828355343312,27.589364209564962,-0.07861286319873803,1.901848838807589,-4.342564269747205
2.24504741942979,27.193597360032804,-0.08120557407290156,1.8673592519748536,-4.162799956962073
2.2277678222902613,26.80497583046907,-0.0833620177321345,1.833798172441695,-3.9935317776854875
2.21007629578499,26.423309207926486,-0.08512871088949199,1.801122042249556,-3.833907587545599
2.1920503396357565,26.04841592638499,-0.08654706196035328,1.7692901629075597,-3.683160326397736
2.1737592296492023,25.680122693077564,-0.0876539855306382,1.738264440020315,-3.5405981370478794
2.15526490549598,25.318263965333287,-0.08848243497624582,1.7080091575442036,-3.405595787636035
2.136622753961498,24.962681472160416,-0.08906186535214967,1.6784907774355424,-3.277587204835088
2.1178823012489687,24.613223775607622,-0.0894186366719385,1.6496777611624984,-3.15605895674538
2.099087825961344,24.269745867622113,-0.08957636606734623,1.6215404101280289,-3.04054455032279
2.0802789027465822,23.93210879869399,-0.0895562359780054,1.5940507225207878,-2.9306194295196804
2.061490885205164,23.60017933505721,-0.08937726441645504,1.5671822644961497,-2.8258965779442913
2.0427553354855403,23.273829641624886,-0.08905654243710011,1.5409100539069467,-2.7260226444641606
2.0241004069962987,22.952936988182692,-0.08860944317472748,1.515210455066316,-2.630674522354528
2.005551185814043,22.63738347666015,-0.08804980618008833,1.4900610832435899,-2.5395563227708173
1.987158334329448,22.327066024905925,-0.0871202079589102,1.465343219177606,-2.4452492282332576
1.968966706633426,22.021885316988516,-0.08613338914606163,1.44113971336912,-2.3554374216065
1.950987465920751,21.72173538081246,-0.0850974747841778,1.4174311073552157,-2.2698514072851266
1.9332301581745546,21.42651422892091,-0.08401974184626268,1.3941989106595634,-2.1882409478391827
1.9157028810843633,21.13612366172487,-0.08290670663175027,1.371425538826556,-2.110373465716151
1.8984124356041852,20.850469083233467,-0.08176420270328015,1.349094256329673,-2.036032595863755
1.8813644620220735,20.56945932831001,-0.08059745045968644,1.3271891238936948,-1.9650168732873485
1.864563562196897,20.293006500569927,-0.07941111930390099,1.305694949821412,-1.8971385414354647
1.8480134094291394,20.021025820117877,-0.07820938324617041,1.2845972449600032,-1.832222468943408
1.8317168472668426,19.75343548039405,-0.07699597068046721,1.2638821809812137,-1.7701051636921767
1.8156759784021832,19.490156513464235,-0.07577420898295396,1.2435365516836607,-1.710633874387602
1.7998922446860623,19.23111266314661,-0.0745470645039128,1.2235477370556453,-1.6536657709571978
1.7843664991751607,18.976230265420114,-0.07331717845705432,1.2039036698633634,-1.5990671960208638
1.7690990710262948,18.725438135606417,-0.0720868991511909,1.1845928045528173,-1.5467129805341973
1.7540898239648586,18.47866746185955,-0.07085831095772677,1.1656040882744765,-1.4964858174450961
1.7393382089762575,18.235851704535627,-0.06963326036228353,1.1469269338581318,-1.4482756878586966
1.7248433118002529,17.996926501049437,-0.06841337940918903,1.1285511945817617,-1.4019793347837595
1.7106038957469458,17.761829575856108,-0.06720010681278117,1.1104671405928048,-1.3574997800450894
1.696618440298821,17.530500655224273,-0.06599470697888686,1.0926654368532651,-1.314745880399817
1.682885175914984,17.30288138649305,-0.06479828715289217,1.0751371224917106,-1.2736319192975978
1.6694021154107894,17.07891526152857,-0.06361181288705633,1.0578735914556745,-1.2340772310822534
1.656167082247781,16.858547544117158,-0.06243612199873924,1.0408665743673289,-1.1960058547505175
1.643177736034784,16.64172520105175,-0.06127193717266173,1.024108121493728,-1.1593462146670483
1.6304315955105448,16.4283968366861,-0.060119877343899536,1.0075905867505062,-1.1240308258878626
1.6179260592511402,16.218512630747497,-0.05898046798376411,0.9913066126647597,-1.089996021970366
1.6056689916842994,16.012185311736513,-0.05775350884329091,0.9737154731541301,-1.0875673775398367
1.5936655091924643,15.809538862751793,-0.056565372031329934,0.9562507076527262,-1.0875963852586457
1.5819074850058228,15.610547133798725,-0.05541581069858804,0.9389086157098171,-1.0899462392365629
1.5703868556034748,15.415184735387307,-0.05430446932377502,0.9216856548751289,-1.094484323337039
1.5590956425172071,15.223427006093605,-0.05323089340258506,0.9045784336363084,-1.1010818973496523
1.5480259721818954,15.035249981545654,-0.05219453836228734,0.8875837049155983,-1.109613795584286
1.5371700939892572,14.85063036471923,-0.05119477775807705,0.8706983600979786,-1.1199581365916949
1.526520396690366,14.669545497434466,-0.05023091080279102,0.8539194235664427,-1.1319960427734657
1.5160694232819498,14.491973332949037,-0.04930216927736453,0.837244047723352,-1.1456113686938583
1.5058098845019527,14.317892409547689,-0.048407723865463624,0.8206695084799779,-1.1606904369470747
1.4957346710511148,14.14728182503135,-0.04754668995204019,0.8041932011994312,-1.1771217804664413
1.4858368646493305,13.98012121201188,-0.04671813292209624,0.7878126370812296,-1.194795890187065
1.4761097480282785,13.81639071392058,-0.045921072992682985,0.7715254399787921,-1.2136049669909084
1.4665468139551991,13.656070961640165,-0.04515448960807379,0.7553293436442148,-1.2334426768730067
1.4571417733767145,13.499143050670753,-0.04441732542511401,0.739222189397809,-1.2542039082697716
1.4478885627662186,13.345588518740556,-0.043708489912941906,0.7232019242231037,-1.275784530484943
1.4387813507535596,13.195389323771536,-0.04302686258857071,0.707266599291377,-1.2980811521356903
1.4298145441115038,13.048527822108994,-0.04237129590719987,0.6914143689233224,-1.3209908785204714
1.4209827931697738,12.904986746922127,-0.041740617823561824,0.6756434899992235,-1.3444110667813518
1.4122809967243009,12.764749186679737,-0.04113363403808671,0.6599523218330638,-1.3682390776963613
1.40370430650669,12.627798563601576,-0.040549129939157984,0.6443393265303777,-1.3923720228918453
1.395248131276806,12.494118611981172,-0.03998587225021416,0.6288030698544379,-1.4167065062104587
1.386908140599804,12.36369335627024,-0.039442610387900374,0.6133422226306242,-1.4411383579071997
1.3786802683679138,12.23650708880794,-0.03891807753486241,0.5979555627246208,-1.4655623602735532
1.3705607161268052,12.11254434707002,-0.038410991428077405,0.5826419776365179,-1.4898719632083879
1.362545956266473,11.99178989030338,-0.03792005486079942,0.567400467760054,-1.5139589881638646
1.3546327351372998,11.874228675400332,-0.03744395589323131,0.552230150364222,-1.5377133187957448
1.346818076153303,11.759845831853934,-0.036981367763880904,0.5371302643633911,-1.5610225765410044
1.3390992829466268,11.648626635620808,-0.03653094849017826,0.5221001759520908,-1.5837717792330954
1.331473942640114,11.540556481700701,-0.036091340143275655,0.507139385191773,-1.605842980748953
1.3239399293083833,11.435620855222382,-0.035661167777970265,0.4922475336493588,-1.6271148895656096
1.316495407702293,11.333805300803064,-0.03523903799431886,0.47742441320128015,-1.647462463993504
1.309138837317108,11.235095389923053,-0.034823537102680595,0.4626699761321639,-1.6667564817561629
1.30186897689118,11.139476686028374,-0.03441322885853901,0.4479843466743132,-1.6848630815132755
1.2946848894296559,11.046934707041533,-0.03400665172740571,0.4333678341527305,-1.701643273892374
1.2875859478567864,10.957454884923848,-0.03360231563325555,0.41882094792046637,-1.7169524196261219
1.2805718414110039,10.871022521891717,-0.033198698136101164,0.4043444142902909,-1.7306396725194868
1.2736425829093132,10.787622742843734,-0.03279423997523884,0.3899391956905091,-1.7425473852384261
1.2667985170219878,10.707240443505334,-0.03238733990405117,0.3756065122942333,-1.7525104763813748
1.2600403297154579,10.629860233743383,-0.031976348729567124,0.3613478663910242,-1.76035575805353
1.2533690590411213,10.55546637544489,-0.031559562454590025,0.34716506978508527,-1.7659012243325014
1.246786107471269,10.48404271429376,-0.03113521440114553,0.33306027451138426,-1.7689553027607405
1.2402932560113133,10.415572604718843,-0.030701466169860355,0.3190360071545106,-1.7693160735599713
1.2338926803513293,10.35003882722986,-0.030256397258558887,0.3050952070262777,-1.766770464963049
1.2275869693614012,10.28742349731068,-0.02979799312170799,0.2912412683944755,-1.7610934383562564
1.2213791462870858,10.227707965011241,-0.029324131395581415,0.277478086838287,-1.752047184458087
1.2152726930673867,10.170872704384308,-0.028832565934884938,0.2638101096086881,-1.73938036241973
1.2092715782838612,10.116897191972079,-0.028320908193930208,0.2502423895554096,-1.7228274287596848
1.2033802893646803,10.065759773691397,-0.02778660532207875,0.23678064168917345,-1.702108124166975
1.1976038698251008,10.017437519740739,-0.027226914102487437,0.22343130069805334,-1.676927215813464
1.1919479625464342,9.971906067622786,-0.02663886950386162,0.2102015766157733,-1.6469746341825604
1.1864188604108934,9.92913945413827,-0.02601924607271794,0.19709950418915087,-1.6119262009792452
1.1810235660685489,9.889109938393137,-0.025364509568659346,0.1841339790978104,-1.571445224282695
1.1757698632906999,9.851787819657517,-0.02467075498228358,0.1713147707652348,-1.5251853461485576
1.1706664033783845,9.817141256569926,-0.023933625135005115,0.15865249673562257,-1.4727951750753305
1.1657228116263019,9.785136098012874,-0.02314820107530443,0.14615853714105956,-1.4139254298266484
1.1609498211686693,9.75573574137034,-0.022308850902148854,0.13384485945449143,-1.3482395670712861
1.1563594450765573,9.728901041177377,-0.02140901664177438,0.1217237138118303,-1.2754291558118722
1.1519652029689638,9.704590300558117,-0.020440908192450587,0.10980714922873398,-1.1952355583466159
1.1477824265745435,9.682759388882136,-0.0193950574686939,0.09810629530442704,-1.1074796750028906
1.143828680987894,9.663362039844486,-0.01825966240416067,0.08663036219700986,-1.012101370936824
1.1401243567654853,9.646350389729793,-0.017019615904493784,0.07538535318102423,-0.9092092628724584
1.1366935155642819,9.63167580533706,-0.015655062202205146,0.06437259341643012,-0.7991390137764561
1.1335651146170345,9.619290005119826,-0.014139232533484727,0.05358740865246235,-0.6825131057743064
1.1307748080994153,9.609146362948206,-0.012435115253363186,0.0430187072677294,-0.5602864758508421
1.128367674906502,9.601201051781203,-0.010489962774382834,0.03265092289420746,-0.4337515248842574
1.1264026291708287,9.595413239745781,-0.00822475851774358,0.022471096490763495,-0.3044680607108977
1.124960690115928,9.591742526011885,-0.005507994386073646,0.01248808192730204,-0.1740876251174101
1.124166498642638,9.590137492969852,-0.0020557339309722586,0.002797947044438526,-0.04407599304680096
