x,y,v_x,v_y,omega
2.375,32.48,0.0,3.5384615384615383,-3.959183673469388
2.3741380867849617,31.850727212930245,-0.00957681350042701,3.4534583178690386,-3.69830578056365
2.3716838724787364,31.236434130682685,-0.017692234346518412,3.372020373770504,-3.463225456445168
2.367881153552893,30.636500289306802,-0.024560198162849895,3.293911197072666,-3.2506447852307185
2.3629382689939384,30.050345874024796,-0.03036074138109416,3.218915639394067,-3.0577631554197775
2.357033671819104,29.477428101095224,-0.03524589389484328,3.146837393156704,-2.8821921464544404
2.3503205408309653,28.917238019250583,-0.039344450417810505,3.0774968495615633,-2.721886618325739
2.3429306135071215,28.369297668981417,-0.042765853180452285,3.0107292645402675,-2.575088615406952
2.334977383767328,27.833157549140868,-0.04560336615058668,2.9463831781324825,-2.4402814679860043
2.3265587794936704,27.308394349127013,-0.04793668133449982,2.8843190442436857,-2.3161520566117764
2.317759412097182,26.794608911863797,-0.049834067515373164,2.824408036458705,-2.2015596461065523
2.3086524726474296,26.29142439837808,-0.05135414859298226,2.766531002271495,-2.095510034171353
2.299301335006503,25.798484629279237,-0.0525473807506493,2.710577543271183,-1.9971340200944854
2.289760915204894,25.315452582125765,-0.05345728371167443,2.6564452028785257,-1.9056694012574789
2.2800788273337296,24.842009026687933,-0.054121470412369733,2.604038746430742,-1.8204458629724607
2.2702963690238995,24.377851282622075,-0.0545725108079676,2.553269520967633,-1.7408722511181662
2.260449363767102,23.922692086163572,-0.0548386587119997,2.504054884126877,-1.6664258148798188
2.2505688826196235,23.476258554202126,-0.054944465148874654,2.456317693222533,-1.5966430845306678
2.2406818639930823,23.03829123558733,-0.05491129736825229,2.4099858469418205,-1.5311121110909292
2.230811647102436,22.608543240773223,-0.05475777919448198,2.364991873214943,-1.4694658442788762
2.220978432072338,22.18677944198729,-0.05450016558438718,2.3212725577398516,-1.4113764650540197
2.2111996775895566,21.772775737033236,-0.05415266200207074,2.278768608416309,-1.3565505212726796
2.2014904452450748,21.366318370632595,-0.05372769738106146,2.237424351590818,-1.3047247411083394
2.1918636982655912,20.96720330789909,-0.053236157946531006,2.197187456559202,-1.2556624201641924
2.1823305611352457,20.575235655137604,-0.052687587946199065,2.1580086852351203,-1.2091502955893314
2.172900545609962,20.190229123680766,-0.0520903623347327,2.119841664285327,-1.1649958347646352
2.1635817477930708,19.81200553293199,-0.05145183563072433,2.0826426773677125,-1.1230248778524379
2.1543810202427394,19.440394349183286,-0.05077847048407109,2.046370475395665,-1.083079583184807
2.1453041224956637,19.0752322571277,-0.05007594892788009,2.010986102999753,-1.0450166324812076
2.1363558528982374,18.716362761296285,-0.04934926882130159,1.9764527395715066,-1.008705659543952
2.1275401642202696,18.36363581492351,-0.04860282760055957,1.942735553459348,-0.9740278716255375
2.118860265174442,18.016907473987864,-0.04784049513085824,1.9098015680477967,-0.9408748372945974
2.110318709666428,17.676039574390327,-0.04706567718040651,1.8776195385915213,-0.9091474185077415
2.101917475347268,17.340899430425214,-0.046281370810261444,1.8461598387986138,-0.8787548278537881
2.09365803282392,17.01135955286948,-0.0454902127824965,1.8153943562651045,-0.8496137946814012
2.0855414066999596,16.687297385169458,-0.04469452192817632,1.7852963959573482,-0.8216478261380122
2.07756822946116,16.368595056341295,-0.04389633628070385,1.7558405910222348,-0.7947865511085691
2.069738789086035,16.055139149324205,-0.043097445665134224,1.7270028202787497,-0.768965136705805
2.0620530711458795,15.746820483636263,-0.04229942033659146,1.6987601318094938,-0.7441237683777774
2.0545107960595534,15.443533911281847,-0.041503636178141796,1.6710906721284668,-0.7202071859033967
2.0471114520826985,15.145178124949545,-0.04071129689802201,1.6439736204526667,-0.6971642685757176
2.039854324537333,14.851655477620245,-0.03992345360604083,1.6173891276506585,-0.6749476637534618
2.0327385217240015,14.562871812778312,-0.03914102209764215,1.5913182594819144,-0.6535134537165379
2.025762997903497,14.278736304485008,-0.03836479813018585,1.5657429437770294,-0.6328208564103865
2.0189265736873305,13.99916130663335,-0.0375954709383323,1.5406459212413748,-0.612831956222868
2.012227954134605,13.72406221075818,-0.03683363520306134,1.5160106995938438,-0.5935114614195637
2.0056657448168376,13.453357311824675,-0.036079801661019054,1.491821510778425,-0.5748264852801221
1.9992424762261427,13.186968468438778,-0.035289849346703615,1.4680545268426366,-0.5555264529347498
1.9929599950639323,12.924820151020274,-0.03451549690007882,1.4447045555851648,-0.5370382019897724
1.9868154988807079,12.666838544386003,-0.033756682913524516,1.4217577403511623,-0.5193185155679506
1.9808061998330533,12.412952275183589,-0.0330133065048608,1.3992008063423147,-0.5023269114529718
1.9749293312794038,12.16309230993269,-0.03228523298013344,1.377021029778794,-0.4860254413568888
1.9691821534171696,11.917191858442575,-0.031572298822468654,1.3552062090002728,-0.47037850689423044
1.9635619580753962,11.675186282269749,-0.030874316086122695,1.3337446373644515,-0.4553526907111814
1.958066072763771,11.437013007903754,-0.03019107626526787,1.3126250778132809,-0.440916601376989
1.9526918640670152,11.202611444391664,-0.029522353698688084,1.2918367389877126,-0.4270407307858047
1.9474367404633515,10.971922905132438,-0.02886790856424116,1.2713692527814737,-0.4136973229426342
1.942298154636621,10.744890533591121,-0.028227489510543404,1.251212653233154,-0.4008602531188263
1.9372736053435768,10.521459232700387,-0.02760083596772389,1.2313573566638938,-0.38850491646218566
1.9323606388908057,10.301575597732864,-0.026987680174178373,1.2117941429752508,-0.3766081252357787
1.9275568502694553,10.08518785244253,-0.026387748951936758,1.1925141380284714,-0.3651480139390364
1.922859883990429,9.872245788287046,-0.025800765259466122,1.1735087970324605,-0.3541039516359437
1.9182674346578112,9.66270070655553,-0.025226449547396942,1.1547698888732898,-0.34345646087887743
1.9137772473139703,9.456505363237849,-0.024664520939725598,1.1362894813231597,-0.33318714267385807
1.9093871175859536,9.25361391648234,-0.02411469826046127,1.118059927071368,-0.3232786069843432
1.9050948916594055,9.05398187649875,-0.023576700923406378,1.1000738505241008,-0.313714408316857
1.9008984661032313,8.857566057772441,-0.023050249700749016,1.0823241353237563,-0.30447898597329326
1.8967957875655705,8.664324533464516,-0.022535067384370465,1.0648039125421003,-0.29555760859214664
1.892784852359279,8.474216591880293,-0.022030879352201962,1.0475065495048388,-0.2869363226346635
1.8888637059530289,8.287202694896116,-0.021537414050577585,1.0304256392082196,-0.278601904502352
1.8850304423822697,8.10324443824118,-0.02105440340230254,1.0135549902910608,-0.27054181599979826
1.8812832035926461,7.922304513537451,-0.020581583149068994,0.9968886175281637,-0.26274416288160696
1.8776241361400006,7.744563850370319,-0.020074721880327648,0.9780076398844268,-0.3030837002032611
1.8740523390502435,7.570212592219665,-0.019611912450305413,0.9592285617895215,-0.3445622732990318
1.8705600131809503,7.399232624246686,-0.019191708319619052,0.9405488601324818,-0.3870806765207868
1.8671396209083668,7.231606277039916,-0.01881265026464148,0.9219661088316238,-0.430541024450819
1.8637838881712399,7.0673163093640845,-0.018473269036770077,0.903477976455382,-0.47484653607125477
1.8604858060640757,6.906345891306582,-0.018172087709499185,0.8850822241835241,-0.5199013194931138
1.857238632034453,6.748678587760136,-0.01790762373075144,0.8667767041103087,-0.5656101562909552
1.854035890736094,6.594298342179755,-0.017678390695459664,0.8485593578939126,-0.6118782844605994
1.8508713745869159,6.443189460550958,-0.017482899850964205,0.8304282157594011,-0.6586111789806662
1.8477391440792452,6.2953365955047005,-0.017319661345376037,0.8123813958656888,-0.7057143289130348
1.844633527887765,6.150724730512252,-0.017187185226628578,0.7944171040503987,-0.7530930099221103
1.8415491228195955,6.009339164090388,-0.017083982197474486,0.7765336339703223,-0.800652051027171
1.8384807936501995,5.871165493943714,-0.017008564129149594,0.7587293676593846,-0.8482955943251431
1.8354236728885345,5.736189600966608,-0.01695944433379409,0.7410027765306971,-0.8959268463318584
1.8323731605151268,5.604397633021936,-0.01693513759295815,0.7233524228545284,-0.9434478194870196
1.8293249237374676,5.475775988407534,-0.016934159936589012,0.7057769617499323,-0.9907590622504162
1.8262748968084361,5.350311298913937,-0.016955028163759208,0.6882751437344719,-1.0377593760829649
1.8232192809553274,5.227990412368268,-0.016996259093006755,0.6708458178840836,-1.0843455174543486
1.8201545444695744,5.108800374548956,-0.017056368526468038,0.6534879356638148,-1.1304118828477383
1.817077423010478,4.992728410344203,-0.017133869907937284,0.6362005555001006,-1.1758501745396164
1.813984920180217,4.8797619040132965,-0.0172272726505205,0.6189828481766475,-1.22054904471738
1.8108743084322563,4.769888378393979,-0.017335080104595557,0.6018341031490905,-1.2643937152576192
1.807743130381029,4.663095472880581,-0.017455787131263906,0.5847537358886717,-1.3072655702224425
1.8045892005875892,4.559370919976171,-0.017587877240291944,0.5677412963825668,-1.349041717839153
1.80141060790395,4.458702520197274,-0.01772981924458714,0.5507964789385121,-1.3895945184100458
1.7982057184681497,4.361078115081003,-0.01788006337541667,0.5339191334644812,-1.4287910742555134
1.7949731794529278,4.266485558011333,-0.018037036793716644,0.5171092784207387,-1.4664926774285543
1.7917119236834413,4.1749126825429705,-0.018199138422798408,0.5003671156721745,-1.5025542105589094
1.788421175253918,4.086347267857128,-0.01836473301634789,0.4836930475038518,-1.5368234958018625
1.7851004562898118,4.000777000932537,-0.018532144362611646,0.4670876961027008,-1.5691405864986956
1.7817495950212048,3.918189434956467,-0.018699647510801484,0.4505519258536485,-1.5993369958316233
1.7783687353552498,3.8385719434331875,-0.01886545988869714,0.4340868688494703,-1.6272348565194223
1.7749583481607982,3.761911669370413,-0.019027731160765227,0.4176939540702347,-1.6526460055164311
1.7715192445075325,3.688195468836607,-0.01918453165329733,0.4013749407498299,-1.6753709878443837
1.7680525911355627,3.617409848083021,-0.01933383914636593,0.3851319565122502,-1.69519797424712
1.7645599284703197,3.549540893313562,-0.01947352380077881,0.36896754092618683,-1.711901588523439
1.7610431915427314,3.484574192063306,-0.01960133095020314,0.352884695187769,-1.7252416424724033
1.7575047342274304,3.4224947450143866,-0.01971486144203046,0.3368869386891329,-1.7349617798313055
1.7539473572739672,3.3632868669398484,-0.01981154915200469,0.32097837325017264,-1.7407880360631796
1.7503743406803172,3.3069340753290533,-0.01988863522188517,0.3051637557586804,-1.7424273293318828
1.7467894810482179,3.2534189651249434,-0.019943138468105973,0.28944857984255146,-1.7395659109179582
1.7431971346718778,3.20272306791561,-0.01997182126900793,0.2738391669278284,-1.7318678227786828
1.7396022672543676,3.154826693904738,-0.019971150036658555,0.2583427665262992,-1.7189734390303435
1.7360105113338657,3.1097087550939655,-0.0199372490800288,0.24296766470448997,-1.7004982113703342
1.7324282327578904,3.067346568432974,-0.019865846208588674,0.22772329819542675,-1.6760318025184289
1.7288626079054508,3.0277156383676136,-0.019752207707404698,0.21262036919746624,-1.64513788634788
1.725321713886915,2.9907894194533533,-0.019591059165216838,0.19767095207210067,-1.6073550325024444
1.7218146347530618,2.956539061819388,-0.019376486766482615,0.18288857719418444,-1.5621992967706666
1.718351587992029,2.924933145740173,-0.019101810578327227,0.16828826813041306,-1.5091694333803392
1.7149440775774878,2.895937417073302,-0.018759416249908973,0.1538864948348309,-1.4477560662519062
1.7116050830436875,2.869514543778461,-0.018340523014540176,0.13970098621896102,-1.3774567412300447
1.708349299323202,2.8456239262799237,-0.017834851657520828,0.1257503193203276,-1.297799556580689
1.7051934507521385,2.8242216121830843,-0.017230132465406296,0.11205317064455181,-1.2083790052338401
1.702156716952667,2.805260389088172,-0.016511354195389034,0.09862708596559157,-1.108908568541887
1.699261331833409,2.7886901553813352,-0.0156595915741439,0.08548662188815259,-0.9992948966003132
1.6965334554633056,2.774458687944797,-0.014650145871449393,0.07264079407339565,-0.879736698375384
1.6940044817981996,2.762512911600762,-0.013449561518617058,0.06009005419367145,-0.7508449545561187
1.691713053049197,2.7528006717210225,-0.012010757914746453,0.04782372224787686,-0.6137654413735231
1.6897082605685385,2.745272715828829,-0.010264714092569543,0.035820232109843995,-0.4702563753439455
1.6880550394837868,2.7398839207688006,-0.008104409071338267,0.024055268557156628,-0.3226388497981254
1.686844650825891,2.7365912336646616,-0.005344353794170419,0.012530143711048733,-0.1735206117632467
1.686223907787991,2.735339254910574,-0.0015527910713850992,0.001380731334384204,-0.025252647228889258
