x,y,v_x,v_y,omega
2.375,32.48,0.0,3.230769230769231,-5.795918367346939
2.3738742778087008,31.905030074467575,-0.012508024347769767,3.1577854973687938,-5.443697408056409
2.3706556167030852,31.342940584138102,-0.023254876825734863,3.0876532840697912,-5.12339546759114
2.36563967740895,30.793234719187296,-0.03247778199799196,3.0201896598280578,-4.831242197420777
2.359082551716001,30.25544709656954,-0.04037917014588507,2.9552283692581134,-4.563996694425878
2.3512065162898015,29.72914094513785,-0.0471323345896644,2.8926177577606835,-4.318862331404409
2.3422048601405807,29.21390563407194,-0.05288606706834661,2.8322190318605234,-4.0934170033404635
2.33224595123807,28.70935449023437,-0.05776847629288359,2.7739047885568904,-3.885555682419766
2.3214766749545603,28.21512286062957,-0.06189014907944262,2.7175577626075924,-3.693442867084775
2.310025351423942,27.73086638431947,-0.06534677903854126,2.6630697519490694,-3.515473033260415
2.2980042187682925,27.256259444548125,-0.0682213615797843,2.6103406899547665,-3.3502375945198177
2.2855115531808985,26.790993776879407,-0.07058603383570694,2.5592778396976485,-3.1964971845704144
2.2726334841130655,26.334777213175848,-0.07250362247354702,2.5097950903419166,-3.053158313170339
2.2594455525779713,25.887332544478653,-0.07402895013860852,2.4618123396269134,-2.9192536322756877
2.2460140523175736,25.448396488466123,-0.07520994164358864,2.4152549494011657,-2.7939251952556257
2.2323971868651946,25.01771874930317,-0.07608856338284407,2.3700532635205485,-2.6764102075911493
2.21864607005842,24.595061159450005,-0.076701623359099,2.326142179292429,-2.5660288594856584
2.204805593067031,24.180196894451115,-0.07708145432300312,2.283460765139641,-2.4621739044684405
2.190915177305332,23.77290975293628,-0.07725649858475911,2.241951918358553,-2.3643017073314065
2.177009429544997,23.372993495080387,-0.07725180986341067,2.201562057818041,-2.2719245326469806
2.1631187130126923,22.980251233625214,-0.07708948493997143,2.162240847239417,-2.184603884020553
2.149269646150054,22.5944948722923,-0.07678903575601645,2.1239409453485036,-2.1019447359604793
2.135485538954959,22.21554458703534,-0.07636771085614466,2.0866177797288517,-2.0235905262301257
2.121786775350561,21.843228346111072,-0.07584077363717044,2.050229341651892,-1.9492187979024609
2.108191148791958,21.47738146540442,-0.07522174368063797,2.0147359995331047,-1.8785373979554312
2.0947141572791397,21.117846195838528,-0.07452260646178797,1.9801003289768249,-1.8112811538304148
2.081369263065656,20.764471340043286,-0.07375399591025023,1.9462869576369906,-1.7472089614887154
2.0681681216083296,20.417111895754843,-0.07292535361559828,1.9132624233456792,-1.686101228592874
2.0551207836718928,20.075628723679998,-0.07204506790036735,1.8809950441526182,-1.6277576248731775
2.0422358739654403,19.739888237788826,-0.0711205955046634,1.8494547990826273,-1.5719950988080613
2.029520749229843,19.409762116201108,-0.0701585682241944,1.81861321855869,-1.5186461256877388
2.0169816383042627,19.085127031010444,-0.0691648865044724,1.7884432835597852,-1.4675571571366886
2.0046237663651896,18.765864395548164,-0.06814480170745564,1.7589193326877512,-1.4185872464005023
1.9924514652443304,18.451860127729475,-0.06710298852431022,1.7300169764088336,-1.3716068272854287
1.980468271484954,18.14300442824931,-0.06604360880209467,1.7017130178152158,-1.3264966276810723
1.9686770135838283,17.839191572507005,-0.06497036787707916,1.6739853793215076,-1.2831467011857962
1.9570798896826536,17.540319715238567,-0.06388656435819504,1.6468130347722623,-1.2414555625629056
1.9456785368145137,17.24629070692493,-0.06279513417669205,1.620175946490348,-1.2013294146437583
1.9344740926737956,16.957009921124893,-0.06169868960906611,1.594055006843396,-1.1626814559115128
1.9234672507591608,16.67238609195372,-0.0605995538868761,1.568431983947459,-1.12543125938792
1.9126583096359275,16.39233116099367,-0.05949979192682546,1.5432894711641554,-1.0895042146401999
1.9020472169744225,16.116760132981646,-0.05840123764545561,1.5186108400805665,-1.0548310257547469
1.891633608942633,15.845590939672249,-0.05730551826331458,1.4943801966905228,-1.021347259013663
1.8814227892226247,15.57874652678884,-0.05614803418122211,1.4705577242362247,-0.9869991462953076
1.8714188195766073,15.316152393097422,-0.055007184107861914,1.4471548723350824,-0.9541002789866974
1.8616186605667817,15.057734267881532,-0.05388347155686387,1.4241576300637124,-0.9225732568075795
1.852019191966487,14.803420349019653,-0.05277729066863476,1.401552579512738,-0.8923455937570702
1.842617231286316,14.553141199102352,-0.05168893911104153,1.3793268640128173,-0.8633493561129493
1.8334095501062828,14.306829647086179,-0.05061862955599492,1.3574681583891064,-0.8355208306724302
1.8243928884559506,14.064420695132785,-0.049566499892139314,1.3359646410930368,-0.8088002204144114
1.8155639674573067,13.825851430307829,-0.04853262231501461,1.3148049680731633,-0.7831313650530584
1.806919500421196,13.59106094083798,-0.04751701141955116,1.2939782482584654,-0.7584614842099038
1.7984562025669608,13.359990236646297,-0.04651963140528308,1.2734740205380137,-0.7347409411604233
1.7901707995162095,13.132582173906133,-0.04554040249195559,1.2532822321304569,-0.7119230253146904
1.7820600346950508,12.908781383372304,-0.04457920663203104,1.2333932182454401,-0.6899637517732148
1.7741206757644585,12.68853420226499,-0.04363589259676924,1.2137976829469335,-0.6688216764610326
1.7663495201853983,12.471788609497562,-0.04271028050390115,1.1944866811356012,-0.6484577254878264
1.7587434000137918,12.258494164053712,-0.041802165847283405,1.1754516015738565,-0.6288350375112869
1.7512991860101395,12.048601946332578,-0.04091132308218631,1.1566841508831862,-0.6099188179968459
1.7440137911394897,11.842064502292704,-0.040037508813919875,1.1381763384487442,-0.5916762043708274
1.7368841735293352,11.63883579023691,-0.03918046463224332,1.1199204621711667,-0.5740761411573337
1.7299073389457917,11.438871130090597,-0.038339919629350704,1.101909095010082,-0.5570892642729837
1.7230803428419907,11.242127155035575,-0.037515592635104046,1.084135072267935,-0.5406877937289931
1.7164002920268735,11.048561765370472,-0.03670719419953304,1.0665914795665368,-0.5248454340579524
1.7098643459974712,10.858134084476983,-0.035914428349380335,1.0492716414722336,-0.5095372818438166
1.7034697179731935,10.670804416778893,-0.03513699414259501,1.0321691107287783,-0.4947397397888095
1.697213675666569,10.486534207587908,-0.034374587042121284,1.0152776580599248,-0.48043043680076747
1.6910935418212527,10.305286004736935,-0.033626900128057476,0.9985912625064638,-0.4665881536295017
1.685112970001814,10.12724405753228,-0.032823897865707635,0.979652595323031,-0.5020346854351415
1.679272484496074,9.952601654811453,-0.03207038553140144,0.9608185460194935,-0.5387409861383017
1.6735633243874757,9.781340200570451,-0.03136472678635751,0.9420865011027618,-0.5766019778964431
1.6679770241251748,9.61344155989027,-0.030705276128097706,0.9234539508992767,-0.615514143072176
1.6625054149379372,9.448888040490004,-0.030090381507875852,0.904918486881438,-0.6553752937440048
1.6571406258053187,9.287662374728011,-0.029518386632328496,0.8864777993629198,-0.696084342738781
1.6518750840412946,9.129747701984684,-0.028987632967939384,0.8681296755629242,-0.7375410751790735
1.6467015155423808,8.97512755136021,-0.028496461464436754,0.8498719980423284,-0.7796459195177015
1.6416129447496075,8.8237858246198,-0.02804321401082136,0.8317027435177681,-0.8222997170023982
1.636602694371454,8.675706779317533,-0.027626234635330385,0.8136199820629858,-0.8654034884755317
1.6316643849130312,8.530875012027934,-0.027243870458254514,0.7956218767103359,-0.9088581973664037
1.6267919340554178,8.389275441611776,-0.026894472404117815,0.7777066834692097,-0.9525645076762681
1.621979555928092,8.25089329243913,-0.026576395677276522,0.759872751782408,-0.9964225356880574
1.6172217603169154,8.115714077488555,-0.026288000002465804,0.7421185254461998,-1.040331594053058
1.612513351850066,7.983723581236141,-0.026027649629193,0.7244425440250604,-1.0841899268144617
1.607849429204789,7.854907842242071,-0.0257937130961094,0.7068434447979646,-1.1278944338218075
1.603225384378769,7.729253135335078,-0.025584562748554772,0.6893199652797396,-1.1713403828696916
1.5986369020714601,7.60674595328674,-0.02539857399932048,0.6718709463684687,-1.2144211077575844
1.5940799592227868,7.487372987857519,-0.025234124319275138,0.6544953361784396,-1.2570276903139603
1.5895508247593806,7.371121110084957,-0.02508959194079263,0.6371921946278041,-1.29904862425604
1.5850460596019516,7.257977349670952,-0.024963354252862707,0.6199606988611478,-1.3403694585652595
1.580562516991588,7.147928873309468,-0.024853785862288154,0.6028001495997797,-1.3808724178472913
1.5760973431978451,7.04096296177806,-0.02475925629041155,0.585709978526979,-1.4204359969137355
1.5716479786774717,6.937066985595756,-0.024678127269291236,0.5686897568319557,-1.458934526570821
1.567212159759679,6.836228379025911,-0.02460874959507162,0.551739205055192,-1.4962377073300948
1.5627879209420796,6.738434612174991,-0.024549459489365662,0.534858204399475,-1.5322101074702694
1.5583735978909865,6.643673160906431,-0.024498574411669357,0.5180468096956375,-1.5667106215837854
1.5539678312508045,6.551931474252207,-0.024454388257021245,0.5013052642401836,-1.5995918854454778
1.54956957137999,6.463196938962739,-0.024415165863140322,0.48463401675390055,-1.630699642758588
1.545178084145714,6.377456840787698,-0.024379136739925308,0.46803374074657,-1.6598720590873919
1.5407929579262098,6.294698322025326,-0.02434448792123247,0.45150535661313584,-1.686938978109147
1.5364141119891426,6.214908334815341,-0.024309355823958566,0.43505005683112974,-1.711721115259874
1.532041806436585,6.138073589579577,-0.02427181698223715,0.41866933467735723,-1.734029183980411
1.5276766539327815,6.064180497934668,-0.024229877504468936,0.4023650169327518,-1.7536629501955938
1.5233196334604313,5.9932151093120964,-0.024181461077200022,0.3861393010958354,-1.7704102115316038
1.5189721063854515,5.925163040422838,-0.02412439531146434,0.3699947976737138,-1.7840456993134564
1.5146358351500906,5.86000939659791,-0.02405639619254632,0.35393457815883567,-1.794329903902768
1.5103130049611866,5.797738683924827,-0.02397505035083256,0.33796222931986564,-1.8010078278929238
1.5060062488961823,5.73833471098823,-0.02387779481588047,0.322081914420103,-1.8038076777365222
1.5017186769169388,5.681780478919233,-0.023761893842379072,0.3062984419020847,-1.802439513496925
1.4974539093644523,5.628058058376695,-0.02362441229636209,0.29061734190390404,-1.7965938899809109
1.4932161156124109,5.577148452047531,-0.023462184948541614,0.27504495064234685,-1.7859405425369945
1.4890100586936152,5.529031441298891,-0.0232717808158551,0.2595885021203344,-1.7701272002140027
1.4848411468955667,5.483685415799059,-0.02304946138468512,0.2442562256555583,-1.7487786519931445
1.4807154935739026,5.441087185333831,-0.022791131078248063,0.22905744618031154,-1.7214962545257504
1.4766399867932813,5.4012117738130065,-0.022492277595319764,0.21400268182884882,-1.687858160938881
1.4726223709373958,5.364032196786916,-0.022147898581188468,0.19910372957217212,-1.647420682090872
1.4686713432353358,5.329519225968411,-0.02175240921947569,0.1843737239667663,-1.5997213810440702
1.4647966693984318,5.2976411477046526,-0.02129952230168116,0.16982714563053725,-1.5442847706297562
1.46100932452571,5.268363527652042,-0.0207820873952277,0.15547974384291127,-1.4806318594135415
1.4573216685691006,5.241649001842372,-0.02019186767820969,0.141348320708982,-1.4082952989236641
1.453747670687441,5.2174571257689095,-0.019519219895784548,0.12745030232949187,-1.3268425333982747
1.4503032049467317,5.195744328790539,-0.018752621667653707,0.11380299743016355,-1.2359100929226339
1.4470064529230575,5.176464040849229,-0.01787795637317001,0.10042242413996605,-1.1352528006164018
1.4438784697663458,5.1595670792830575,-0.01687741203473788,0.08732159326193495,-1.0248116442165462
1.4409440037589247,5.145002395944328,-0.01572776582549609,0.07450822161283582,-0.9048021908824582
1.438232712973038,5.132718266121088,-0.014397687351024873,0.06198210975650459,-0.7758194589170258
1.4357810120654533,5.122663904772388,-0.012843433844359394,0.04973301634017928,-0.6389419046783128
1.4336349529679868,5.114791241515029,-0.011001667238602193,0.03774101985268353,-0.495794574978917
1.4318549649141894,5.10905603631932,-0.00877597780358914,0.02598348232185988,-0.3485046675418234
1.4305247202204283,5.105416291247316,-0.006004518793758418,0.01445812958928731,-0.19947088226079537
1.4297737960985697,5.1038213611003975,-0.0023390825602238115,0.003263316487603418,-0.05090642488096822
