x,y,v_x,v_y,omega
2.375,32.48,0.0,2.051282051282051,-3.591836734693878
2.374597911850913,32.11398286275609,-0.0044676461009670225,2.015575029205836,-3.4421790343750085
2.3734330587839976,31.754313493134816,-0.00847516575364909,1.9807512999194063,-3.3012374588169027
2.371584408819383,31.40083636588392,-0.012065389408733165,1.9467723362016651,-3.1683256527867565
2.3691236091200665,31.053402680576596,-0.01527682947256393,1.9136019449908155,-3.042822822467167
2.3661157196450415,30.71186995875629,-0.018144164694380897,1.8812060752348274,-2.9241664967076266
2.3626198650637,30.376101673815565,-0.020698663987191494,1.8495526463287462,-2.8118461932769385
2.358689815073989,30.045966910149524,-0.02296855812070778,1.8186113944050375,-2.705397863512641
2.3543745018657205,29.721340048577737,-0.02497936641560809,1.78835373417039,-2.604399008431484
2.3497184822846684,29.40210047541232,-0.02675418448497117,1.7587526343342579,-2.508464375660288
2.344762351245902,29.08813231287534,-0.028313938167989664,1.7297825049655038,-2.4172421601037515
2.339543112086377,28.779324168846465,-0.02967760804895213,1.7014190953553405,-2.3304106425893867
2.3340945088128193,28.475568904159495,-0.03086242832390956,1.6736394011665654,-2.2476752102229374
2.32844732457146,28.17676341587087,-0.03188406324675192,1.6464215798181367,-2.168765710174291
2.3226296501248154,27.882808435099566,-0.03275676393818876,1.6197448731963597,-2.0934340953554984
2.3166671256538645,27.593608338190528,-0.03349350796126441,1.5935895369040463,-2.02145232616121
2.3105831588003825,27.30907097008669,-0.03410612374409229,1.5679367753608204,-1.952610497290419
2.304399121514454,27.029107478910323,-0.0346054016551116,1.542768682154376,-1.8867151627982373
2.2981345279684326,26.753632160855947,-0.035001193300684214,1.5180681851164646,-1.8235878360537092
2.2918071955342065,26.482562314585994,-0.035302500412939614,1.493818995660795,-1.7630636443001046
2.28543159185079,26.215820466864663,-0.03553754051390618,1.4699793123539817,-1.7036683025372141
2.2790198787972926,25.953331803781047,-0.03570371563606835,1.446561388575078,-1.6467964920806406
2.2725839006046917,25.695021687406438,-0.03580715317060931,1.4235510155872377,-1.592312497263602
2.2661344453625567,25.440817982287,-0.03585346063088998,1.4009345968509412,-1.5400892827026489
2.2596813344441893,25.190650948291484,-0.03584777179541592,1.3786991142103866,-1.490007848321392
2.2532335040218023,24.944453139341412,-0.035794788453326294,1.356832096345958,-1.4419566388508944
2.246799079422537,24.702159307632233,-0.03569881820517574,1.3353215893115973,-1.3958310026509682
2.240385442999149,24.463706312984833,-0.03556380872135696,1.3141561289928632,-1.3515326952373603
2.2339992961207726,24.229033036995183,-0.03539337881616093,1.2933247153365792,-1.3089694233782176
2.227646715828242,23.998080301675405,-0.03519084665640247,1.2728167882165025,-1.2680544260471454
2.221333206644149,23.77079079230288,-0.03495925538907282,1.2526222048115478,-1.228706088896398
2.21506374797935,23.547108984215285,-0.03470139644203164,1.23273121838397,-1.1908475892480967
2.2088428375343336,23.326981073308808,-0.03441983072481542,1.2131344583546686,-1.1544065688989542
2.20267453105515,23.110354910014543,-0.03411690793277918,1.193822911581575,-1.1193148322992195
2.1965624787689033,22.897179936544255,-0.033794784136627565,1.174787904755005,-1.0855080679032332
2.190509958792753,22.68740712721151,-0.033455437820599766,1.156021087831023,-1.0529255907005
2.184519907782471,22.48098893164799,-0.03310068451586678,1.1375144184303416,-1.02151010412542
2.1785949490615684,22.277879220747003,-0.032732190160829386,1.1192601471361436,-0.9912074797133432
2.1727374184494854,22.078033235178093,-0.03235148330675554,1.1012508036295434,-0.9619665530226569
2.166949387987094,21.881407536326876,-0.03195996627537623,1.0834791836062339,-0.9337389344791449
2.1612326877395045,21.687959959524306,-0.03155892536450484,1.065938336422269,-0.9064788339215867
2.155588925839751,21.49764956943842,-0.031149540188310416,1.0486215534209353,-0.8801428977380202
2.1500195069220642,21.310436617509865,-0.030732892230433965,1.0315223568963228,-0.8546900575816051
2.144525649080073,21.126282501320468,-0.03030997268057616,1.0146344896525392,-0.8300813897447693
2.1391083994731646,20.94514972579089,-0.02988168961840696,0.9979519051205651,-0.8062799843513495
2.1337699815199525,20.767230066923446,-0.029434065417285653,0.9789331934065874,-0.8329201701275203
2.128509531816408,20.59272394123921,-0.029015375733205336,0.960023758640481,-0.8609957974280147
2.123321897432009,20.421611928011476,-0.028625006315676316,0.9412208327787969,-0.8903955324926478
2.1182020416974794,20.253875094597696,-0.028262279623537577,0.9225217607076781,-0.9210097638184508
2.1131450551013735,20.08949497638082,-0.027926460333193157,0.9039239972576033,-0.9527303659764518
2.1081461652383933,19.928453557212755,-0.027616760366587962,0.8854251046097331,-0.9854504650961541
2.1032007458933575,19.77073325028948,-0.02733234346714479,0.8670227500933531,-1.0190642050296255
2.098304325339919,19.61631687938716,-0.027072329348837285,0.8487147043768593,-1.053466513187016
2.093452593928868,19.465187660388036,-0.026835797440622314,0.8304988400578485,-1.0885528650075276
2.08864141103711,19.317329183023322,-0.026621790245574657,0.8123731306611967,-1.12421904599395
2.0838668114451977,19.17272539275863,-0.02642931633123118,0.7943356500575909,-1.1603609101943824
2.0791250112085518,19.03136057274475,-0.0262573529648351,0.7763845723188658,-1.196874133961112
2.074412413085325,18.893219325753282,-0.02610484840434605,0.7585181720307531,-1.2336539637532167
2.069725611582144,18.758286556012564,-0.025970723853220603,0.7407348250883474,-1.2705949566755779
2.0650613976777907,18.626547450854183,-0.025853875084040308,0.7230330100048004,-1.3075907123619095
2.0604167632842536,18.497987462074487,-0.025753173733038592,0.7054113097695672,-1.3445335947123134
2.0557889055044822,18.37259228690831,-0.02566746826441916,0.6878684142990455,-1.3813144418859653
2.051175230746682,18.250347848503715,-0.025595584600029503,0.6704031235297762,-1.4178222628259927
2.046573358756102,18.131240275776896,-0.025536326406412655,0.6530143512126585,-1.4539439184557148
2.0419811266270536,18.01525588251492,-0.02548847502746287,0.6357011294760027,-1.4895637855325703
2.037396592860369,17.90238114558085,-0.02545078904680629,0.6184626142358746,-1.524563400977918
2.0328180415347963,17.79260268206064,-0.02542200345955931,0.6012980915442677,-1.558821084317556
2.028243986664896,17.68590722517351,-0.025400828428222003,0.5842069849793641,-1.5922115356699644
2.0236731768230696,17.58228159874757,-0.025385947592069642,0.5671888641977526,-1.6246054065086335
2.0191046001093746,17.481712690039014,-0.02537601589342994,0.5502434547861997,-1.6558688402044959
2.0145374895599835,17.384187420646896,-0.025369656877582185,0.5333706495706634,-1.685862979129605
2.0099713290935997,17.28969271524487,-0.025365459415576205,0.5165705215629643,-1.714443434881928
2.0054058601050153,17.198215467816603,-0.02536197379091274,0.4998433387511011,-1.741459717985828
2.00084108882649,17.1097425050419,-0.02535770708159374,0.4831895809678049,-1.766754623251905
1.9962772945908953,17.02426054643547,-0.02535111775834599,0.466609959103641,-1.7901635668703175
1.9917150391459604,16.941756160789232,-0.025340609407597962,0.4501054369656757,-1.8115138713026424
1.9871551771866411,16.86221571841152,-0.02532452347372738,0.4336772561200296,-1.8306239941850246
1.9825988682931164,16.785625338592112,-0.025301130898769657,0.41732696409563413,-1.8473026978405502
1.9780475904855532,16.711970831650603,-0.02526862251859846,0.40105644636554766,-1.861348156736652
1.9735031556342235,16.641237634847446,-0.025225098051732495,0.3848679625584411,-1.8725470014783547
1.9689677269955403,16.57341074135283,-0.02516855348919158,0.3687641873817035,-1.880673299934568
1.9644438391821626,16.508474621380827,-0.025096866659450847,0.3527482567517063,-1.88548747918641
1.9599344209199145,16.446413134507853,-0.025007780698860407,0.33682381961463986,-1.88673519663999
1.9554428209979424,16.38720943211285,-0.024898885100829875,0.3209950958854023,-1.8841461755410465
1.9509728378842408,16.33084584881067,-0.02476759394029905,0.3052669408054625,-1.877433030236408
1.9465287535608884,16.277303781717713,-0.02461112076361606,0.28964491578298013,-1.8662901212352905
1.9421153722387603,16.22656355641403,-0.024426449482251353,0.2741353653690606,-1.8503925014149105
1.9377380647505429,16.17860427858908,-0.024210300386830714,0.25874549935256935,-1.829395045418756
1.9334028196098076,16.133403670637325,-0.02395909006578393,0.243483477889169,-1.8029318984339742
1.9291163019883373,16.090937892994162,-0.023668883506108428,0.22835849592372995,-1.770616443785809
1.9248859222446337,16.05118135090345,-0.023335335868376578,0.21338086063972367,-1.7320420790758875
1.9207199161988433,16.014106488776388,-0.02295362019596079,0.19856205188319553,-1.6867842187487356
1.916627440198141,15.97968357661274,-0.022518335367399164,0.18391474993513413,-1.6344041212807723
1.9126186853208027,15.947880496490146,-0.022023385491914765,0.16945280698255194,-1.574455389277453
1.908705017098538,15.918662542391434,-0.02146181697769237,0.15519112744758914,-1.506494329550662
1.904899150330594,15.891992254248112,-0.020825591555016912,0.14114540747822252,-1.4300958009734046
1.9012153736121298,15.867829317649832,-0.020105260872366387,0.12733166583600114,-1.344876710092086
1.8976698461910897,15.846130574504542,-0.019289488250299698,0.11376548022276817,-1.2505298626107797
1.8942810023851888,15.826850206222051,-0.0183643318152649,0.100460834027142,-1.146871216795095
1.891070118608405,15.809940166100926,-0.017312154593447943,0.08742850065204592,-1.033903177929128
1.888062129082452,15.795350941779038,-0.01610995125047387,0.07467399181338981,-0.9118943400598243
1.8852868254633541,15.783032700548588,-0.014726755628389092,0.062195355191620436,-0.7814701925202543
1.8827806581673816,15.772936769878974,-0.013119547660195527,0.04998165224854626,-0.6436975137674904
1.8805895185706274,15.765017165728075,-0.011226447859293595,0.03801394942809401,-0.5001268082085752
1.8787732884256303,15.759231386441027,-0.008953887085119516,0.026272487094674998,-0.3527377344526805
1.877414329809917,15.755538584350276,-0.006145653089472714,0.014758647246988877,-0.2037273721956497
1.8766390593075604,15.75388902072422,-0.0024684636033804955,0.003569837486957465,-0.05511863389823049
