x,y,v_x,v_y,omega
2.375,32.48,0.0,2.4615384615384617,-2.979591836734694
2.374521140793056,32.01689357710983,-0.005040623230989141,2.4132659899369773,-2.82955347910296
2.373142169191813,31.56281720805402,-0.009474867308411964,2.366485263282062,-2.690483257027627
2.370971815037785,31.11749470261801,-0.013370965891881893,2.3211200570969983,-2.5613202903545673
2.3681066339652714,30.680663849125956,-0.016788834871418204,2.2770994533456674,-2.441126288420754
2.364632481551274,30.25207545240749,-0.01978119053908188,2.2343573542171504,-2.3290693440950565
2.3606257907377,29.831492458730757,-0.022394502235382006,2.1928320529063363,-2.2244101272238614
2.3561546814211267,29.4186891576603,-0.024669806360123944,2.1524658530984984,-2.1264900846447747
2.351279926450541,29.01345045223693,-0.02664340385657033,2.113204730305364,-2.0347213244703144
2.3460557944387364,28.615571190069367,-0.02834745942558061,2.0749980293532024,-1.9485779190709156
2.34053078662073,28.22485554892176,-0.029810517606065706,2.0377981932532068,-1.8675884070378341
2.334748282357919,27.841116471215994,-0.031057948318262436,2.0015605194390633,-1.7913293116426716
2.3287471056906686,27.46417514257185,-0.032112332389635276,1.9662429399729782,-1.7194195236846863
2.3225620235052404,27.093860510105763,-0.032993795878028996,1.9318058228279222,-1.6515154214982364
2.3162241843397293,26.730008836718724,-0.03372030060103556,1.8982117917725296,-1.5873066213548384
2.3097615055564686,26.372463288040688,-0.03430789711750014,1.8654255627330905,-1.5265122683853984
2.3031990155133686,26.02107354907524,-0.034770945441445676,1.833413794797934,-1.4688777921410359
2.2965591564398222,25.675695467913425,-0.03512230796430672,1.8021449542738348,-1.4141720625420842
2.2898620529362375,25.336190724168425,-0.0353735183892186,1.7715891904103551,-1.362184891664134
2.28312575034707,25.002426520029054,-0.0355349299178089,1.7417182215830223,-1.312724834923147
2.2763664266865073,24.67427529204551,-0.03561584545653329,1.7125052308753348,-1.265617252028132
2.2695985813081223,24.35161444195027,-0.03562463221067576,1.6839247701271916,-1.2207025937961908
2.2628352030918824,24.034326084983626,-0.03556882269711527,1.655952671626978,-1.1778348857554413
2.2560879205631097,23.722296814340744,-0.03545520392154318,1.6285659667191246,-1.1368803835470584
2.2493671360493277,23.415417480487747,-0.035289896223528294,1.6017428106808485,-1.0977163786020767
2.2426821457148574,23.11358298421024,-0.03507842308668757,1.5754624132929425,-1.0602301355132175
2.236041247083254,22.816692082361214,-0.034825773035453915,1.5497049745915157,-1.0243179450307227
2.2294518354588595,22.524647205367547,-0.03453645458974896,1.5244516253418432,-0.9898842787533404
2.2229204904864064,22.23735428563688,-0.034214545120283796,1.4996843718230766,-0.9568410334187816
2.2164530539379736,21.954722596081016,-0.033863734336902186,1.4753860445544396,-0.9251068542700562
2.210058262845536,21.67666588647407,-0.03344985610981281,1.4515266881502666,-0.893083969269783
2.2037434686665365,21.403100885585005,-0.033021661563863984,1.4281049001556987,-0.8624618159524987
2.1975111801707174,21.133945881127758,-0.03258137523423274,1.4051056730784666,-0.8331630302286732
2.191363505044338,20.869121950040515,-0.0321309945171328,1.3825146541556406,-0.8051153265995799
2.1853021909122154,20.60855283751463,-0.031672312136787395,1.3603181092747636,-0.7782511116602971
2.179328662311042,20.352164842653323,-0.031206936296615233,1.338502889265327,-0.752507130945369
2.1734440540299,20.099886710327134,-0.03073630876803765,1.3170563983787644,-0.7278241459072005
2.1676492411885664,19.851649528825995,-0.030261721140737614,1.2959665647911005,-0.7041466381578604
2.161944866384127,19.607386632938045,-0.02978432943230508,1.2752218129767807,-0.6814225384061142
2.156331364200971,19.367033512112812,-0.029305167232501247,1.2548110378151767,-0.6596029777881623
2.150808983347826,19.130527723391587,-0.028825157537446806,1.2347235803029826,-0.6386420595269949
2.1453778066576734,18.89780880881095,-0.02834512341152574,1.2149492047563188,-0.6184966490651972
2.1400377691616366,18.668818217006486,-0.027865797599385796,1.195478077395955,-0.5991261810026746
2.1347886744259954,18.44349922876318,-0.027387831196840493,1.1763007462177737,-0.5804924813369045
2.1296302093219324,18.221796886276934,-0.026911801477503914,1.1574081220584989,-0.5625596036514066
2.124561957380235,18.00365792590786,-0.02643821896141708,1.1387914607738976,-0.5452936780302742
2.1195834108676554,17.789030714221283,-0.02596753380257958,1.1204423464532005,-0.5286627715946849
2.1146939817078274,17.57786518712628,-0.02550014156403077,1.1023526755994477,-0.5126367596629335
2.1098930113572734,17.370112791934297,-0.025036388441799975,1.0845146422108953,-0.497187206630123
2.10517977973601,17.165726432172423,-0.024576575992550025,1.0669207237035827,-0.48228725574845877
2.1005535133023905,16.964660414996715,-0.024120965413973666,1.0495636676196904,-0.4679115270652164
2.096013392352984,16.766870401061148,-0.023669781421880462,1.03243647907047,-0.4540360228438522
2.091558557620387,16.572313356707152,-0.02322321576335702,1.0155324088663236,-0.44063803985524946
2.0871881162347417,16.380947508347294,-0.022781430401328923,0.9988449422900928,-0.42769608798149356
2.0829041299105606,16.192932902857475,-0.022313162484786778,0.9802561681290624,-0.4569942049737697
2.078705769970344,16.008439743435662,-0.021880100043806597,0.9617770889426389,-0.48779344279571685
2.0745864220847783,15.827447460487882,-0.021481456646361394,0.9434048368234593,-0.5199860104568602
2.0705396265780265,15.649936018684055,-0.021116390793131365,0.9251366558484067,-0.5534661424952315
2.0665590883707363,15.475885896018653,-0.020784011388870774,0.9069698985242698,-0.5881298672517141
2.0626386859298,15.30527806351072,-0.020483382726246425,0.8889020226118577,-0.6238747783527325
2.0587724793145092,15.138093965471906,-0.020213529013657413,0.8709305883230057,-0.6605998084445206
2.054954717403053,14.9743155002719,-0.01997343847535618,0.8530532558875785,-0.6982050042132989
2.0511798443782263,14.813925001530997,-0.01976206704913259,0.8352677834903353,-0.7365913017093542
2.0474425055466914,14.656905219669273,-0.01957834170386936,0.8175720255804237,-0.7756603009688973
2.0437375525621655,14.503239303740994,-0.01942116339640319,0.7999639315593389,-0.8153140388952482
2.040060048119498,14.35291078348149,-0.019289409684304672,0.7824415448564742,-0.8554547593198338
2.0364052701836917,14.205903551491655,-0.019181937008394823,0.765003002404956,-0.8959846791130692
2.0327687158155725,14.062201845482424,-0.01909758265601883,0.7476465345343359,-0.9368057491547154
2.0291461046539903,13.921790230498068,-0.019035166413269213,0.7303704653009997,-0.9778194089019397
2.025533382113141,13.784653581032693,-0.018993491911459867,0.7131732132818901,-1.0189263332101344
2.0219267223528865,13.650777062948983,-0.01897134767016634,0.6960532928624416,-1.0600261699655393
2.018322531079798,13.520146115101774,-0.01896750783602994,0.6790093160555609,-1.1010172669787512
2.0147174482371177,13.392746430561452,-0.01898073261323502,0.6620399948951948,-1.1417963864630465
2.0111083506429437,13.268563937323126,-0.019009768378066498,0.645144144455613,-1.1822584052798426
2.0074923546377392,13.147584778377006,-0.019053347466191285,0.6283206865561657,-1.2222959989742297
2.0038668188048145,13.029795291003165,-0.01911018761722887,0.6115686542211125,-1.2617993074450415
2.000229346830789,12.915181985139501,-0.019178991056724673,0.5948871969753609,-1.300655579895219
1.996577790577279,12.803731520655209,-0.01925844319074717,0.5782755870698284,-1.3387487964882998
1.9929102534402805,12.69543068334281,-0.019347210882921666,0.5617332267449027,-1.3759592638952338
1.989225094080021,12.59026635941959,-0.019443940277704273,0.5452596566574032,-1.41216318165259
1.9855209306115749,12.488225508303628,-0.019547254126991702,0.5288545656158818,-1.447232175969879
1.9817966453553946,12.38929513339994,-0.019655748569644044,0.5125178017913717,-1.4810327973232316
1.9780513902572996,12.293462250598122,-0.01976798930503931,0.49624938559619763,-1.5134259778605934
1.9742845930995592,12.200713854143487,-0.01988250709222883,0.48004952445257515,-1.5442664443292884
1.9704959646387303,12.111036879498439,-0.019997792495442427,0.4639186297058342,-1.5734020819351011
1.9666855068221467,12.024418162758806,-0.02011228978438557,0.44785733597452343,-1.6006732442757745
1.9628535222536774,11.940844396130426,-0.020224389883712765,0.4318665232715955,-1.6259120042954243
1.9590006251009824,11.860302078903281,-0.020332422249917693,0.41594734227731045,-1.6489413411309517
1.9551277536613945,11.782777463283413,-0.020434645535218388,0.4001012431950023,-1.669574257842329
1.9512361848323043,11.708256494355826,-0.020529236876256025,0.38433000867435024,-1.6876128254457046
1.9473275507651822,11.636724743354357,-0.020614279619768715,0.3686357913411093,-1.702847149561958
1.943403858020967,11.568167333307215,-0.020687749266707006,0.3530211565235249,-1.715054257586793
1.9394675095896388,11.502568856010782,-0.020747497378851912,0.3374891308073316,-1.723996906920336
1.9355213301898389,11.439913279162187,-0.0207912331453582,0.32204325707262066,-1.7294223189564242
1.9315685953275747,11.380183842358552,-0.02081650224689418,0.3066876566498507,-1.7310608499393725
1.9276130646693903,11.32336294055738,-0.020820662576099668,0.29142709915194287,-1.7286246194892556
1.9236590203794617,11.26943199350443,-0.0208008562652546,0.2762670803528195,-1.7218061320906102
1.9197113111888862,11.218371299599017,-0.020753977319751718,0.26121390812522643,-1.7102769483415174
1.9157754031197944,11.170159872723918,-0.020676633933846455,0.24627479582317197,-1.6936864944863417
1.9118574379940712,11.12477526078331,-0.020565104231660473,0.2314579614464006,-1.6716611453829482
1.9079643011440792,11.082193345169074,-0.020415283662991557,0.21677272922976837,-1.6438037843562967
1.9041037001558294,11.042388121268019,-0.020222621476481545,0.20222962762344884,-1.6096941430886147
1.9002842570872729,11.005331461662994,-0.019982042403058543,0.18784047348207572,-1.5688903695409615
1.8965156175374265,10.970992866214704,-0.019687847595325297,0.17361842597362043,-1.5209324808096627
1.8928085813972215,10.939339207235577,-0.019333585459465584,0.15957798433299894,-1.4653486555563189
1.8891752624240066,10.910334484172203,-0.018911877416480816,0.14573489001830653,-1.401665736539552
1.8856292875002987,10.883939611489208,-0.01841417441202351,0.1321058750658445,-1.329425874805997
1.8821860524705278,10.86011227678961,-0.017830404848722566,0.11870817440358247,-1.2482119569906238
1.878863061271267,10.838806924332012,-0.01714844988033904,0.10555869357112582,-1.1576852437185163
1.8756803910413482,10.819974941406116,-0.01635334201354246,0.09267270564884875,-1.0576392440431768
1.8726613517486594,10.803565147127784,-0.01542601896212951,0.08006197096518192,-0.9480735629820158
1.8698334505609413,10.789524691946095,-0.014341361961216478,0.06773229410523365,-0.8292887755549245
1.867229839201285,10.777800440726196,-0.01306507340358774,0.0556808766305465,-0.7019955832990259
1.8648915405804773,10.768340771806994,-0.011548596289123634,0.04389458567684125,-0.5674150721989065
1.8628709935181478,10.761097373483945,-0.009720320156452064,0.03235171246051961,-0.4273207002908451
1.8612381184810185,10.756025861673017,-0.007467838129118191,0.021032622391354654,-0.2839457326042767
1.8600926798973088,10.753082144442427,-0.004589410120458898,0.009953874772760916,-0.13967686966329035
1.859603559366473,10.752201445550135,-0.0005592270462344163,-0.0006833601170698148,0.003433246036704196
