x,y,v_x,v_y,omega
2.375,32.48,0.0,3.948717948717949,-4.448979591836735
2.3736432511037595,31.701534961239975,-0.013567488962404265,3.83593243888225,-4.090949847152014
2.3698223454442937,30.945041527456805,-0.02464156763225317,3.7290018989494773,-3.7766277898477543
2.363991708374697,30.209395937681755,-0.03366480306371594,3.6274539988010166,-3.4991982885447466
2.3565257303130407,29.493563715962555,-0.04099497755284853,3.5308682183909856,-3.2530908667664753
2.347733949090019,28.796590049286483,-0.046922834677368824,3.4388684483697407,-3.0337230632172556
2.3378730879683065,28.117591511608683,-0.05168577653975283,3.3511169284082407,-2.837302373174021
2.327156658823862,27.455748896110734,-0.05547851490469169,3.2673092265712627,-2.6606721473950805
2.315762666298826,26.81030096938207,-0.05846141034566847,3.187170040715378,-2.5011907843587338
2.303839821010482,26.18053899956479,-0.06076704253777302,3.11044965745742,-2.3566363552789182
2.2915125750241594,25.56580193948875,-0.0625054173254545,3.03692094330295,-2.2251308111959345
2.2788852216835673,24.96547216806558,-0.06376811608046438,2.9663767709287474,-2.1050793783688713
2.2660452481505056,24.378971710512296,-0.06463161925015402,2.898627804604083,-1.9951218150576069
2.253066088087665,23.80575887160424,-0.06515998137824891,2.8335005844764947,-1.8940929912854398
2.240009390547406,23.245325227015158,-0.06540699402433958,2.7708358614143203,-1.800990840947101
2.226926896923304,22.697192926542606,-0.06541794221668552,2.7104871433111875,-1.714950177256238
2.213861999031169,22.160912270118075,-0.0652310367046628,2.6523194209341283,-1.635221196808602
2.2008510367179372,21.6360595233199,-0.06487858642765486,2.5962080470476203,-1.5611517523211045
2.187924381885137,21.12223494391121,-0.0643879619003481,2.542037747039286,-1.4921726695658977
2.175107346733774,20.619060994919405,-0.06378238961328238,2.48970174287876,-1.4277855348894033
2.162420946841418,20.126180723115645,-0.0630816093102742,2.439100975158833,-1.367552496839231
2.1498825439532694,19.643256284565084,-0.062302419571215586,2.390143410346807,-1.3110877168649941
2.137506388788122,19.169967601297692,-0.061459132080256516,2.3427434223270955,-1.258050175822805
2.1253040804821777,18.706011135171984,-0.06056395097918522,2.296821238930007,-1.2081375996159804
2.113284956328857,18.25109876673067,-0.0596272905540239,2.252302445483083,-1.1610813121638648
2.1014564230738033,17.80495676832812,-0.058658041996509785,2.2091175385424715,-1.116641859606723
2.0898242390760537,17.367324862083528,-0.057663797980989154,2.1672015239033993,-1.0746052782166593
2.0783927550586268,16.93795535431485,-0.056651042193277774,2.126493553783377,-1.0347799014223533
2.067165119873538,16.516612339062004,-0.055625309657610596,2.0869365987450954,-0.9969936198517894
2.056143456641187,16.103070964137604,-0.05459132266589886,2.048477150498914,-0.9610915232707259
2.0453290137476614,15.6971167538663,-0.05355310626936065,2.011064952214132,-0.92693386546234
2.0347222944600873,15.298544983306126,-0.05251408660637896,1.974652753387611,-0.8943943030172836
2.024323168321367,14.907160099299475,-0.0514771747808257,1.9391960866788989,-0.8633583671257228
2.0141309669885543,14.52277518418838,-0.05044483854729832,1.9046530644320563,-0.8337221341335639
2.0041445667654147,14.14521145845783,-0.04941916368409891,1.8709841928734416,-0.8053910661215911
1.9943624597344347,13.774297818949673,-0.048401906625699036,1.8381522022081285,-0.7782789973098264
1.9847828151047269,13.409870409624798,-0.04739453967138098,1.8061218910406374,-0.7523072458569572
1.9754035321500176,13.051772222148465,-0.04639828987571075,1.7748599837226793,-0.7274038337581148
1.966222285907304,12.699852723837665,-0.04541417255142528,1.7443349993853203,-0.7035028001579832
1.9572365666351907,12.353967510744283,-0.044443020169708185,1.714517131548508,-0.6805435955825502
1.948443713886077,12.013977983857444,-0.04348550732142885,1.6853781373198864,-0.6584705464267308
1.939840945923788,11.679751046595506,-0.0425421723014617,1.6568912352995055,-0.6372323805774961
1.9314253851143204,11.351158821925626,-0.04161343579321486,1.6290310113993047,-0.6167818063527777
1.923194079829084,11.02807838759892,-0.04069961705914695,1.6017733318677552,-0.5970751380359445
1.9151440233248676,10.710391528123928,-0.03980094798301889,1.575095262882159,-0.5780719622174701
1.9072721700006645,10.397984502222208,-0.03891758525901251,1.5489749961350343,-0.5597348399470026
1.8995754493767547,10.090747824618926,-0.03804962098008521,1.5233917798977794,-0.5420290403730795
1.8920507780945732,9.788576061119617,-0.03719709184172969,1.4983258550953038,-0.5249223021229952
1.8847034929886912,9.491368479897073,-0.03627575921709077,1.4737499571301216,-0.5060320230187079
1.87753808929155,9.199027971588396,-0.035378277754320474,1.4496551259566572,-0.48800477929635366
1.8705498463829744,8.911460038973765,-0.03450415133143405,1.4260242001896544,-0.4707909335415437
1.863734144793007,8.628573538826561,-0.033652864568242374,1.4028408012823803,-0.4543442445696998
1.8570864695314728,8.350280529826065,-0.032823888047097995,1.3800892887225948,-0.438621598168241
1.8506024124496663,8.076496129126511,-0.03201668277096679,1.3577547182729597,-0.42358276202996015
1.844277673776443,7.8071383769975995,-0.031230703961265965,1.3358228030161619,-0.40919016245402273
1.83810806295191,7.542128108997339,-0.030465404284065956,1.3142798769864399,-0.39540868065832907
1.8320894988653689,7.281388835179847,-0.0297202365813453,1.2931128611884677,-0.3822054667821614
1.8262180095898612,7.0248466258788085,-0.02899465617373126,1.272309231821932,-0.36954976986526433
1.8204897316932565,6.772430003642036,-0.028288122792315712,1.2518569905458092,-0.357412782272369
1.8149009091950747,6.524069840924405,-0.027600102189502748,1.231744636630519,-0.3457674971937655
1.8094478922288997,6.279699263175459,-0.02693006747224904,1.2119611408589461,-0.3345885779955302
1.8041271354621393,6.039253556984672,-0.026277500195353687,1.1924959210489288,-0.3238522383197326
1.7989351963178524,5.802670082971748,-0.02564189124751575,1.1733388190803329,-0.31353613194738955
1.793868733037241,5.569888193131774,-0.025022741558598488,1.1544800793193912,-0.30361925153684044
1.7889245026160983,5.340849152365671,-0.02441956265282811,1.1359103283416576,-0.2940818354390938
1.784099358643872,5.115496063945223,-0.023831877069433682,1.117620555862831,-0.28490528187086706
1.7793902490699849,4.89377379867955,-0.02325921866943674,1.0996020967938858,-0.2760720697966461
1.7747942139185546,4.6756289275658105,-0.022701132844866887,1.081846614343506,-0.267565685934137
1.7703083829696116,4.461009657721782,-0.02215717664456396,1.06434608409679,-0.2593705573538439
1.7659299734222667,4.249865771411635,-0.02162691882888568,1.0470927790046638,-0.2514719891939491
1.7616562875529747,4.042148567988825,-0.02110993986403587,1.0300792552234208,-0.243856107056868
1.757484710380038,3.8378108085916445,-0.020605831865330562,1.0132983387483812,-0.23650980369439445
1.7534127073437547,3.6368066634378238,-0.020114198497500953,0.9967431127898383,-0.22942068962475634
1.749442004098465,3.439260983055288,-0.019592833955396436,0.9787136910355207,-0.25627983287027034
1.7455718006136802,3.24531008124082,-0.019109200892452625,0.9607953271091421,-0.2847786590650359
1.7417946252951197,3.054932045132883,-0.018662552293151124,0.9429850339702125,-0.31481037260019706
1.7381031618335745,2.8681055478186295,-0.01825208232230162,0.9252799391723141,-0.34627060181646796
1.7344902603637533,2.6848098258370072,-0.01787693237590883,0.9076772806438925,-0.3790571685307744
1.7309489474658322,2.5050246574878337,-0.017536196603302627,0.8901744028478418,-0.41306986266012485
1.7274724351117645,2.3287303418721557,-0.017228926937374777,0.8727687533089457,-0.4482102210198545
1.7240541286513915,2.155907678591195,-0.016954137666356315,0.8554578795006798,-0.48438130937965196
1.7206876339270216,1.9865379480325913,-0.016710809577341074,0.8382394260853445,-0.521487506860286
1.7173667635994188,1.8206028921736532,-0.01649789369868744,0.8211111325040197,-0.5594342917465281
1.7140855427630015,1.6580846958317075,-0.016314314665485864,0.8040708309154351,-0.5981280277771511
1.710838213923509,1.498965968291607,-0.016158973729438968,0.7871164444855778,-0.6374757499507409
1.7076192414073912,1.3432297252397767,-0.016030751431738783,0.7702459860327373,-0.6773849488559658
1.7044233152687356,1.1908593709329267,-0.015928509954816046,0.7534575570357724,-0.7177633524963852
1.7012453547566386,1.041838680527679,-0.01585109516615338,0.7367493470167148,-0.7585187045322346
1.6980805114035564,0.896151782494762,-0.015797338364670243,0.7201196333124527,-0.799558537804187
1.6949241717933419,0.7537831410380917,-0.015766057737474207,0.7035667812542339,-0.8407899419360282
1.6917719600663945,0.6147175384348529,-0.015756059531999843,0.6870892447781517,-0.8821193237335555
1.6886197402186256,0.4789400572075664,-0.01576613894569094,0.6706855674947163,-0.9234521590047644
1.6854636182508176,0.3464360620329785,-0.015795080732388216,0.654354384251161,-0.9646927343203362
1.6822999442254363,0.21719118128522297,-0.015841659521424804,0.6380944232263869,-1.0057438771122986
1.6791253142890876,0.09119128810203136,-0.01590463984206309,0.6219045086055479,-1.0465066723710919
1.6759365727206532,-0.03157751914746143,-0.0159827758422815,0.6057835638893503,-1.0868801640456571
1.6727308140677262,-0.15112893712663578,-0.016074810686986556,0.5897306159023631,-1.1267610390760536
1.6695053854373851,-0.2674764786743893,-0.016179475616424892,0.5737447995751952,-1.1660432917919719
1.666257889011659,-0.38063349499066135,-0.016295488640835604,0.5578253635875111,-1.2046178661919775
1.6629861848633614,-0.49061319904669176,-0.016421552842141085,0.5419716769727886,-1.2423722733762343
1.6596883941543834,-0.5974286904241453,-0.01655635424763889,0.526183236801753,-1.2791901811391744
1.6563629028062063,-0.7010929818123088,-0.016698559234132042,0.5104596770798823,-1.3149509724382578
1.653008365741432,-0.8016190274218573,-0.016846811413609535,0.49480077901563274,-1.3495292691420233
1.6496237118057375,-0.8990197536074689,-0.016999727943335298,0.47920648284049266,-1.3827944171284814
1.6462081494920167,-0.9933080920305244,-0.017155895193874195,0.4636769013900527,-1.4146099284599087
1.6427611736028287,-1.0844970157382718,-0.017313863698004472,0.44821233568744834,-1.4448328760130484
1.6392825730038854,-1.172599578587736,-0.017472142291430865,0.432813292807201,-1.473313235611894
1.635772439640495,-1.2576289585023588,-0.01762919134247212,0.41748050633903316,-1.4998931704204164
1.6322311790110333,-1.3395985051180475,-0.017783414952143355,0.4022149598178781,-1.5244062521454587
1.6286595223170293,-1.4185217924536317,-0.017933151987897605,0.38701791353798337,-1.5466766135364074
1.6250585405389173,-1.4944126773299473,-0.018076665793223114,0.37189093522516803,-1.566518026838349
1.621429660720532,-1.5672853643625189,-0.018212132390627165,0.35683593510055056,-1.5837329033921217
1.617774684784838,-1.6371544784654404,-0.018337626966315166,0.34185520592869195,-1.5981112106730029
1.6140958112492352,-1.704035145928131,-0.01845110838971306,0.32695146869820607,-1.6094293050054282
1.6103956602624812,-1.7679430852604696,-0.018550401477826706,0.3121279246251907,-1.617448681402308
1.6066773024486838,-1.828894709141558,-0.018633176660145356,0.29738831418570755,-1.6219146470663866
1.6029442921197214,-1.8869072389452413,-0.018696926629478666,0.28273698385109863,-1.622554932954691
1.5992007055097757,-1.9419988334388023,-0.018738939469978327,0.2681789610844812,-1.6190782697610424
1.595451184800471,-1.9941887333376442,-0.0187562676230678,0.2537200379039558,-1.6111729726473871
1.591700988851708,-2.043497423412383,-0.018745691864563093,0.23936686284344474,-1.5985056058895317
1.5879560517464442,-2.0899468137282753,-0.01870367918807565,0.22512704031551398,-1.5807198384617152
1.584223050521175,-2.133560441260151,-0.018626333064616033,0.21100923500324253,-1.5574356605664588
1.5805094838264988,-2.1743636924284644,-0.018509333882145002,0.19702327667987912,-1.5282492181024263
1.576823763807914,-2.212384045829367,-0.01834786630370398,0.1831802573291169,-1.4927336498460446
1.5731753243222841,-2.247651332259011,-0.018136528552592797,0.16949260696728832,-1.4504414987688492
1.569574749888108,-2.280198005580594,-0.01786921578916911,0.155974126248572,-1.4009095390407684
1.5660339318060559,-2.3100594123650993,-0.01753896503135208,0.1426399415965125,-1.3436672452161043
1.5625662611801574,-2.337274039620624,-0.017137741227634846,0.12950633095876107,-1.278250664213554
1.5591868739542865,-2.3618837071650844,-0.01665613103107363,0.11659034448586383,-1.204224157083567
1.5559129719353213,-2.3839336531853874,-0.01608288915857838,0.10390911571717784,-1.1212133281881558
1.5527642583613437,-2.403472438003476,-0.015404246581198744,0.09147873246368005,-1.0289532788023605
1.5497635505224814,-2.420551564687891,-0.014602831807423944,0.07931253438047384,-0.9273565800036226
1.5469376710737857,-2.43522469604531,-0.01365596267953104,0.06741877919372556,-0.8166037878403627
1.544318783820755,-2.4475463620993523,-0.012532909850777782,0.055797881346714755,-0.6972533951498223
1.5419464490057717,-2.4575701569468222,-0.011190438299053976,0.044440067127988786,-0.5703539325915502
1.5398708847208007,-2.4653467225857426,-0.00956520455065761,0.033325589261228125,-0.4375153935691174
1.5381584533155306,-2.4709224926976745,-0.007559109502042291,0.02243211185806869,-0.30086527458533824
1.536902285992562,-2.4743417482575083,-0.005002563727642862,0.011760443740301763,-0.16279874702159625
1.5362516559506116,-2.4756610476118155,-0.0015037366918616325,0.0014325498027540108,-0.025484355871044417
