x,y,v_x,v_y,omega
2.375,32.48,0.0,3.4871794871794872,-6.408163265306122
2.3733130993259235,31.791626779432683,-0.016869006740766978,3.396552718493655,-5.948266998154715
2.3685290096332556,31.120953965674993,-0.03097189018590911,3.310175419083228,-5.538178502327439
2.3611571964038083,30.46716391655572,-0.042746242108564494,3.2277250721095365,-5.170941937252904
2.351627134272759,29.829500004169915,-0.052554379201930755,3.1489140517484993,-4.840749558935394
2.3403019304014228,29.207260151493223,-0.060697659511431225,3.073484475018412,-4.542725482883008
2.327489386234628,28.599791300450057,-0.06742778215651479,3.001204035413235,-4.272755116667095
2.3134510305637437,28.006484637797925,-0.07295577455232652,2.931862591108101,-4.027349556761425
2.2984095341647732,27.426771444597932,-0.07745918943737991,2.8652693408918224,-3.8035370091858747
2.2825548248276744,26.86011946414463,-0.08108790393360754,2.8012504636412126,-3.5987752767085395
2.2660491525915285,26.3060297050108,-0.08396881842785026,2.739647127697074,-3.4108807971585495
2.2490313023913133,25.764033612375574,-0.08620968357430502,2.6803137986551846,-3.2379707783432745
2.231620110836979,25.23369055347487,-0.08790223196903724,2.623116790351883,-3.07841576433752
2.2139174124303915,24.71458557284874,-0.0891247520968386,2.5679330159093725,-2.930800560937014
2.1960105159656402,24.206327380779037,-0.08994421255067074,2.514648904787675,-2.7938918976852842
2.1779742925270225,23.708546544431304,-0.09041802183550987,2.463159458689648,-2.666611547601449
2.1598729411892665,23.22089385611612,-0.09059549154204626,2.413367424462179,-2.5480138905024563
2.1417614863309584,22.74303885704551,-0.09051905704103495,2.3651825662439485,-2.4372671111973596
2.1236870507095134,22.27466849818854,-0.09022529917341998,2.3185210223257657,-2.3336373841902938
2.1056899405918803,21.815485922482946,-0.08974580200290867,2.273304734730155,-2.2364755224932407
2.0878045728877197,21.365209354855743,-0.08910787503869518,2.229460941541853,-2.145205667657592
2.0700602690802765,20.923571088336743,-0.08833516303573843,2.186921723648173,-2.0593156771597063
2.0524819365525833,20.490316556085304,-0.08744816224119224,2.145623598866206,-1.978348928350074
2.0350906544733993,20.06520348044776,-0.08646465855064721,2.1055071575092548,-1.9018973087563336
2.017904178589202,19.648001091263986,-0.08540010029132873,2.066516734328474,-1.8295952032736469
2.000937376947543,19.238489406581493,-0.08426791612525923,2.028600112496457,-1.7611143217348153
1.9842026066592608,18.83645856974109,-0.08307978675756197,1.991708255907574,-1.6961592371223109
1.9677100402174619,18.441708237492456,-0.08184587766042825,1.9557950665787844,-1.6344635265114646
1.9514679485697868,18.054047014398286,-0.08057503881632223,1.9208171643628764,-1.5757864246969062
1.9354829470388575,17.673291929307176,-0.07927497649297081,1.886733686548254,-1.5199099151248447
1.9197602092649169,17.299267950129636,-0.07795240124643696,1.8535061052271358,-1.4666361948435194
1.9043036535728444,16.931807533549254,-0.07661315567428689,1.821098060576699,-1.4157854601797795
1.8891161055171901,16.5707502066493,-0.0752623248822572,1.7894752084228263,-1.3671939681401264
1.8741994398125852,16.215942177742036,-0.07390433216379065,1.7586050806498104,-1.32071233543151
1.859554704395675,15.86723597395839,-0.07254302200531076,1.7284569571866482,-1.2762040427518317
1.8451822289744073,15.524490103395177,-0.07118173220736725,1.699001748445499,-1.2335441168152919
1.8310817200895082,15.187568739829238,-0.06982335664162369,1.6702118872138902,-1.1926179666179293
1.8172523444316486,14.856341428196636,-0.0684703999369712,1.642061229112131,-1.153320353847683
1.8036928019182112,14.530682809203075,-0.06712502519740249,1.6145249608234764,-1.1155544802102506
1.7904013898291127,14.210472361581843,-0.06578909569358193,1.5875795153888372,-1.0792311768662692
1.7773760591263246,13.895594160649768,-0.0644642113343003,1.5612024939318963,-1.0442681832302543
1.7646144639319852,13.585936651932002,-0.06315174060909239,1.5353725932457585,-1.0105895041277084
1.7521140050114936,13.281392438734436,-0.06185284859582475,1.5100695387299148,-0.9781248357937191
1.7398718679974892,12.981858082639711,-0.06056852154421938,1.485274022217325,-0.9468090524654765
1.7278981546710719,12.687236409303527,-0.059168611719952885,1.4609427111445064,-0.912884835384296
1.7162014146261404,12.397433680842568,-0.057798788729361096,1.4370845734650755,-0.880503618994399
1.704775644216126,12.112356947887278,-0.056458915370785706,1.4136827560878107,-0.8495769961358317
1.6936148757644056,11.831916554801804,-0.05514876914641566,1.390721174766936,-0.8200225862656391
1.6827131933079942,11.556025990330198,-0.053868055417701094,1.36818446994911,-0.7917635592959308
1.6720647458775197,11.284601746771113,-0.052616418887042125,1.3460579656417293,-0.7647282020750636
1.6616637586272767,11.017563187100752,-0.05139345361538913,1.3243276310618755,-0.7388495232522868
1.651504542089903,10.754832419509853,-0.05019871175834716,1.3029800448471005,-0.7140648927348134
1.6415814997960703,10.496334178862256,-0.049031711179979946,1.2820023616288803,-0.6903157123586908
1.6318891344697481,10.241995714620646,-0.04789194208324227,1.2613822807872093,-0.6675471147583376
1.6224220529835844,9.991746684819855,-0.046778872778394036,1.241108017220707,-0.6457076877404664
1.6131749702361962,9.745519055699692,-0.04569195469548937,1.2211682739809322,-0.624749221751732
1.60414271209327,9.503247006638343,-0.044630626733770246,1.201552216632539,-0.6046264782805035
1.5953202175169678,9.26486684005383,-0.04359431902925301,1.1822494492126006,-0.585296977255704
1.5867025399928683,9.03031689596527,-0.04258245621174289,1.1632499916730115,-0.5667208017031888
1.5782848483503193,8.799537470928023,-0.04159446021374619,1.1445442586994723,-0.5488604180956962
1.5700624270603347,8.57247074107715,-0.04062975268609936,1.126123039809259,-0.5316805109886278
1.5620306760848797,8.349060689032438,-0.0396877570684509,1.107977480637886,-0.5151478306731269
1.5541851103423459,8.129253034435454,-0.03876790035688782,1.0900990653319578,-0.4992310527021027
1.5465213588460687,7.912995167905052,-0.03786961460588422,1.072479599972048,-0.48390064825577517
1.5390351635657533,7.700236088212307,-0.03699233819726964,1.0551111969554041,-0.46912876441249607
1.5317223780555276,7.490926342489395,-0.036135516904987695,1.037986260273717,-0.4548891134794103
1.5245789658869318,7.285017969299407,-0.035298604780970584,1.0210974716261598,-0.4411568706171032
1.5176009989203916,7.082464444405549,-0.03448106488442992,1.004437777312437,-0.4279085790637946
1.5107846554445281,6.883220629088832,-0.03368236987420714,0.9880003758547441,-0.41512206232878346
1.504133236157664,6.68742253428308,-0.032831822994430895,0.9699805722027822,-0.438772711453844
1.497647316220952,6.4952172182633205,-0.03202737637269043,0.952072587994814,-0.4641225507649876
1.4913177879853747,6.3065826192026755,-0.031267905983081094,0.934273402611632,-0.49106003029329137
1.485135772986454,6.121497267463496,-0.030552244006127084,0.9165801147801647,-0.5194761839294402
1.4790926301741805,5.939940262167909,-0.02987918411660733,0.8989899381756957,-0.5492643829217393
1.4731799631343443,5.761891248607196,-0.02924748628175424,0.8815001974314267,-0.5803200952414552
1.4673896263957271,5.587330396409705,-0.028655881104419818,0.8641083245434685,-0.612540649803795
1.4617137309110313,5.416238378389153,-0.028103073742538925,0.8468118556620389,-0.6458250045445858
1.4561446487934648,5.248596349996713,-0.027587747433126166,0.8296084282623424,-0.6800735173570556
1.4506750173855425,5.084385929301341,-0.027108566646095615,0.8124957786913718,-0.7151877188899288
1.4452977427318963,4.923589177423231,-0.02666417989036719,0.7954717400897074,-0.7510700861971583
1.4400060025236598,4.766188579345226,-0.026253222191995346,0.7785342406903604,-0.7876238162107141
1.4347932485783204,4.612167025026206,-0.025874317261400735,0.7616813024998332,-0.8247525979806107
1.4296532089157625,4.461507790739233,-0.02552607936417903,0.744911040369914,-0.8623603825902976
1.4245798894886068,4.314194520555009,-0.025207114907378227,0.7282216614723134,-0.9003511496101387
1.4195675756228139,4.17021120788856,-0.02491602375055001,0.7116114651921764,-0.9386286688963289
1.4146108332229324,4.029542177023263,-0.02465140024826547,0.6950788434607904,-0.9770962564764917
1.4097045097952947,3.892172064521926,-0.024411834028111055,0.6786222815525644,-1.0156565231855732
1.404843735341942,3.7580858004290043,-0.024195910505416814,0.6622403593766417,-1.0542111146255448
1.4000239231780922,3.627268589161396,-0.024002211133081763,0.6459317532994268,-1.0926604409188754
1.3952407707266024,3.4997058899773563,-0.0238293133818147,0.6296952385409716,-1.130903394607648
1.3904902603441347,3.3753833969036897,-0.023675790442862586,0.6135296921956989,-1.1688370549164775
1.3857686602356676,3.254287017990471,-0.02354021064180911,0.5974340969364812,-1.2063563764469205
1.3810725255166623,3.1364028537497397,-0.023421136548243796,0.5814075454708235,-1.2433538602028331
1.3763986994856405,3.0217171746197593,-0.023317123761972473,0.5654492458289815,-1.2797192046592358
1.3717443151742532,2.910216397279207,-0.023226719351901685,0.5495585275765248,-1.3153389343811646
1.3671067972471918,2.8018870596157193,-0.02314845991871279,0.5337348490583481,-1.3500960034736627
1.3624838643306336,2.6967157941301103,-0.023080869246867634,0.5179778057977251,-1.3838693709003442
1.3578735318554203,2.5946892995310407,-0.023022455505266153,0.5022871401929853,-1.4165335444479055
1.3532741155100034,2.4957943102441327,-0.02297170794890319,0.4866627526760896,-1.447958089841613
1.3486842354085105,2.4000175635243117,-0.022927093066026128,0.4711047145221334,-1.478007101238982
1.3441028210912644,2.3073457638194057,-0.022887050106433642,0.45561328252693706,-1.5065386290565836
1.3395291174889703,2.217765543986541,-0.022849985916508275,0.4401889158017098,-1.5334040608351316
1.3349626919978062,2.13126342290942,-0.02281426899513266,0.424832294969509,-1.5584474506463595
1.3304034428311389,2.0478257590036755,-0.022778222671540043,0.40954434408793444,-1.5815047924297687
1.3258516088348788,1.967438699028282,-0.022740117291059143,0.3943262556659947,-1.6024032326741178
1.3213077809780542,1.890088121542714,-0.022698161277187406,0.37917951918967063,-1.6209602181092762
1.3167729157585495,1.8157595742618504,-0.022650490917859766,0.3641059536189637,-1.6369825746675615
1.3122483507968317,1.7444382044633038,-0.022595158699318864,0.34910774436649955,-1.650265515082035
1.3077358229287597,1.6761086814956982,-0.022530119981401555,0.3341874853095383,-1.6605915743615178
1.3032374891534697,1.6107551103231401,-0.022453217771497433,0.3193482264160546,-1.6677294753785812
1.2987559508455084,1.5483609349245917,-0.02236216530811452,0.30459352756942265,-1.6714329314488081
1.2942942817042389,1.4889088302540223,-0.022254526104580032,0.2899275191362885,-1.6714393998222474
1.2898560599915698,1.4323805813694896,-0.022127691022110162,0.27535496970905105,-1.6674688105456579
1.2854454057065108,1.3787569482763153,-0.021978851828479976,0.2608813612226857,-1.6592223107747082
1.2810670234700217,1.3280175150314335,-0.021804970536411932,0.2465129712261176,-1.646381087622788
1.2767262520587435,1.2801405217712443,-0.02160274357637019,0.23225696137577584,-1.6286053663677642
1.2724291217515409,1.2351026786281665,-0.021368559495655994,0.21812147005498775,-1.6055337301287755
1.2681824209705754,1.1928789611054889,-0.02109844831399756,0.20411570517177735,-1.576782978911691
1.2639937741610996,1.1534423875579236,-0.020788019780759885,0.19025003030386958,-1.5419488500681218
1.2598717335465255,1.1167637812326703,-0.020432386364980386,0.17653603294866238,-1.5006080724687867
1.2558258884572928,1.0828115222361419,-0.020026064527346673,0.16298655701662038,-1.4523224415711724
1.2518669975931407,1.0515512993340366,-0.01956284411417361,0.14961567200442308,-1.3966459054267109
1.2480071522154008,1.0229458783807885,-0.01903560966322518,0.13643853752806517,-1.3331360681987956
1.2442599824948832,0.9969549142884695,-0.018436087541949576,0.12347110339512864,-1.2613720664591737
1.240640926060195,0.9735348476704537,-0.017754476804933878,0.11072956278504499,-1.1809814398439826
1.2371675887968034,0.952638946006438,-0.016978895828981978,0.0982294538551093,-1.0916792924854404
1.2338602456463816,0.9342175709304463,-0.016094535675236596,0.08598429690479609,-0.9933233903507009
1.2307425574443949,0.9182187718976813,-0.015082346344631977,0.074003693422863,-0.8859880574006179
1.2278426249339929,0.9045893056071854,-0.013916978759386887,0.06229096948208511,-0.7700561863329953
1.225194574472688,0.8932761243050962,-0.012563525853661724,0.05084084353879151,-0.6463196788680239
1.2228410001627843,0.884228197655009,-0.010972217245374463,0.039638422962067724,-0.5160613096083388
1.2208368711158355,0.8773981205083743,-0.009069073224113927,0.02866234850427587,-0.3810662567690485
1.2192563539107437,0.8727420835368385,-0.006736098826803606,0.01789802121108125,-0.2434912178269945
1.2182075486426034,0.8702143658323784,-0.0037519538546002336,0.007379155833505294,-0.10552754371125658
