x,y,v_x,v_y,omega
2.375,32.48,0.0,3.846153846153846,-8.0
2.372420429904103,31.68415278788528,-0.024567334246640395,3.7333434120815334,-7.341553351335203
2.3651611411595757,30.911347137099924,-0.04456874903457181,3.6267104049218792,-6.76552004398323
2.3540945067250276,30.160343308681075,-0.06082776938969495,3.525707008590963,-6.258694898955225
2.3399369267959798,29.430009233958394,-0.07400632517266516,3.4298556078155165,-5.81036623094094
2.3232790792460727,28.71930706713999,-0.08463984196930455,3.3387364571216795,-5.411779082158798
2.3046096891500176,28.02728203570923,-0.09316387323122284,3.2519781279331674,-5.055728019352161
2.284334356026748,27.353053083837302,-0.09993453746658408,3.169249985132823,-4.736244778633143
2.262790572528485,26.695804937238698,-0.10524435299306073,3.090256172949088,-4.448356288383847
2.2402597813218765,26.054781311142072,-0.10933461087940048,3.0147307422568677,-4.187895540307689
2.216977110013559,25.429279049471024,-0.11240511586647993,2.942433654610271,-3.951352569505324
2.1931392725960834,24.818643031438874,-0.11462190715709782,2.8731474695054477,-3.735756167680423
2.168911013700954,24.2222617171607,-0.11612341565365707,2.806674571239107,-3.538579350170102
2.1444303878576987,23.639563230324967,-0.11702540190115605,2.7428348271964165,-3.357663328197468
2.119813102303199,23.070011895994774,-0.11742493671312909,2.6814635949959063,-3.1911560026192
2.0951561032709596,22.513105166982484,-0.11740362549867263,2.622410014644934,-3.037461929899437
2.07054054826636,21.968370884191785,-0.11703023168798984,2.5655355357426757,-2.8952014081857884
2.0460342778177525,21.435364825718686,-0.11636282020351334,2.5107126401915787,-2.7631768561252805
2.0216938775482363,20.913668506974613,-0.11545051569663856,2.457823728799607,-2.6403450553092878
1.9975664036337064,20.402887200094995,-0.11433495015602745,2.4067601462443844,-2.525794131766367
1.9736908306761565,19.90264814576118,-0.11305145896349617,2.3574213236014714,-2.418724386420621
1.9500992698820858,19.412598934540966,-0.11163007240860505,2.3097140213529306,-2.318432266185538
1.9268179965533143,18.93240603813164,-0.11009634024636088,2.263551658735913,-2.224296909094442
1.903868318782282,18.46175347361163,-0.10847201947775675,2.218853717645135,-2.135768808025525
1.881267313519932,18.0003415860827,-0.10677564968748247,2.175545211201802,-2.052360225228991
1.859028451560855,17.547885936998792,-0.10502303563705913,2.1335562086449538,-1.9736370593310226
1.837162129241527,17.104116287097234,-0.1032276531184476,2.0928214094651056,-1.899211921813096
1.8156761215966184,16.66877566422548,-0.10140099111877733,2.0532797607421034,-1.8287382242287307
1.7945759692268712,16.241619507533613,-0.09955284097405219,2.014874112513751,-1.7619051129900754
1.7738653090905319,15.822414880513712,-0.09769154127679874,1.9775509067234096,-1.6984331172615954
1.753546157752202,15.410939746238213,-0.09582418575491275,1.941259895900403,-1.6380703987559773
1.733619154239286,15.00698229890369,-0.09395680008238372,1.9059538882379115,-1.5805895111448023
1.7140837685119426,14.61034034644128,-0.09209449255898419,1.8715885161659915,-1.5257845922407878
1.6949384806034966,14.220820739525827,-0.09024158275954637,1.838122025885925,-1.4734689247622939
1.6761809346991248,13.838238842814857,-0.08840171156780684,1.8055150856471365,-1.4234728118942452
1.6578080717626613,13.46241804468599,-0.08657793544612852,1.7737306108182505,-1.3756417224413746
1.6398162437714103,13.093189302126223,-0.08477280732769035,1.7427336040366601,-1.3298346674715131
1.6222013121579806,12.730390717765548,-0.08298844613354668,1.712491008922139,-1.2859227762420589
1.6049587326711152,12.373867146347212,-0.08122659659850283,1.6829715760144022,-1.2437880441114308
1.5880836285416362,12.023469828192358,-0.07948868082510795,1.6541457397461263,-1.2033222292363548
1.5715708535647175,11.679056047452526,-0.0777758427645929,1.625985505395121,-1.16442587828846
1.5554150464772913,11.340488813153176,-0.07608898663946702,1.598464345074896,-1.1270074643061423
1.5396106778124674,11.007636561218277,-0.07442881016837945,1.571557101924145,-1.0909826222245902
1.5241520902457077,10.680372875833054,-0.07279583332456864,1.545239901744631,-1.0562734696755902
1.5090335333053224,10.358576228651263,-0.07119042325053127,1.5194900714153046,-1.0228080023825055
1.49424919319872,10.042129734487297,-0.06961281585996767,1.4942860634796067,-0.9905195549466888
1.4798132527772117,9.730924078376173,-0.0678723310115421,1.4695773280549058,-0.9538563886787474
1.4657380732512508,9.424853929402474,-0.06617699780713089,1.445376471694611,-0.9189277411421022
1.4520142611992513,9.123814599558944,-0.06452597411667439,1.4216647649104444,-0.885630491590116
1.4386326057586798,8.827705240530875,-0.06291836341257702,1.3984243686902291,-0.853868817318354
1.425584088735859,8.536428662279246,-0.06135322728095467,1.3756382813252992,-0.8235535952538171
1.412859892278357,8.249891162392544,-0.059829596123827836,1.353290289024226,-0.7946018591513494
1.4004514044641403,7.968002365445091,-0.05834647829728198,1.331364919999124,-0.7669363066352197
1.3883502231137352,7.690675071662437,-0.056902867897053344,1.3098474017404431,-0.7404848509812283
1.3765481580902539,7.417825114251311,-0.05549775137419807,1.2887236212226485,-0.7151802131103019
1.3650372323163933,7.1493712248032075,-0.054130113138759685,1.267980087806905,-0.6909595497694176
1.3538096817065766,6.885234906227527,-0.052798940288067364,1.2476038986281481,-0.6677641143192163
1.3428579541856427,6.625340312712904,-0.051503226577970525,1.2275827062730176,-0.6455389469379026
1.3321747079423065,6.369614136254146,-0.05024197573951571,1.2079046885722913,-0.6242325913948986
1.321752809045514,6.11798549931763,-0.0490142042299377,1.1885585203469227,-0.6037968358511753
1.3115853285343892,5.870385853250326,-0.04781894349505853,1.169533346960716,-0.5841864754113653
1.3016655390773577,5.626748882067197,-0.046655241810003974,1.1508187595452606,-0.5653590943901072
1.2919869112828923,5.387010411278663,-0.045522165756332944,1.1324047717741124,-0.547274866465402
1.2825431097329432,5.15110832144466,-0.044418801386040256,1.1142817980735173,-0.529896371078417
1.2733279888002003,4.918982466164479,-0.04334425511627389,1.0964406331662848,-0.5131884246050282
1.2643355883017406,4.690574594232359,-0.042297654392865175,1.0788724328538914,-0.49711792497195295
1.2555601290341325,4.465828275707995,-0.04127814815578354,1.0615686959495783,-0.4816537085217824
1.2469960082285692,4.244688831668661,-0.04028490713529521,1.044521247282191,-0.4667664180484683
1.2386377949589602,4.027103267425858,-0.03931712400383808,1.0277222216968742,-0.45242838102952276
1.2304802255309957,3.8130202090043106,-0.038374013405348045,1.0111640489845273,-0.43861349717479975
1.2225181988759375,3.6023898426948264,-0.0374548118809195,0.9948394396772133,-0.42529713449551537
1.2147547147360598,3.395303502221225,-0.03648313230839136,0.9774114219761216,-0.4392305083071986
1.2071905673211027,3.191864767882251,-0.03555636688167468,0.960100333633167,-0.45519193284391807
1.19981640487724,2.99204943054675,-0.034673751631305365,0.9429028790858816,-0.473064431312028
1.192623043301529,2.795833959338033,-0.03383445385165674,0.925815894330473,-0.49273436373681384
1.1856014798230192,2.6031954745993566,-0.03303757927700854,0.9088363412759678,-0.514091166210908
1.1787429052413791,2.414111721998193,-0.03228217864337313,0.8919613025446252,-0.5370270992362718
1.172038714847274,2.2285610476776867,-0.031567253681437646,0.8751879766982906,-0.5614370041145286
1.1654805181395973,2.0465223743676972,-0.030891762582148832,0.8585136738730463,-0.5872180663763891
1.1590601474463185,1.8679751783712781,-0.030254624972886897,0.8419358118071264,-0.6142695852697525
1.1527696655480895,1.6928994673453204,-0.02965472643881865,0.8254519122496192,-0.6424927483479562
1.146601372396823,1.5212757587964099,-0.02909092262086224,0.809059597740016,-0.6717904102146729
1.1405478110151677,1.353085059214834,-0.028562042918711655,0.7927565887511964,-0.7020668744901385
1.1346017726571267,1.1883088437709013,-0.02806689382453512,0.7765407011910115,-0.7332276780646776
1.1287563013049737,1.0269290364985189,-0.02760426191025451,0.7604098442602557,-0.7651793766997561
1.1230046975730823,0.8689279908910983,-0.027172916488710744,0.7443620186675458,-0.7978293310238299
1.1173405220852852,0.7142884708345356,-0.026771611966500342,0.7283953152044854,-0.8310854919498043
1.1117575983889028,0.5629936318008752,-0.026399089903808553,0.7125079136875246,-0.8648561845126217
1.1062500154656179,0.41502700222469,-0.026054080794142443,0.6966980822761732,-0.8990498890889228
1.1008121298969147,0.27037246498171186,-0.025735305574459192,0.6809641771807371,-0.9335750189153798
1.0954385677398508,0.12901423888619235,-0.025441476873767025,0.6653046427765829,-0.9683396927675872
1.090124226167494,-0.009063139880694848,-0.025171300005822968,0.6497180121461501,-1.003251501596653
1.0848642749274338,-0.14387483650387622,-0.02492347370903614,0.6342029080746037,-1.0382172678451158
1.0796541576714067,-0.27543573652738473,-0.02469669063407878,0.6187580445302219,-1.0731427960767324
1.0744895932092458,-0.40376046521303266,-0.024489637576978304,0.603382228666455,-1.1079326134551464
1.0693665767411422,-0.5288634073788714,-0.02430099545257858,0.5880743633891532,-1.142489698493616
1.0642813811236025,-0.6507587278414206,-0.024129439000179727,0.5728334505398914,-1.176715196370933
1.059230558226549,-0.7694603925973595,-0.023973636209851913,0.5576585947547334,-1.210508118966625
1.0542109404418105,-0.8849821908936804,-0.02383224745432405,0.542549008067349,-1.2437650276108192
1.0492196424068272,-0.9973377583510654,-0.02370392430742126,0.5275040153362932,-1.276379696370388
1.0442540630118486,-1.1065406013231893,-0.023587308025708083,0.5125230605886881,-1.3082427535032313
1.039311887764301,-1.212604122695609,-0.023481027665221976,0.49760571438671986,-1.3392412985075821
1.0343910915904655,-1.3155416493518644,-0.02338369779987902,0.4827516823395451,-1.3692584919748463
1.0294899421622457,-1.4153664615621864,-0.02329391580221521,0.46796081490163166,-1.398173115226165
1.0246070038457613,-1.5120918245819084,-0.02321025864049252,0.4532331186195272,-1.425859096480345
1.0197411423789429,-1.6057310227833028,-0.023131279138731628,0.43856876901281944,-1.4521850000731733
1.0148915303974078,-1.6962973966863473,-0.023055501637792658,0.42396812530187566,-1.477013475039395
1.0100576539419053,-1.7838043833016712,-0.022981416986040597,0.40943174722499726,-1.5002006591997363
1.005239320096766,-1.8682655602534979,-0.02290747677719003,0.39496041422096584,-1.5215955347972185
1.0004366659274242,-1.9496946942120914,-0.022832086740351625,0.3805551472894179,-1.5410392317448116
0.9956501689065493,-2.028105794234939,-0.022753599172741223,0.36621723388053695,-1.5583642747457433
0.9908806590431218,-2.103513170694036,-0.022670304288473164,0.35194825620607095,-1.5733937710231685
0.9861293329574827,-2.1759315005530553,-0.022580420336660648,0.337750123403606,-1.5859405362837031
0.9813977701787742,-2.245375899852725,-0.022482082317706834,0.3236251080218323,-1.5958061580355813
0.9766879519802567,-2.311862004363668,-0.022373329096745612,0.30957588732046043,-1.602779997768688
0.9720022831141704,-2.375406059470272,-0.022252088675505047,0.29560558988527935,-1.6066381371856608
0.9673436168630585,-2.436025020451602,-0.022116161335083626,0.28171784803216926,-1.6071422792336996
0.9627152838916835,-2.493736664416076,-0.021963200297059563,0.2679168563913726,-1.604038622965438
0.958121125467106,-2.5485597152107005,-0.021790689460820856,0.254207436890773,-1.5970567434646221
0.9535655317206797,-2.600513982638674,-0.021595917648000625,0.24059511004232065,-1.585908525953589
0.9490534857646857,-2.649620517242674,-0.021375948599560175,0.2270861719005591,-1.5702872292691739
0.944590614663896,-2.69590178168707,-0.02112758569367587,0.21368777518890517,-1.5498667917663582
0.9401832485235759,-2.739381839310788,-0.020847329928420557,0.2004080117036277,-1.524301547554799
0.9358384893305227,-2.7800865595896838,-0.02053132905303785,0.18725599095252493,-1.49322660011865
0.9315642917375571,-2.8180438388432023,-0.020175314689491967,0.1742419067000201,-1.4562592140272042
0.927369558819716,-2.853283832254199,-0.019774522623279906,0.1613770781666227,-1.4130017474446572
0.9232642571234688,-2.8858391897292393,-0.019323588769549465,0.1486739454051752,-1.3630468762733998
0.9192595573571929,-2.9157452827441688,-0.018816409004507397,0.13614598807033212,-1.3059861756092417
0.9153680102838186,-2.9430404013770968,-0.01824594407524745,0.1238075227194806,-1.2414235440114196
0.9116037725028543,-2.9677658894342542,-0.01760393955298514,0.1116733159201137,-1.1689954820813169
0.9079829050074641,-2.9899661703518206,-0.01688051278406318,0.09975793091382949,-1.0884008172341886
0.9045237804871675,-3.0096885978445798,-0.01606353026638021,0.08807471187435939,-0.9994429182588529
0.9012476561142653,-3.0269830463080893,-0.015137654237450351,0.07663432111145574,-0.9020872989339881
0.8981795013300553,-3.041901146430483,-0.01408286751693078,0.06544282291134211,-0.7965357671662925
0.8953492221874115,-3.054495093768132,-0.012872171936819771,0.05449953268532798,-0.6833131278220331
0.8927935104183062,-3.0648160563863627,-0.011467940149898314,0.0437953493930908,-0.5633514396977438
0.890558711282438,-3.072912457879177,-0.00981586114408508,0.033313236252747534,-0.4380386401136701
0.888705515484157,-3.0788289426342246,-0.007833622649068075,0.023034237604843785,-0.3091775626708956
0.8873176776176726,-3.082608005805561,-0.00538388084125929,0.012956840217382793,-0.17879324362896098
0.8865240072902005,-3.084300594741755,-0.00217488418228359,0.003163054413030884,-0.048758020809905156
