x,y,v_x,v_y,omega
2.375,32.48,0.0,3.5384615384615383,-7.510204081632653
2.3733948766869895,31.850792597267958,-0.01783470347789388,3.4527318252277808,-7.014492176695973
2.3688224441319945,31.236682297420842,-0.0329701026887193,3.3707159508513045,-6.567966371332339
2.3617331467043425,30.637024552802316,-0.045799868729632404,3.2921478782434304,-6.164292022047164
2.352512213380469,30.051220212948603,-0.05665494598007848,3.2167892312422572,-5.79810420063486
2.3414899467347725,29.478710902904297,-0.06581468341654673,3.1444253248056055,-5.464837254024462
2.3289502071067685,28.91897504989267,-0.07351575689461042,3.0748619308791154,-5.160588192257065
2.3151374454040803,28.371524440683167,-0.07995937313525608,3.0079226158931194,-4.882006397708535
2.300262560631667,27.83590121777842,-0.08531712433600573,2.9434465274929513,-4.626203996982883
2.284507799772172,27.31167524187187,-0.08973577410282227,2.8812865381353974,-4.390682584196408
2.2680308729509084,26.798441762682398,-0.09334119057788651,2.8213076750809885,-4.17327297887489
2.250968422303878,26.295819351504278,-0.09624159438912043,2.7633857824536836,-3.972085444209047
2.2334389560650876,25.8034480575078,-0.0985302527085487,2.707406373062734,-3.7854683516002816
2.2155453382471757,25.320987756626767,-0.10028772304602968,2.6532636367264955,-3.6119737040878768
2.197376907549789,24.848116667237683,-0.10158372914715608,2.600859578707791,-3.450328259044844
2.1790112857869173,24.384530011111693,-0.10247873488474948,2.550103267136509,-3.2994092443871756
2.1605159254231237,23.929938801556293,-0.10302526915740219,2.500910172367948,-3.1582238605862876
2.14194943717813,23.484068743446954,-0.10326904467586037,2.453201584402513,-3.025891916328288
2.123362731663016,23.046659232121502,-0.10324990549207007,2.4069040969913744,-2.901631068612279
2.1048000033129957,22.617462439979207,-0.1030026317303814,2.361949149034126,-2.7847442358260666
2.086299580220184,22.19624248117495,-0.10255762485641491,2.318272615457625,-2.674608830471332
2.0678946596407464,21.7827746460902,-0.10194149269288973,2.2758144410395795,-2.5706675209853556
2.049613945793581,21.37684469834602,-0.10117755005339124,2.234518311673527,-2.4724202827833106
2.0314822039550626,20.978248228038044,-0.10028624815237112,2.194331358415112,-2.3794175397398765
2.0135207426850754,20.586790055649878,-0.0992855437363777,2.1552038903423076,-2.291254230795151
1.9957478342126125,20.202283681763923,-0.09819121706876466,2.117089152834935,-2.2075646637334327
1.978179081499516,19.824550778256828,-0.09701714641008607,2.079943108355033,-2.128018040642831
1.9608277392359383,19.453420717156163,-0.09577554540744082,2.0437242372079134,-2.05231455806487
1.9437049949582441,19.08873013375858,-0.09447716878916287,2.0083933560985305,-1.9801820001368224
1.9268202155846632,18.73032252097745,-0.09313149091729142,1.9739134525807456,-1.9113727557134683
1.9101811639078092,18.378047852208827,-0.09174686104775234,1.940249533737278,-1.8456612010081141
1.8937941889429495,18.031762230285498,-0.0903306385618011,1.9073684876330355,-1.7828413980997586
1.877664393487651,17.691327560335125,-0.08888931094151574,1.8752389562600216,-1.7227250670246999
1.8617957817863835,17.356611244575852,-0.08742859685034443,1.8438312188429735,-1.665139795358125
1.8461913897998516,17.027485897274516,-0.0859535363333446,1.8131170845052011,-1.6099274543986448
1.830853400242476,16.703829078262416,-0.08446856985971962,1.7830697934070288,-1.5569427954630315
1.8157832442635882,16.385523043554716,-0.08297760768347648,1.7536639255674216,-1.5060522035159916
1.800981691401063,16.072454511753797,-0.08148409078902472,1.7248753166650173,-1.4571325885125739
1.786448929224047,15.76451444503687,-0.07999104451115194,1.6966809801897167,-1.4100703975109934
1.7721846338989278,15.461597843635438,-0.0785011257679508,1.669059035381729,-1.3647607328973181
1.7581880327553079,15.16360355281033,-0.07701666471671441,1.6419886404528172,-1.32110656401366
1.744457959792829,14.87043408141238,-0.07553970153305235,1.6154499306355183,-1.279018021150545
1.7309929049520916,14.581995431196574,-0.0740720189195848,1.5894239606512308,-1.2384117622955841
1.7177910578710196,14.298196936127436,-0.07261517087010613,1.5638926512280675,-1.19921040426075
1.7048503467595673,14.018951110976769,-0.07117050814602999,1.5388387393348903,-1.1613420108699433
1.6921684729487976,13.744173508571965,-0.06973920086252089,1.51424573182958,-1.1247396318025582
1.679742941603422,13.473782585105003,-0.06832225853054369,1.4900978622477963,-1.0893408864789096
1.6675786755539241,13.20770239518572,-0.06683625313054257,1.466348692410884,-1.0527689224378476
1.6556792969687328,12.945859488407955,-0.06537906448269513,1.44301693845316,-1.0177354476757796
1.644039625699981,12.688179983734905,-0.06395061628121422,1.4200886690251537,-0.9841585053009171
1.6326545022123318,12.434592454708216,-0.06255075580377618,1.3975505423825054,-0.9519613298962114
1.6215188003744792,12.185027826164365,-0.061179264616807394,1.3753897747714017,-0.9210719659006912
1.610627438436791,11.939419276459805,-0.05983586802417335,1.3535941108348284,-0.8914229178104262
1.5999753884081624,11.697702144854674,-0.05852024340503309,1.332151795888838,-0.8629508292372614
1.589557684020484,11.459813843730899,-0.057232027569174136,1.3110515499308957,-0.8355961881673669
1.5793694274473988,11.225693775344258,-0.05597082324288167,1.2902825432539926,-0.8093030560315225
1.5694057949248865,10.995283252831832,-0.05473620478503187,1.2698343735507422,-0.7840188184390284
1.5596620414043092,10.768525425216158,-0.05352772322138575,1.249697044401203,-0.7596939556407899
1.5501335043536542,10.545365206165837,-0.052344910674781905,1.2298609450468274,-0.7362818309775855
1.5408156068095327,10.325749206289153,-0.0511872842599001,1.2103168313607882,-0.7137384957395246
1.531703859770842,10.109625668752795,-0.050054349503332166,1.1910558079320788,-0.692022509014613
1.5227938640146976,9.896944408032052,-0.04894560334271468,1.1720693111872902,-0.6710947712402464
1.5140813114061258,9.687656751612007,-0.04786053675252858,1.153349093479891,-0.650918370293187
1.5055619857649105,9.481715484471415,-0.04679863703875107,1.1348872080822494,-0.6314584390627273
1.497231763345844,9.279074796192162,-0.045759389839763555,1.116675995020572,-0.612682023549729
1.4890866129822626,9.079690230547541,-0.04474228086669832,1.0987080676974486,-0.5945579606222764
1.4811225959371188,8.883518637432196,-0.04374679741267629,1.0809763002508306,-0.5770567646378925
1.47333586550084,8.690518127005436,-0.04277242965709058,1.0634738156020482,-0.5601505222135954
1.4657226663707663,8.500648025927848,-0.041818671788171675,1.046193974148946,-0.5438127944893714
1.458279333843027,8.313868835578738,-0.04088502296448621,1.0291303630634014,-0.5280185262886563
1.4510022928441875,8.130142192149044,-0.039970988133730796,1.0122767861554125,-0.5127439616318229
1.4438880568268881,7.949430828510881,-0.03907607872515231,0.9956272542686354,-0.4979665651060413
1.4369411405935995,7.771921336335222,-0.03811187942249875,0.9767004365720336,-0.533147032029161
1.4301628710223768,7.59780927341496,-0.03720222692442018,0.9578780403197649,-0.5695867795333194
1.4235435983928815,7.427076078249019,-0.03634524673663998,0.939157461524031,-0.6071797125736159
1.417074010266334,7.2597036486485536,-0.03553906578055234,0.9205362007033511,-0.645821323392462
1.4107451310438892,7.0956743231662855,-0.034781814468835257,0.9020118602107495,-0.685408456381657
1.4045483211772098,6.934970862972868,-0.034071628494269306,0.8835821419383516,-0.725839074650487
1.398475276081335,6.777576434112557,-0.033406650348782777,0.8652448453984269,-0.7670120272646154
1.3925180247970814,6.6234745900701455,-0.03278503058736947,0.8469978661839127,-0.8088268161010079
1.3866689284477904,6.472649254580279,-0.03220492884919699,0.8288391948146134,-0.8511833612360958
1.38092067853323,6.325084704608884,-0.031664514645919045,0.810766915978653,-0.8939817637473824
1.3752662951018562,6.180765553434387,-0.031161967924901963,0.7927792081824048,-0.9371220647622097
1.3696991248414674,6.039676733753623,-0.030695479412749204,0.7748743438260939,-0.9805039995307787
1.364212839127528,5.901803480733879,-0.03026325074213272,0.7570506897266321,-1.0240267452330345
1.358801432068112,5.767131314928214,-0.029863494362489258,0.7393067081140647,-1.0675886611498753
1.3534592185845555,5.6356460249659435,-0.029494433232584355,0.7216409581333811,-1.111087019737385
1.3481808325675,5.50733364992389,-0.029154300290254342,0.7040520978894523,-1.154417727037453
1.3429612251491174,5.382180461276672,-0.028841337691773446,0.686538887079621,-1.19747503073815
1.337795663133938,5.260172944315556,-0.028553795810219898,0.6691001902661126,-1.2401512140614885
1.332679727632918,5.141297778915188,-0.028289931978890282,0.6517349808490964,-1.2823362735035944
1.3276093129482212,5.025541819515773,-0.028048008962187627,0.6344423458110783,-1.32391757828185
1.3225806257597053,4.912892074174469,-0.027826293132433635,0.6172214913145272,-1.3647795091543342
1.317590184668386,4.80333568252389,-0.02762305232666937,0.6000717492474553,-1.404803074068357
1.3126348201572478,4.696859892457251,-0.027436553352645228,0.5829925848263096,-1.443865497866996
1.307711675035809,4.59345203533848,-0.027265059107783634,0.5659836053822755,-1.4818397830360734
1.3028182054419128,4.493099499511214,-0.02710682526884015,0.5490445704762295,-1.5185942382109596
1.29795218248243,4.395789701852504,-0.026960096503190197,0.5321754035094225,-1.5539919708868344
1.2931116946040917,4.301510057084688,-0.02682310214501319,0.5153762050218837,-1.587890340494159
1.288295150796651,4.210247944521825,-0.02669405127099618,0.4986472678988123,-1.6201403677236805
1.2835012847432279,4.121990671884582,-0.02657112710037156,0.48198909473720697,-1.6505860957286116
1.2787291600472301,4.036725435768755,-0.026452480632937713,0.4654024176608891,-1.6790638986202617
1.2739781766819314,3.954439278297194,-0.0263362234259386,0.44888822091200004,-1.705401732543775
1.2692480788279588,3.8751190394219392,-0.02622041939597869,0.4324477665908336,-1.7294183246261663
1.2645389642859615,3.7987513042721055,-0.026103075515101788,0.4160826239628943,-1.750922295307315
1.2598512956770849,3.7253223448633506,-0.02598213125019314,0.39979470280104934,-1.7697112101086432
1.2551859136731622,3.6548180553961345,-0.02585544657117007,0.38358629127914223,-1.7855705579266712
1.2505440525325207,3.587223880273058,-0.025720788324848656,0.36746009897727777,-1.7982726546942542
1.2459273582570265,3.5225247338618857,-0.025575814736198736,0.3514193055912962,-1.8075754740696113
1.2413379097328783,3.460704910923287,-0.025418057754336528,0.3354676159486831,-1.8132214111803526
1.2367782432737122,3.4017479865166393,-0.02524490290306526,0.3196093219029358,-1.8149359920710804
1.2322513810527418,3.3456367041030646,-0.02505356621882777,0.3038493715812279,-1.8124265513963107
1.2277608639953024,3.2923528504978457,-0.02484106775272225,0.28819344625453597,-1.805380915536466
1.2233107898109774,3.241877116309972,-0.02460420096199906,0.27264804472183024,-1.7934661498208324
1.2189058569858637,3.1941889405841053,-0.024339497094820747,0.2572205744544605,-1.776327459992094
1.2145514157468327,3.149266338591172,-0.024043183338858284,0.24191944768923304,-1.7535873838753555
1.2102535272770218,3.1070857121914557,-0.02371113299237364,0.2267541789742855,-1.7248454757802414
1.20601903284728,3.067621643059635,-0.023338805115870446,0.2117354780459646,-1.6896787825057693
1.201855635100105,3.0308466705249195,-0.02292116985273897,0.19687532789532025,-1.6476435485652272
1.197771994591856,2.9967310581486153,-0.022452613572250934,0.18218703184139928,-1.5982787865414716
1.1937778460471598,2.96524255687412,-0.021926814702151416,0.16768520454186514,-1.5411126283604557
1.1898841409029002,2.9363461782394396,-0.021336575789621733,0.15338566917678784,-1.4756727601486521
1.1861032261003972,2.91000399950034,-0.02067358868263328,0.1393052057020969,-1.4015027592662435
1.1824490745027159,2.886175034403575,-0.01992809573604823,0.1254610731508556,-1.3181867964326868
1.1789375910125113,2.864815219339185,-0.01908838748844733,0.11187020534234872,-1.2253858681567518
1.175587032393151,2.845877584102773,-0.018140041615554915,0.09854796395112353,-1.1228892418942988
1.1724186009572652,2.8293126957578814,-0.017064752116509388,0.08550635099213307,-1.0106845127982254
1.1694573073480443,2.815069472125355,-0.015838510208166668,0.07275168936927946,-0.8890472755597147
1.1667332535371937,2.803096433025491,-0.014428754356839922,0.06028207840697806,-0.7586445793021497
1.1642835812836199,2.7933433434260095,-0.012789826238425204,0.048085583809467376,-0.6206320273246718
1.1621555166583462,2.7857629196722087,-0.010855336264615389,0.03614134678833328,-0.476701444333144
1.160411421749232,2.780311673092381,-0.008523496058873668,0.024428059654180746,-0.3290114982447271
1.159138489418614,2.7769475912842836,-0.005620196503548609,0.012950627102470788,-0.1799278342561116
1.1584752722721616,2.7756165805285455,-0.0017488829014784151,0.001838381294610161,-0.03155430299210557
