x,y,v_x,v_y,omega
2.375,32.48,0.0,3.1794871794871797,-3.1020408163265305
2.37439886116655,31.914047510791068,-0.006679320371667107,3.1088738117231514,-2.9164169973104075
2.3726796402409716,31.360566476784594,-0.012423134356982623,3.040915455015426,-2.7473184717835077
2.3699994862486005,30.819093306422392,-0.01735635444713944,2.9754531045646027,-2.5928303025818416
2.3664946889975327,30.28919187219741,-0.021585837231390265,2.912340609046311,-2.4513001386626896
2.3622836713094313,29.770451317951352,-0.025203248191961063,2.8514433270210175,-2.32129728849538
2.357469510365134,29.26248409209089,-0.02828742896689427,2.7926369603174512,-2.20157889261913
2.3521420692496036,28.764924177450304,-0.030906361205670953,2.735806535689056,-2.0910618426233394
2.34637980457686,28.277425493194077,-0.03311880182481163,2.6808455116023406,-1.9887993745037975
2.3402513039629067,27.79966044792987,-0.03497564944133538,2.6276549913332814,-1.893961482010962
2.333816597413778,27.331318626285906,-0.03652108999342819,2.576143026933014,-1.8058184654814693
2.3271282788884795,26.872105593744692,-0.03779356028766392,2.5262240013026687,-1.7237270650218923
2.3202324679842885,26.42174180662947,-0.038826560870017866,2.477818077755345,-1.6471187322255398
2.3131696365664145,25.97996161589672,-0.03964934377302577,2.4308507081641113,-1.575489678194038
2.305975320985381,25.546512354864777,-0.040287496016232,2.3852521921908005,-1.5083924023156563
2.2986807371056566,25.121153502256814,-0.040763435980708126,2.340957281231034,-1.445428459692946
2.2913133125601104,24.70365591299757,-0.04109683674758506,2.297904821649458,-1.3862422681327415
2.283897148329647,24.29380111011003,-0.04130498803534086,2.256037432656494,-1.3305157903902303
2.2764534198327913,23.891380631836647,-0.041403106374168434,2.215301214825592,-1.2779639555878723
2.2690007261217273,23.49619542878099,-0.041404601526540054,2.175645485792799,-1.2283307067310023
2.26155539445973,23.10805530644724,-0.04132130582898145,2.1370225401377527,-1.1813855800521857
2.2541317464520594,22.726778409059918,-0.04116367203402718,2.099387430832488,-1.1369207373536316
2.246742330979474,22.352190740987346,-0.040940944328037666,2.062697769973873,-1.094748385228936
2.239398128409102,21.984125722477966,-0.04066130645387035,2.026913546796994,-1.0546985255473404
2.2321087299059004,21.622423776757486,-0.04033201024837027,1.9919969612083455,-1.0166169902869855
2.224882495118446,21.266931945833022,-0.039959487390015674,1.957912271285697,-0.9803637210381576
2.2177266910482687,20.917503532613893,-0.03954944672306194,1.924625653371327,-0.9458112595287292
2.2106476145182543,20.573997767191756,-0.03910695916598828,1.892105073541279,-0.9128434205661831
2.2036507003212673,20.236279495329832,-0.038636531911641236,1.8603201693689873,-0.8813541230175079
2.1967406168455463,19.90421888739482,-0.03814217337414819,1.8292421410200594,-0.8512463580010446
2.189921350730601,19.577691166129334,-0.03762745012524464,1.7988436508186352,-0.8224312764582107
2.1831962818998227,19.25657635180915,-0.037095536883403654,1.7690987305166974,-0.7948273808021528
2.176568250138236,18.940759023460657,-0.03654926046755862,1.7399826955777202,-0.768359807482064
2.1700396142312703,18.630128094931568,-0.03599113849872638,1.7114720658565945,-0.7429596891197641
2.163612304549251,18.324576604713663,-0.03542341352371548,1.6835444921201304,-0.718563586421655
2.157287869849315,18.02400151851116,-0.03484808314223648,1.6561786879076743,-0.695112981387761
2.151067518968955,17.728303543634233,-0.034266926639540805,1.6293543662803984,-0.6725538244662477
2.1449521580010815,17.437386954374368,-0.033681528559056505,1.60305218105142,-0.6508361292665551
2.1389424234675243,17.151159427588244,-0.03309329959157587,1.5772536721277541,-0.6299136092720413
2.1330387119445726,16.869531887780067,-0.03250349510788707,1.5519412146297693,-0.6097433517046786
2.127241206539146,16.592418361029754,-0.03191323161907835,1.5270979714848183,-0.5902855243073657
2.1215499005663463,16.319735837166366,-0.03132350141202939,1.5027078492194774,-0.5715031113384755
2.1159646187374275,16.051404139633636,-0.030735185575956316,1.4787554566997279,-0.5533616755307084
2.1104878412752464,15.78734645318309,-0.030117897337165217,1.4552188371952244,-0.5348669137984674
2.1051213950974033,15.527488520929431,-0.029509282416646958,1.4320915211787593,-0.5171461202459758
2.0998636937034663,15.271757885941245,-0.028909621960433732,1.40935997868998,-0.5001582814073122
2.09471310530846,15.020084475886058,-0.028319137984077355,1.387011244145441,-0.4838649663567265
2.0896679628619985,14.772400504118107,-0.027738000309939684,1.3650328866095847,-0.4682301380708518
2.084726572887524,14.52864037595015,-0.027166332739777786,1.34341298192325,-0.453219980412763
2.0798872232715633,14.288740599787111,-0.026604218548676832,1.3221400865549455,-0.4388027392942846
2.0751481901183197,14.052639702822557,-0.026051705376250425,1.301203213051227,-0.4249485767199212
2.070507743772063,13.82027815102041,-0.025508809582152986,1.2805918069726034,-0.41162943654644063
2.0659641540984044,13.591598273123928,-0.024975520125167197,1.260295725210551,-0.3988189209084329
2.0615156951054927,13.366544188451918,-0.02445180201829867,1.240305215589549,-0.3864921763638134
2.057160648977278,13.145061738258953,-0.02393759940630784,1.220610897665639,-0.37462578890571907
2.052897309583096,12.92709842045145,-0.02343283830682918,1.2012037446399286,-0.363197687069866
2.048723985520839,12.712603327465796,-0.02293742905157873,1.1820750663117727,-0.35218705244032916
2.044639002744792,12.501527087127545,-0.02245126846005302,1.163216493002125,-0.3415742369228739
2.0406407068236816,12.2938218063229,-0.021974241774507273,1.1446199603828358,-0.33134068621428014
2.0367274648696134,12.08944101732472,-0.0215062243818078,1.1262776951524855,-0.3214688689493302
2.0328976671742067,11.888339626625658,-0.02104708334493159,1.1081822015037657,-0.3119422110549493
2.029149728584368,11.690473866140486,-0.020596678764389174,1.0903262483314702,-0.302745034883992
2.0254820896466854,11.495801246648604,-0.02015486498763618,1.072702857133877,-0.29386250273988374
2.021893217546366,11.30428051335582,-0.019721491682579608,1.0553052905637113,-0.2852805644382132
2.018381606863875,11.115871603462164,-0.019296404789547052,1.038127041588019,-0.27698590858284444
2.0149457801700064,10.930535605629519,-0.0188794473645445,1.0211618232191675,-0.26896591726253266
2.0115842884779243,10.748234721249428,-0.01847046032525789,1.0044035587818425,-0.2612086238997112
2.008295711568748,10.568932227417559,-0.0180692831100353,0.9878463726833611,-0.25370267400635194
2.005081869949501,10.392814167952046,-0.017640068214930162,0.9690209547112341,-0.29521910268489837
2.001941502280887,10.220075650815705,-0.01725290588077868,0.9502959023592124,-0.33781244868042504
1.9988671650296632,10.050698832192314,-0.016906396910598646,0.9316687490118082,-0.38138497587379705
1.995851667702678,9.884666303708972,-0.0165991289447934,0.9131371230253263,-0.4258401337390951
1.9928880749836264,9.721961075537664,-0.016329679044669147,0.8946987455447639,-0.4710823441022886
1.9899697084323926,9.56256655985947,-0.016096615969039718,0.876351428657376,-0.5170167878742216
1.987090147800756,9.406466554630569,-0.015898502160254856,0.8580930738859414,-0.5635491907999045
1.9842432320155152,9.25364522758835,-0.0157338954535325,0.8399216710275798,-0.6105856072327099
1.9814230598778033,9.10408710043464,-0.01560135052104348,0.8218352973470013,-0.6580322009001058
1.9786239905255307,8.957777033131137,-0.015499420059763715,0.8038321171363465,-0.7057950215763888
1.9758406437044835,8.814700208239703,-0.015426655729648625,0.7859103816573708,-0.7537797765167147
1.97306789989266,8.674842115236828,-0.015381608846169096,0.768068429485689,-0.8018915954346953
1.9703009003219263,8.538188534727809,-0.015362830828648895,0.7503046872811961,-0.8500347877219219
1.9675350469410666,8.404725522481268,-0.015368873403127268,0.7326176710137088,-0.8981125905108448
1.9647660023647808,8.274439393198978,-0.01539828855560288,0.7150059876784072,-0.9460269060712231
1.9619896898542155,8.14731670392915,-0.015449628228457466,0.697468337541926,-0.9936780269034273
1.9592022933761932,8.023344237023341,-0.01552144374956679,0.6800035169670483,-1.0409643467477059
1.956400257790529,7.90250898252782,-0.015612284980035033,0.662610421872065,-1.0877820555654394
1.9535802892176934,7.784798119889221,-0.0157206991625832,0.6452880518901333,-1.1340248163646585
1.950739355642712,7.670198998841695,-0.01584522944832233,0.6280355153045893,-1.1795834215358985
1.9478746878156237,7.558699119327926,-0.0159844130748805,0.6108520348483879,-1.224345426134038
1.9449837805141648,7.45028611028928,-0.016136779163552165,0.5937369544698982,-1.2681947552855304
1.9420643942406959,7.344947707140474,-0.016300846097211635,0.5766897471834941,-1.3110112826171068
1.9391145574328796,7.242671727721174,-0.016475118434080584,0.5597100241420719,-1.3526703762909826
1.9361325692763671,7.1434460464902685,-0.016658083304948196,0.542797545090205,-1.39304240889319
1.9331170032179534,7.047258566697813,-0.01684820623298141,0.5259522303815337,-1.431992227057915
1.9300667112894738,6.954097190233934,-0.017043926305680596,0.5091741747726666,-1.4693785763261193
1.9269808293663735,6.863949784812899,-0.01724365061765686,0.49246366323883756,-1.5050534763395338
1.9238587835006373,6.7768041481029115,-0.017445747890524103,0.47582118909436094,-1.53886154107516
1.9207002974859042,6.692647968357459,-0.0176485411620649,0.45924747474401817,-1.5706392384528176
1.9175054018334603,6.61146878104087,-0.017850299420644446,0.44274349544032177,-1.6002140833331893
1.914274444361801,6.533253920868372,-0.018049228042239077,0.4263105064763163,-1.627403757718135
1.9110081026300647,6.45799046859814,-0.018243457865939963,0.4099500743040232,-1.6520151519464084
1.9077073984774415,6.38566519181872,-0.0184310327187631,0.3936641121339802,-1.67384332096162
1.9043737149673454,6.316264478869094,-0.018609895171191302,0.3774549206396373,-1.6926703504855272
1.9010088160776482,6.249774264910311,-0.01877787026988918,0.3613252344579333,-1.7082641294089052
1.897614869527704,6.186179949037712,-0.018932646951713542,0.345278275237627,-1.7203770272821919
1.8941944731908733,6.125466301183732,-0.019071756790848576,0.32931781202880955,-1.7287444799888871
1.8907506856098872,6.06761735741803,-0.019192549664553235,0.3134482298123344,-1.7330834933095924
1.8872870612148205,6.012616302113244,-0.019292165836188573,0.2976746069075111,-1.733091084299937
1.8838076909442718,5.9604453353274,-0.019367503836575026,0.2820028018241017,-1.7284426959280583
1.8803172490966242,5.911085523684115,-0.01941518335950805,0.2664395497679401,-1.718790643775799
1.8768210474010605,5.864516633052997,-0.01943150214675708,0.25099256835560474,-1.7037626885290285
1.8733250975150049,5.820716941513819,-0.019412385476081262,0.23567067096857677,-1.6829608799522686
1.8698361834546464,5.779663031538259,-0.019353326305679656,0.22048388431542096,-1.6559608951090952
1.866361945895508,5.741329561210513,-0.019249313240304274,0.20544356377065956,-1.6223122074753011
1.8629109809195104,5.705689015891725,-0.01909474204855676,0.19056249532698127,-1.5815395911422139
1.859492956765631,5.672711444401241,-0.018883304105657413,0.17585496567839204,-1.5331467091433502
1.8561187536853612,5.642364188111312,-0.018607841230677005,0.16133677087638032,-1.4766228887129615
1.8528006344865902,5.614611618137957,-0.018260149866778423,0.14702511771646878,-1.4114546877667284
1.8495524574016435,5.589414906125494,-0.01783070663262671,0.13293834908865348,-1.3371445442249796
1.8463899495944214,5.56673186919469,-0.01730826900317495,0.11909539458693529,-1.25323968492318
1.8433310706806911,5.546516950407824,-0.01667927448271664,0.10551481415601292,-1.159375471931694
1.8403965139370446,5.528721422007923,-0.015926911557800058,0.09221327917620367,-1.0553381482673532
1.8376104230310013,5.513293924509938,-0.015029654064902835,0.07920335969030498,-0.9411516055514965
1.8350014516417656,5.500181464172574,-0.013958916926605003,0.06649064405819814,-0.8171893075256811
1.832604375851287,5.4893309454934105,-0.012675258523156183,0.05407067459917357,-0.6843021659635056
1.8304626167517837,5.4806911359996136,-0.011122064804660653,0.04192720866522603,-0.543931248429484
1.8286323498055332,5.4742145102141855,-0.00921423459811917,0.030035300061768633,-0.39813984856542406
1.8271898226532886,5.469857420245308,-0.006813844871267721,0.018376810703533895,-0.24946688778832438
1.8262476213933225,5.467574212176633,-0.0036550580172454417,0.006992167837323596,-0.10050853405921106
