x,y,v_x,v_y,omega
2.375,32.48,0.0,2.6153846153846154,-2.1224489795918373
2.374445200145849,31.885461806229674,-0.004824346557835864,2.554512721748631,-1.9890865152591997
2.3728624443159756,31.30464847023068,-0.008938747614975989,2.496038026068676,-1.8681904202713708
2.370403568629621,30.73702582378281,-0.012442780092451203,2.439811073478063,-1.758246041149226
2.3671992431923163,30.182092640317578,-0.015420919362373536,2.3856948696978515,-1.6579561530279983
2.3633621568795298,29.639377921407657,-0.017945048574901083,2.3335635556058207,-1.5662055519380378
2.3589896773279206,29.108438467970352,-0.020076512743440716,2.2833012568924755,-1.4820320487449459
2.3541660805293954,28.588856699157123,-0.02186780724373742,2.2348010806138463,-1.4046025971147016
2.3489644259952414,28.08023868776236,-0.023363971314122517,2.1879642358623763,-1.3331935602375258
2.3434481389137445,27.582212385740032,-0.024603742438021884,2.1426992599839334,-1.2671743303372727
2.337672349184677,27.09442601730848,-0.025620516075609882,2.0989213350730607,-1.2059936768749033
2.331685028011483,26.616546620333693,-0.02644314629998737,2.0565516820989678,-1.1491683253343072
2.3255279553587824,26.14825871934945,-0.0270966158974099,2.015517022111858,-1.0962733670839386
2.3192375456489396,25.689263115804334,-0.027602598970789375,1.9757490956717718,-1.0469341784058113
2.3128455542758095,25.239275783004885,-0.027979934708602952,1.9371842330190727,-1.000819588163205
2.306379683622415,24.79802685481477,-0.02824502749483002,1.8997629686341182,-0.9576360823658712
2.2998641040996786,24.3652596985239,-0.02841218574635666,1.863429694764731,-0.9171228728493421
2.2933199031321143,23.940730063459537,-0.02849390962376577,1.8281323492732329,-0.8790476885307176
2.2867654728906057,23.52420529790605,-0.02850113595456974,1.7938221338005746,-0.8432031728692035
2.2802168458226166,23.115463627758423,-0.028443447245333556,1.7604532587874568,-0.8094037915103909
2.273687985585246,22.714293491077605,-0.02832925047093298,1.7279827123501288,-0.7774831706136962
2.2671910397896218,22.320492923361705,-0.028165930360582774,1.6963700503968309,-0.7472917998231998
2.260736559970729,21.933868988910387,-0.027959981108052086,1.6655772057015767,-0.7186950448490822
2.254333693368204,21.554237254152195,-0.02771711978346804,1.6355683139348676,-0.6915714236582404
2.247990350411355,21.181421299236895,-0.027442384189128723,1.606309554893816,-0.6658111077075968
2.24171335122169,20.81525226457501,-0.027140217460138276,1.5777690073834532,-0.641314615793874
2.2355085539590878,20.45556842934199,-0.026814541345097895,1.5499165163819408,-0.6179916731803257
2.229380967427561,20.102214819260944,-0.026468819798609326,1.5227235712793457,-0.5957602128874424
2.2233348500102754,19.75504284124046,-0.026106114264746426,1.4961631941161448,-0.5745454995566379
2.217385161618288,19.41391073330947,-0.02563030653514506,1.470202961805517,-0.5516436816027245
2.211545176711537,19.07868240146796,-0.02515217091486018,1.4448260107293511,-0.52991750524262
2.205815249946173,18.749226336176946,-0.02467327921874196,1.420009339627319,-0.5092914082026047
2.200195399084771,18.425416183493688,-0.024194989141274957,1.3957311184879337,-0.48969560246232835
2.1946853512463442,18.10713048424968,-0.023718470323303882,1.3719706140686843,-0.4710655639240551
2.1892845835319217,17.79425242971167,-0.023244727193414486,1.348708121044449,-0.45334157312128504
2.1839923587193564,17.48666963248804,-0.022774619002808534,1.325924898291432,-0.43646830128242897
2.1788077566313198,17.1842739115503,-0.022308877414899723,1.3036031098628433,-0.42039443676134136
2.1737297017030164,16.886961090336623,-0.021848121961652475,1.2817257702560796,-0.4050723474498485
2.1687569872092185,16.594630806992036,-0.02139287363658826,1.2602766936099123,-0.3904577753112899
2.1638882965523054,16.30718633587885,-0.020943566858306673,1.2392404465047522,-0.3765095596298224
2.1591222219627495,16.024534419562762,-0.02050056000739926,1.2186023040699117,-0.3631893859673924
2.1544572809199027,15.746585110544842,-0.02006414471300765,1.1983482091293995,-0.35046155816699043
2.1498919305630366,15.473251622068574,-0.019634554042348873,1.1784647341424999,-0.3382927910439877
2.1454245803295895,15.204450187384666,-0.01921196972675701,1.158939045717574,-0.32665202167291707
2.1410536030288303,14.940099926904939,-0.0187965285407119,1.1397588714974418,-0.3155102374100429
2.13677734453406,14.68012272272098,-0.018388327935554408,1.120912469232625,-0.3048403189967865
2.13259413225454,14.424443100003618,-0.017987431016794102,1.1023885978748709,-0.29461689726923945
2.128502282529184,14.172988114836144,-0.01759387094281929,1.0841764905379339,-0.2848162221577882
2.124500107067244,13.925687248067923,-0.017207654813183475,1.0662658291857368,-0.27541604280103
2.1205859185465075,13.682472304805774,-0.016828767106263413,1.048646720919909,-0.2663954977220485
2.1167580354666264,13.443277319188798,-0.016457172718788972,1.0313096757494598,-0.2577350141247761
2.1130147863438262,13.208038464118076,-0.0160928196533862,1.0142455857350814,-0.24941621546536516
2.1093545133232934,12.976693965636457,-0.015735641394725535,0.9974457054094246,-0.24142183653975785
2.105778344626529,12.749278208727855,-0.015361477707575625,0.9800826155349368,-0.250130467783404
2.1022858290556616,12.525841180421871,-0.015008222908660399,0.9628480653866656,-0.2611909827589595
2.0988720730779695,12.306353758516071,-0.01467661167996869,0.9457382120550768,-0.2744761874500796
2.0955320329614877,12.090787686684134,-0.014367215419872905,0.9287493690921903,-0.28986300134020687
2.0922605507496645,11.87911553934494,-0.014080455987283486,0.9118779990747136,-0.30723216505232703
2.089052387199792,11.671310688179531,-0.013816618359436155,0.8951207067114505,-0.32646795976483706
2.0859022519256527,11.467347270174223,-0.01357586228525337,0.8784742324651515,-0.347457937236067
2.0828048309667606,11.26720015707458,-0.0133582330094577,0.8619354466621816,-0.3700926593197482
2.0797548119899902,11.07084492614079,-0.013163671136372406,0.845501344066432,-0.3942654458957203
2.076746907314202,10.878257832100015,-0.012992021696568896,0.8291690388968327,-0.41987213017466607
2.073775874934568,10.689415780195755,-0.01284304247416229,0.8129357602706526,-0.446810820362838
2.070836537710569,10.504296300238014,-0.012716411647569445,0.7967988480575441,-0.4749816666926864
2.0679238008700316,10.322877521561214,-0.012611734791886445,0.7807557491320203,-0.504286632838038
2.0650326679709967,10.145138148799333,-0.012528551286675406,0.7648040140147813,-0.5346292707379444
2.062158255453613,9.971057438389586,-0.012466340168836463,0.7489412938960621,-0.5659144978513819
2.0592958059055673,9.800615175717287,-0.01242452546634483,0.7331653380369907,-0.5980483758554133
2.0564407001567715,9.633791652815027,-0.012402481044920938,0.7174739915478621,-0.6309378897819031
2.0535884683120496,9.470567646529314,-0.012399534996140807,0.7018651935452895,-0.6644907265620099
2.0507347998244074,9.310924397066863,-0.012414973592051355,0.686336975693431,-0.6986150519129508
2.0478755527061017,9.154843586831252,-0.012448044827998758,0.6708874611379619,-0.7332192844573501
2.045006761970093,9.002307319458186,-0.012497961572073973,0.6555148638452247,-0.7682118659111083
2.0421246473906307,8.85329809895423,-0.01256390433629417,0.6402174883631001,-0.803501026110345
2.0392256206686032,8.707798808839634,-0.012645023681336591,0.6249937300246825,-0.838994541570597
2.036306292084972,8.565792691190392,-0.012740442263284682,0.6098420756208898,-0.8745994861810266
2.033363476724044,8.427263325468004,-0.01284925652739533,0.59476110457379,-0.910221972531674
2.030394200347608,8.292194607017407,-0.012970538050307423,0.5797494906487951,-0.9457668822514486
2.0273957050010636,8.16057072510392,-0.013103334528338551,0.5648060042510853,-0.9811375835971121
2.0243654544336716,8.032376140348664,-0.013246670405506894,0.5499295153598317,-1.0162356343774321
2.0213011394170177,7.90759556140852,-0.013399547130611594,0.5351189971631609,-1.0509604681203317
2.0182006830487724,7.78621392073099,-0.013560943028043452,0.5203735304675399,-1.0852090611926501
2.015062246132928,7.668216349195948,-0.013729812761906731,0.5056923089675979,-1.1188755783605377
2.0118842327330544,7.553588149434866,-0.013905086367431435,0.4910746454765996,-1.151850994032309
2.0086652960017926,7.442314767593128,-0.014085667817451889,0.4765199792341493,-1.1840226861540193
2.005404344398032,7.334381763272145,-0.014270433084817598,0.4620278844265823,-1.215273999431204
2.002100548413083,7.229774777354201,-0.014458227653866337,0.44759808007727653,-1.2454837742295617
1.9987533479389685,7.128479497374055,-0.014647863425389651,0.4332304414892157,-1.274525837166412
1.9953624604258335,7.030481620055927,-0.014838114949697043,0.4189250134510212,-1.302268449050207
1.991927889991825,6.935766810582216,-0.015027714911248704,0.40468202545080767,-1.3285737054686682
1.988449937667831,6.844320658099665,-0.01521534877565385,0.3905019091800722,-1.353296884985783
1.9849292129816656,6.756128626898889,-0.015399648495350556,0.37638531865277525,-1.3762857396127304
1.9813666471120297,6.671176002622818,-0.015579185153657171,0.36233315331304217,-1.3973797220119526
1.9777635078724751,6.5894478327676005,-0.01575246040768663,0.34834658455840445,-1.4164091438433393
1.974121416820239,6.510928860634575,-0.015917896568281218,0.3344270861635687,-1.4331942598658236
1.9704423688250639,6.435603451773428,-0.016073825128893614,0.32057646915075877,-1.447544273013219
1.9667287544799652,6.363455511824025,-0.016218473524137272,0.30679692171360834,-1.4592562568864105
1.962983385790675,6.294468394518429,-0.016349949860994535,0.2930910548568038,-1.468113994264212
1.9592095256449684,6.228624798447722,-0.016466225319063162,0.27946195445369015,-1.47388673380245
1.955410921639706,6.16590665103573,-0.016565113857132358,0.2659132404331916,-1.476327872757834
1.951591844935732,6.106294978003472,-0.016644248786120405,0.2524491337603608,-1.4751735823615706
1.947757134923986,6.049769756471925,-0.016701055663845468,0.23907453173134974,-1.4701414058857782
1.9439122506283024,5.996309749765807,-0.016732720820358055,0.22579509180009813,-1.4609288797227964
1.9400633299539154,5.945892321995789,-0.016736154609094923,0.21261732359137647,-1.4472122582291451
1.9362172581356938,5.898493230688153,-0.01670794815804806,0.1995486877793728,-1.428645468540134
1.9323817470792624,5.854086396221515,-0.016644321897878178,0.18659769888705754,-1.4048594892054735
1.928565427775229,5.812643647809839,-0.01654106335458491,0.17377402643187634,-1.3754624468112902
1.9247779586915619,5.7741344475323935,-0.0163934504164336,0.1610885846763489,-1.3400408728638773
1.9210301541625072,5.738525596896114,-0.01619615418404377,0.14855359476955,-1.298162780420836
1.9173341385490141,5.705780935276092,-0.015943112020243018,0.13618259323063342,-1.2493835349708369
1.913703534776321,5.67586104724062,-0.015627355568393928,0.12399034620825217,-1.1932559422733853
1.9101537004874567,5.648723007456152,-0.015240768682598056,0.11199260843928255,-1.1293465924619779
1.9067020327111888,5.624320209004619,-0.014773733719732033,0.10020563896534607,-1.0572612964388428
1.9033683746659875,5.602602344633038,-0.014214597108104294,0.08864535557012945,-0.9766833536432085
1.9001755794463546,5.583515639985919,-0.013548839584356728,0.07732598918742492,-0.8874290945636257
1.89715032026654,5.567003467091304,-0.012757761979248647,0.06625812293965201,-0.789524809479131
1.8943242945363445,5.553007475979928,-0.0118163748050596,0.05544614759403768,-0.6833059276514677
1.891736065548426,5.541469326014571,-0.010689964220318439,0.0448855912351646,-0.569529717739468
1.8894339602171812,5.532332883247975,-0.009328343007897378,0.03456173717001836,-0.44947251871178784
1.88748082793122,5.525546210828708,-0.007655416000460398,0.02445280560620558,-0.32495112862340614
1.8859626515403274,5.521061466307096,-0.005546117833388698,0.014544972842591394,-0.19817937335748562
1.8850084444151918,5.518827167845139,-0.0027513354286606605,0.0048837094352981,-0.0713790491346884
