x,y,v_x,v_y,omega
2.375,32.48,0.0,2.6153846153846154,-3.591836734693878
2.3743091786392796,31.962428368708007,-0.006908213607204796,2.5603316975352746,-3.392762559930459
2.3723268341209653,31.455676322014433,-0.012915231575938397,2.5071887694004737,-3.2099291312894347
2.3692220828502437,30.959372703739263,-0.018132281131278256,2.4558474133512402,-3.041597703203389
2.365143285060104,30.47316719208864,-0.022655696770114815,2.4062077031549833,-2.886251093401088
2.3602208033593177,29.996728689933594,-0.026569120237748368,2.3581773183954753,-2.7425614147623043
2.3545693571206225,29.529743880295904,-0.029945342149204766,2.311670777981405,-2.6093630715117215
2.3482900379584897,29.071915925207602,-0.03284784947212485,2.2666087729016313,-2.48563006901654
2.3414720399661895,28.622963289688016,-0.035332130450877276,2.222917582294232,-2.370456875072668
2.3341941490569686,28.182618675465356,-0.03744677864133251,2.180528559932353,-2.2630422183069094
2.326526028202969,27.75062805141142,-0.039234429898659835,2.139377680607009,-2.162675325817371
2.318529329219265,27.326749769574416,-0.04073255993838259,2.099405137763035,-2.068724194597641
2.3102586567139207,26.910753757274485,-0.041974165115058595,2.0605549852362883,-1.9806255650371856
2.3017624056962345,26.50242077703732,-0.04298834506180673,2.022774817135357,-1.8978763239500573
2.293083490930037,26.101541747236254,-0.04380080260016636,1.9860154808752721,-1.820026112279628
2.284259983299627,25.70791711723333,-0.044434273703934775,1.9502308191539957,-1.7466709512608587
2.2753256661133294,25.32135629158764,-0.0449088981590421,1.9153774373028833,-1.6774477322537875
2.266310522316653,24.941677098560422,-0.045242539807723615,1.8814144929693033,-1.6120294411415543
2.2572411619535306,24.568705298710913,-0.0454510638234967,1.8483035055257846,-1.5501210092490916
2.248141197843787,24.202274129862012,-0.0455485772739369,1.81600818296325,-1.4914557000793023
2.239031576292044,23.842223885132697,-0.04554763824349573,1.7844942643299095,-1.4357919554907395
2.229930868670621,23.488401521096378,-0.045459437970731625,1.7537293760332442,-1.3829106368183552
2.220855528896251,23.14066029343917,-0.045293959772971765,1.7236829005388874,-1.3326126063175556
2.2118201211227393,22.79885941776687,-0.045060117962142585,1.6943258561840882,-1.2847166025534484
2.202837521378671,22.46286375345042,-0.044765879478541,1.6656307869803864,-1.2390573702535357
2.193919096373954,22.132543508610915,-0.044418370568633084,1.6375716614146667,-1.1954840109292326
2.18507486226754,21.807773964532092,-0.04402397049550285,1.6101237793735572,-1.1538585254412606
2.176313625819424,21.488435217953118,-0.04358839398565938,1.5832636864161802,-1.114054523792431
2.1676431100333784,21.1744119398408,-0.04311676387479496,1.5569690947070145,-1.0759560809064614
2.1590700661248414,20.86559314937049,-0.042613675210573874,1.5312188099961084,-1.0394567200981113
2.150600373414116,20.5618720019609,-0.04208325189668367,1.5059926640997667,-1.0044585084444193
2.142239128543019,20.263145590311673,-0.04152919681428754,1.4812714523925277,-0.9708712504004257
2.1339990737653602,19.969316516732317,-0.04087135096229734,1.4570192834010183,-0.9360916392169936
2.125891209622594,19.680290857203836,-0.04020729046536144,1.4332373118837785,-0.9028965886875534
2.1179165754458786,19.395976243194696,-0.03953905130179325,1.4099088282076329,-0.8711951928367813
2.1100758271116025,19.11628357206567,-0.03886843204097164,1.387017883082613,-0.8409027474974597
2.1023692819909607,18.8411268593595,-0.03819701916544354,1.364549243979116,-0.8119402600759946
2.0947969591115974,18.570423099509014,-0.037526209628189984,1.3424883545257063,-0.7842340032341089
2.0873586150524828,18.304092134391475,-0.03685723096295668,1.3208212966496895,-0.7577151080982516
2.0800537760335134,18.04205652920208,-0.03619115922673951,1.2995347552443153,-0.7323191930913916
2.072881766608865,17.78424145516105,-0.03552893501974208,1.2786159851659484,-0.7079860249069735
2.0658417353270213,17.53057457860625,-0.03487137779869307,1.25805278038205,-0.6846592085194375
2.058932677679779,17.280985956057393,-0.03421919867373169,1.2378334451065538,-0.6622859034563322
2.0521534566267423,17.035407934869397,-0.033573011856633514,1.2179467667734045,-0.6408165638492783
2.045502820950227,16.793775059120875,-0.03293334490852118,1.198381990711821,-0.6202047000396927
2.0389794216675736,16.55602398040985,-0.03230064791801218,1.1791287963984038,-0.6004066597444333
2.0325818267032045,16.322093373252844,-0.031675301725679346,1.1601772751716644,-0.5813814269899962
2.0263085340008904,16.091923854805277,-0.03105762529746148,1.14151790930402,-0.5630904372047221
2.0201579832373415,15.865457908641385,-0.030447882338025933,1.1231415523348889,-0.5454974070193737
2.014128566281055,15.642639812350264,-0.02984628722484476,1.1050394105763142,-0.5285681774698164
2.008218636525098,15.42341556872167,-0.029253010334725375,1.0872030257096337,-0.5122705694234242
2.002426517208967,15.20773284031089,-0.028668182826580905,1.0696242583981614,-0.4965742501650631
1.9967505088325888,14.9955408871864,-0.02809190093720206,1.0522952728467228,-0.48145061018064916
1.99118889575481,14.786790507677303,-0.027524229840585588,1.0352085222442418,-0.46687264926772
1.9857399520591632,14.581433981949832,-0.02696520711588383,1.0183567350304743,-0.4528148711844183
1.9804019467611569,14.379425018253539,-0.02641484586417825,1.0017329019324452,-0.43925318612181874
1.975173148423742,14.18071870168827,-0.025873137509971025,0.9853302637202443,-0.42616482035058234
1.9700560451663702,13.98545333078107,-0.02529789506374543,0.9673234453517758,-0.44969158645535656
1.9650504102365047,13.793778162211897,-0.024758454234911,0.9494282403399368,-0.474897157006209
1.960149149143948,13.60567117411891,-0.0242541566906556,0.9316416405899408,-0.501671492670913
1.9553453056010328,13.421110934454408,-0.02378427873849646,0.9139607560550781,-0.5299070180438668
1.9506320739576364,13.240076577801922,-0.02334803769546866,0.8963828104697836,-0.5594983833668368
1.9460028104171423,13.062547783007108,-0.02294459770947277,0.878905137478369,-0.5903422314018896
1.9414510431391565,12.888504751544396,-0.022573075070382864,0.8615251771487459,-0.6223369684963589
1.9369704813276138,12.717928186543215,-0.022232543045044746,0.8442404728630558,-0.6553825388858209
1.9325550233964088,12.550799272398937,-0.02192203626700477,0.8270486685797411,-0.6893802012801578
1.9281987642988407,12.387099654894534,-0.021640554708675534,0.8099475064642796,-0.7242323067697122
1.9238960021019094,12.226811421759248,-0.021387067260639804,0.7929348248885876,-0.7598420770730244
1.919641243881856,12.069917083590187,-0.02116051493989285,0.7760085568020152,-0.7961133821243619
1.9154292110132667,11.91639955506199,-0.02095981374599996,0.7591667284799534,-0.8329505159677911
1.9112548439205292,11.766242136348055,-0.020783857181374838,0.7424074586593886,-0.8702579698844003
1.9071133063574779,11.619428494674683,-0.020631518449138894,0.7257289580743288,-0.9079402016298614
1.9029999892786367,11.475942645926455,-0.020501652339274076,0.7091295294079429,-0.9459013996001469
1.898910514363609,11.335768936217406,-0.020393096811003833,0.6926075676825704,-0.9840452406730932
1.8948407372548586,11.198892023337795,-0.0203046742764977,0.6761615611135363,-1.0222746403917622
1.8907867505684026,11.065296857980638,-0.02023519258806227,0.6597900924580491,-1.0604914940612156
1.8867448867368044,10.93496866464519,-0.020183445727919507,0.6434918408964424,-1.0985964072223242
1.8827117207443682,10.807892922106568,-0.02014821419644429,0.6272655844897806,-1.1364884138434737
1.8786840728155942,10.684055343331039,-0.020128265091294378,0.6111102032654927,-1.1740646804323
1.8746590111198476,10.56344185470535,-0.020122351866170972,0.5950246829913916,-1.2112201941137652
1.870633854557836,10.446038574435377,-0.020129213753945063,0.5790081197083374,-1.2478474325468252
1.86660617569899,10.331831789954233,-0.020147574834515448,0.563059725103116,-1.2838360133587585
1.862573803943242,10.220807934162316,-0.020176142722963725,0.5471788328160399,-1.3190723205632755
1.8585348289861192,10.112953560301452,-0.020213606848265807,0.5313649057926016,-1.3534391051957833
1.8544876046726002,10.008255315241644,-0.02025863628692495,0.5156175448054828,-1.3868150571474145
1.8504307533329762,9.906699910931831,-0.02030987710931197,0.49993649829266856,-1.419074344910783
1.8463631707031327,9.808274093734596,-0.020365949189124044,0.4843216736796663,-1.4500861196690038
1.8422840315424127,9.712964611328708,-0.020425442418075687,0.4687731503792204,-1.4797139798723666
1.8381927960747488,9.620758176821706,-0.02048691225856296,0.4532911946908137,-1.507815392165514
1.834089217393251,9.531641429667129,-0.02054887455641395,0.4378762768549542,-1.5342410642696236
1.8299733499852362,9.445600892926233,-0.02060979952373474,0.42252909055400645,-1.558834265215519
1.8258455595540624,9.362622926351612,-0.020668104788005435,0.4072505751922042,-1.5814300882044152
1.8217065343364993,9.282693674699164,-0.020722147387623707,0.3920419413322679,-1.6018546514014511
1.81755729814018,9.205799010594536,-0.02077021457556839,0.3769046997140315,-1.6199242322285072
1.8133992253555102,9.131924471190114,-0.020810513271130003,0.3618406943301681,-1.6354443313411497
1.8092340582310134,9.061055187748824,-0.020841157973838013,0.346852140082716,-1.6482086636299282
1.805063926741378,8.993175807181863,-0.020860156922516557,0.3319416655868994,-1.657998075539721
1.800891371424736,8.92827040445139,-0.020865396243903024,0.317112361717853,-1.6645793911305156
1.796719369621691,8.866322384629736,-0.0208546217865484,0.3023678364986922,-1.66770419415709
1.7925513656158105,8.807314373291366,-0.02082541827225661,0.2877122768849997,-1.6671075608186738
1.7883913052573872,8.751228093814849,-0.020775185311976876,0.27315051788016764,-1.662506768877468
1.7842436757547446,8.698044230109815,-0.020701109714449013,0.2586881191701785,-1.6536000252448244
1.7801135514487352,8.647742273290614,-0.020600133345646213,0.24433144902184023,-1.6400652783248457
1.7760066465596427,8.60030035094508,-0.02046891554527794,0.23008777443350478,-1.621559216928692
1.7719293761326798,8.555695037972377,-0.020303788724351624,0.21596535529351765,-1.597716609556499
1.767888926742804,8.513901148609207,-0.0201007051744065,0.20197353833816573,-1.568150213665421
1.7638933390072473,8.474891510411421,-0.01985517218115992,0.18812284363968648,-1.532451594697031
1.759951604685946,8.438636722880513,-0.01956217103185299,0.17442503166939569,-1.4901933537532872
1.7560737822757666,8.405104906518794,-0.019216053069942306,0.16089313194779145,-1.4409334905483948
1.7522711367711055,8.374261452925062,-0.01881040197666962,0.14754140398952278,-1.384222949295484
1.748556312078407,8.34606879385911,-0.018337844950316335,0.1343851866699896,-1.3196178361786681
1.7449435491040677,8.320486217929364,-0.017789784793075098,0.1214405726274796,-1.2466983757853223
1.7414489698724558,8.297469778590553,-0.017156007523043148,0.10872382076061718,-1.1650973697538778
1.738090959921335,8.276972356758037,-0.016424091988164486,0.09625039756455042,-1.074541605471697
1.7348907004286827,8.258943963728381,-0.015578502938358689,0.08403353273200274,-0.9749099524688027
1.731872932381992,8.243332388060598,-0.014599177528549714,0.0720822239458467,-0.8663108697270506
1.7290670846710068,8.230084284845642,-0.013459299581302526,0.06039880820371956,-0.7491779101842848
1.726508979772665,8.219146737013233,-0.012121749402114492,0.04897667012038245,-0.6243716427893491
1.724243479834458,8.210469111595675,-0.010533249979956586,0.037799584055186713,-0.4932573934743968
1.7223287754426475,8.204004563629507,-0.00861379393814782,0.026845895606493843,-0.3577022205436299
1.72084407750087,8.199709522913981,-0.00623318547962593,0.016104511548765025,-0.21991573817302115
1.719907261749385,8.19753638986996,-0.0031349720352255757,0.005626818891438073,-0.0820753126957357
