x,y,v_x,v_y,omega
2.375,32.48,0.0,3.6923076923076925,-3.4693877551020407
2.374011818389117,31.751512218440748,-0.009881816108831725,3.5925701232848075,-3.20721563910033
2.371218921053742,31.042489426057127,-0.018047157244916963,3.4976578005513863,-2.97500791953017
2.366935864135915,30.35200282059704,-0.02478341193335076,3.4072082540494746,-2.768375161410791
2.3614249210201543,29.679192428994767,-0.03032601922425946,3.3208956619732706,-2.5836821605891696
2.3549054462706875,29.0232602539106,-0.03486872827040768,3.238426088868379,-2.417901565344977
2.347561408334994,28.383464295192077,-0.038571651086526625,3.1595334983168826,-2.2684989368293786
2.339547480942021,27.759113306748173,-0.041567622843202465,3.0839763861221487,-2.1333418709748075
2.3309939931843884,27.149562176506052,-0.04396725473312384,3.011534916299053,-2.010627679390452
2.3220109707029155,26.554207838006008,-0.04586297008160478,2.942008468701379,-1.898825488865717
2.312691449211874,25.9724856384605,-0.047332244828812514,2.8752135267536927,-1.7966296186282942
2.3031142025489495,25.403866100934977,-0.04844022180042997,2.810981848501534,-1.7029218347126098
2.2933459974269317,24.847852028542928,-0.04924182941974858,2.749158875418963,-1.6167406336143793
2.2834434638611336,24.30397590679455,-0.04978350623823206,2.6896023420648056,-1.5372561235226354
2.273454652197503,23.771797566945494,-0.05010461039807192,2.632181056425775,-1.4637493869314084
2.263420333547658,23.250902078692704,-0.050238576100380745,2.57677382610211,-1.3955954493030611
2.2533750893344013,22.740897845110133,-0.05021386603218729,2.523268509723627,-1.3322491635275109
2.2433482268766296,22.24141487649946,-0.05005475854552686,2.4715611763831036,-1.2732334629865998
2.233364550974827,21.752103222998507,-0.04978200047250302,2.42155535862643,-1.2181295472621367
2.2234450159004235,21.272631548457376,-0.049413350271529835,2.3731613867848704,-1.166568651476621
2.2136072777398352,20.802685830350875,-0.04896403133435457,2.3262957942801448,-1.1182251185804775
2.20386616346235,20.34196817241696,-0.04844711144049519,2.28088078505899,-1.0728105478550902
2.1942340701885845,19.890195718352746,-0.04787382129715889,2.236843755583133,-1.0300688357111578
2.184721305791451,19.447099656308225,-0.04725382267417805,2.1941168648620963,-0.9897719589834831
2.1753363800539214,19.01242430513117,-0.04659543470111936,2.152636646908438,-0.9517163782381939
2.166086254050392,18.585926274365487,-0.04590582533417441,2.1123436607483748,-0.9157199605659664
2.156976554142612,18.16737369091469,-0.04519117374362247,2.0731821737596032,-0.8816193390569413
2.148011755932631,17.75654548607352,-0.04445680835618806,2.0350998746520848,-0.8492676405121355
2.139195342650842,17.35323073732107,-0.043707324461702605,1.9980476128724303,-0.8185325246239906
2.1305299417424917,16.95722805987271,-0.04294668462180222,1.9619791616111941,-0.7892944873901978
2.122017442823338,16.568345043518043,-0.042178304569734607,1.9268510019354343,-0.7614453893317381
2.1136590996822853,16.186397730738005,-0.0414051268407907,1.8926221258649638,-0.7348871755018165
2.1054556185978646,15.811210132504808,-0.04062968400341917,1.8592538564670131,-0.7095307595621255
2.097407234891865,15.44261377853146,-0.03985415305657501,1.8267096832664886,-0.685295048578048
2.0895137793554897,15.080447299058548,-0.03908040230717673,1.7949551114626212,-0.6621060888142077
2.081774735941475,14.724556035551114,-0.03831003183297085,1.7639575236117206,-0.6398963158321426
2.0741892919118987,14.374791677931594,-0.03754440846279386,1.7336860525834767,-0.6186038947123645
2.066756381459434,14.031011926200474,-0.03678469606184993,1.704111464727736,-0.5981721383323046
2.059474723674343,13.693080174497457,-0.03603188178906151,1.6752060523024286,-0.5785489934015224
2.052342855606174,13.360865215835869,-0.03528679889263056,1.6469435343134435,-0.5596865854446129
2.045359161064383,13.034240965903969,-0.03455014652527568,1.6192989650055616,-0.5415408151782409
2.0385218957129148,12.713086204471253,-0.033822506989409536,1.5922486493216006,-0.5240709997908102
2.031829208937722,12.397284333067493,-0.033104360762517236,1.5657700647160164,-0.5072395535335463
2.025279162901238,12.086723147718843,-0.032396099602322294,1.539841788770485,-0.49101170279671286
2.018869749142161,11.781294625630451,-0.03169803798844354,1.5144434321134355,-0.4753552314961177
2.0125989030312286,11.480894724799711,-0.031010423120883677,1.4895555761939525,-0.46024025315110634
2.0064713318755203,11.185423815517996,-0.03026528843620019,1.465153516623198,-0.4437333162176442
2.00049099979878,10.8947858434688,-0.02953803233120354,1.4412262038687875,-0.4279776591767432
1.9946543570130788,10.608887545877636,-0.028828395525807862,1.4177567720428372,-0.4129302288131731
1.9889579084496862,10.327638956602893,-0.028136090108119245,1.3947291207045995,-0.398550906548278
1.983398218939074,10.050953257404924,-0.02746080499800314,1.3721278712750955,-0.3848022766621115
1.9779719173724786,9.77874663763771,-0.026802210667951295,1.3499383263970477,-0.3716494152591564
1.972675699983903,9.51093816179705,-0.026159963217803776,1.3281464320095497,-0.359059697907534
1.9675063328734141,9.247449644403357,-0.02553370788708472,1.306738741927375,-0.34700262410903143
1.9624606538769378,8.988205531737293,-0.02492308207767816,1.2857023847332572,-0.3354496569574844
1.957535573874165,8.733132789983156,-0.024327717950047793,1.265025032808106,-0.32437407651954536
1.952728077614363,8.48216079936843,-0.023747244647975417,1.244694873339138,-0.3137508456276961
1.948035224129598,8.235221253918567,-0.023181290199673334,1.2247005811594784,-0.3035564869131335
1.9434541467959348,7.992248066474112,-0.022629483136959654,1.2050312932850835,-0.293768970028135
1.9389820530953548,7.753177278643005,-0.022091453868839154,1.1856765850259705,-0.28436760811565176
1.9346162241243516,7.517946975384522,-0.02156683584119212,1.1666264475588484,-0.2753329626798787
1.9303540138892084,7.2864972039428935,-0.021055266510242338,1.1478712668574205,-0.26664675609688704
1.926192848422787,7.058769896868654,-0.020556388153969856,1.129401803884977,-0.2582917910803536
1.9221302247531318,6.834708798884009,-0.020069848542582935,1.1112091759614875,-0.2502518764851079
1.9181637097502229,6.6142593973654265,-0.019595301486505703,1.093284839224329,-0.24251175889160065
1.9142909388737703,6.397368856232184,-0.019132407278020586,1.0756205721080854,-0.2350570594683456
1.9105096148419,6.183985953043912,-0.018680833040682614,1.0582084597746249,-0.2278742156576247
1.906817506237946,5.974061019123457,-0.018240252998857023,1.041040879429919,-0.2209504272729454
1.9032124460702415,5.767545882533579,-0.017810348678188797,1.0241104864688817,-0.21427360663545242
1.8996923302977762,5.5643938137473015,-0.017390809046463587,1.0074102013939081,-0.20783233241124122
1.8962551163328158,5.364559473862226,-0.016981330603139142,0.9909331974568404,-0.20161580684272828
1.8929022708679393,5.168171222589294,-0.01654712404562707,0.9729493152724848,-0.22984014703839964
1.889632709455484,4.975368784770758,-0.016148490078925975,0.9550750629128884,-0.25964678798901664
1.886439386440648,4.786130527591244,-0.015784740069434533,0.9373075088822602,-0.2909309608403801
1.8833153998556804,4.600435393353781,-0.015455125780240768,0.9196438334923669,-0.32359019078174106
1.880254002740722,4.418262877520618,-0.015158845369343784,0.9020813248392647,-0.3575240721114958
1.8772486133171806,4.239593007521879,-0.014895048866069599,0.8846173751481312,-0.39263404785792555
1.8742928241144143,4.064406322259419,-0.014662843161593565,0.8672494774764657,-0.42882319305359856
1.8713804101436433,3.8926838522349385,-0.01446129654611828,0.8499752227683304,-0.4659960007644334
1.868505336206825,3.724407100232632,-0.0142894428220647,0.8327922972547357,-0.5040581699701155
1.8656617634226595,3.55955802248738,-0.0141462850195889,0.8156984801977809,-0.5429163943813363
1.8628440550469194,3.3981190102697276,-0.01403079873781186,0.7986916419787573,-0.5824781512608864
1.8600467816599064,3.240072871818537,-0.01394193513231938,0.7817697425331612,-0.6226514892895973
1.8572647257900017,3.0854028145513723,-0.013878623566727725,0.7649308301384704,-0.6633448144840108
1.8544928860389898,2.9340924274811577,-0.013839773943392189,0.7481730405636637,-0.7044666731299015
1.8517264807720872,2.7861256637655067,-0.013824278725633082,0.7314945965928563,-0.7459255306437069
1.8489609514334098,2.641486823312306,-0.013831014661139042,0.7148938079391366,-0.7876295452117641
1.8461919655459509,2.5001605353615126,-0.013858844213451047,0.6983690715687927,-0.8294863349841092
1.8434154194540457,2.362131740958567,-0.013906616705600793,0.6819188724606764,-0.8714027375144614
1.8406274408657817,2.227385675229442,-0.01397316917703983,0.6655417848305596,-0.9132845600397446
1.8378243912528864,2.0959078493607777,-0.014057326951914148,0.6492364738560842,-0.9550363190798358
1.8350028681663477,1.9676840321807276,-0.01415790391347198,0.6330016979444126,-0.9965609677097802
1.832159707527411,1.8427002312270773,-0.01427370247589555,0.616836311592076,-1.037759608710986
1.8292919859557144,1.7209426731783743,-0.014403513241070415,0.6007392688949468,-1.078531191643319
1.8263970231992381,1.6023977835112895,-0.014546114323692986,0.5847096277759096,-1.1187721916949307
1.8234723847345082,1.4870521652328108,-0.014700270323605174,0.5687465550088661,-1.1583762679594607
1.8205158846102214,1.3748925765188815,-0.014864730919264126,0.5528493321304306,-1.1972338985594688
1.8175255886132224,1.265905907071307,-0.015038229050724584,0.5370173623453157,-1.2352319897793935
1.8144998178427159,1.1600791529819467,-0.015219478654340498,0.5212501785482819,-1.272253456090303
1.811437152786834,1.057399389866621,-0.015407171904477303,0.5055474526049883,-1.308176767642446
1.8083364380054117,0.9578537440004702,-0.01559997590974747,0.4899090060565102,-1.3428754614717122
1.8051967875341868,0.8614293611510071,-0.01579652880250209,0.4743348224381293,-1.3762176123163645
1.8020175911388994,0.7681133727639242,-0.015995435150370406,0.4588250614327032,-1.4080652585778473
1.7987985215631275,0.677892859109356,-0.01619526060734969,0.4433800751129625,-1.4382737785959794
1.7955395429314838,0.5907548089414689,-0.016394525709086043,0.4280004265659185,-1.466691212063503
1.7922409204903471,0.5066860751612197,-0.016591698702282068,0.4126869112365726,-1.4931575211073127
1.7889032318919904,0.4256733258998082,-0.01678518728128509,0.3974405813775132,-1.5175037853587108
1.7855273802553193,0.3477029903574902,-0.01697332908542417,0.38226277404565884,-1.5395513252900412
1.7821146092679752,0.272761198638257,-0.0171543807880182,0.3671551431466892,-1.559110748310081
1.7786665206310317,0.20083371471459088,-0.017326505581415252,0.3521196960900053,-1.5759809127332705
1.7751850941898017,0.1319058615376676,-0.017487758830885814,0.33715883567923793,-1.589947805985459
1.771672711143499,0.06596243717775963,-0.017636071632141776,0.3222754079198117,-1.6007833356002965
1.7681321807842456,0.002987620739133945,-0.017769231960390652,0.3074727564664316,-1.6082440351637708
1.7645667712842437,-0.05703513335191701,-0.017884863039628825,0.2927547844440806,-1.6120696930667875
1.7609802451319023,-0.11412321422945126,-0.017980398483783546,0.27812602433126243,-1.6119819207365635
1.757376899917778,-0.1682949883079985,-0.018053053657462174,0.2635917164542195,-1.6076826904217214
1.753761615296125,-0.21956994958777898,-0.018099792559066876,0.24915789634358942,-1.5988528927892183
1.7501399071082933,-0.26796888828751264,-0.018117289319249986,0.23483149065378225,-1.5851509947729947
1.7465179898669745,-0.31351407939200016,-0.0181018830939383,0.22062042039109342,-1.5662119230320113
1.7429028490927823,-0.3562294922922149,-0.01804952464798449,0.20653370861108208,-1.5416463649801955
1.739302325411696,-0.39614102187174893,-0.0179557121628791,0.19258158718428883,-1.5110407777756758
1.7357252129379988,-0.43327673990816606,-0.01781541257409308,0.1787755931798664,-1.4739585404919135
1.7321813754069906,-0.4676671631400495,-0.017622962735988252,0.16512863913894588,-1.4299428964819463
1.7286818849941756,-0.49934553025211414,-0.017371941392161926,0.15165503198172575,-1.378522639450395
1.7252391911152585,-0.5283480735723387,-0.0170549973970086,0.13837040122054,-1.3192219325914332
1.721867330337385,-0.554714261413551,-0.016663610381725345,0.12529147719156486,-1.2515762511872357
1.71858219484046,-0.5784869724897845,-0.016187744587524373,0.11243563357080118,-1.1751572226565616
1.7154018872972463,-0.5997125436291739,-0.015615330844611634,0.09982007782307914,-1.08961004974714
1.7123472072906187,-0.6184406062983641,-0.014931469221666173,0.08746054886881333,-0.9947079899175979
1.7094423428090133,-0.6347236004577468,-0.014117175594386596,0.07536939272503732,-0.8904283119106338
1.7067158870178,-0.6486158400624475,-0.013147382317745263,0.06355300332194201,-0.7770516162283126
1.7042023778217765,-0.6601720379084455,-0.011987709642491542,0.05200897513804577,-0.6552782759560376
1.7019446934978988,-0.6694453501406628,-0.010589133596284453,0.04072414718415257,-0.5263377044077397
1.6999979193068055,-0.6764854006086907,-0.008878608314647062,0.029676357496142003,-0.39203623180675495
1.6984360864767076,-0.6813376353962894,-0.006739719986333617,0.01884599037988073,-0.254657449358378
1.6973663679934965,-0.6840476807228626,-0.0039574648457773205,0.008254462885858443,-0.11662436835307516
