x,y,v_x,v_y,omega
2.375,32.48,0.0,2.051282051282051,-2.36734693877551
2.374619259477263,32.053266831630864,-0.0036261002165449184,2.012843361757302,-2.2559397861177946
2.373520381903204,31.634491043776876,-0.006839400488776774,1.9754974749473357,-2.152049379878525
2.3717854889778707,31.223448611599096,-0.009683389276303224,1.9391923553172572,-2.055000066369943
2.36948809033137,30.81992608547531,-0.012196597833228554,1.9038793220521226,-1.9641890109636204
2.36669405908443,30.423719916267338,-0.014413223566197689,1.8695127656428705,-1.879077207486911
2.3634624855671844,30.034635836902225,-0.016363667074237354,1.8360498949772168,-1.7991817316530285
2.359846425946271,29.65248829428911,-0.01807499598208347,1.8034505108619905,-1.7240690481402772
2.3558935599855757,29.277099926380355,-0.019571346500723782,1.771676802554734,-1.653349212886171
2.3516467700570987,28.90830107984867,-0.020874271865725005,1.7406931644137047,-1.5866708382675634
2.3471446517507517,28.545929364413038,-0.022003045337582048,1.7104660302113406,-1.5237167102586706
2.342421964945358,28.18982924032417,-0.02297492423759423,1.6809637230159786,-1.4641999643063104
2.3375100329490386,27.83985163592876,-0.02380538048925766,1.652156318845075,-1.4078607412556994
2.332437096256123,27.495853592583103,-0.024508302300410966,1.6240155225421196,-1.3544632567724968
2.3272286265674915,27.157697934489676,-0.02509617092465499,1.5965145545381492,-1.3037932277937596
2.321907605955396,26.82525296129304,-0.02558021585720616,1.5696280473345923,-1.2556556079680559
2.3164947754006953,26.498392161500142,-0.0259705513304216,1.5433319506930125,-1.2098725911079362
2.311008856372032,26.176993944989768,-0.0262762965616079,1.5176034446438655,-1.1662818476147574
2.3054667486380516,25.860941393051043,-0.02650568185725466,1.4924208595344528,-1.1247349638401631
2.299892503981102,25.550123395736122,-0.026582362494646523,1.4677505434648226,-1.0829618034922943
2.294307460163224,25.244433001480367,-0.02660853100895173,1.4435865446852016,-1.0431796871629624
2.2887216728407807,24.9437658424582,-0.026589443490507757,1.4199102079069033,-1.0052694826127464
2.283144147133685,24.648021375300978,-0.026529848958022535,1.396703765018991,-0.9691205355067254
2.2775829387770634,24.357102700371772,-0.026434040152659394,1.3739502819258238,-0.9346299706933505
2.272045245176829,24.070916391802953,-0.02630589889719213,1.3516336092057797,-0.9017020587535215
2.2665374874448716,23.78937233752813,-0.02614893664525919,1.3297383362687283,-0.87024764101493
2.2610653843664275,23.512383588604187,-0.025966330768494354,1.3082497487211973,-0.8401836070091727
2.255634019144194,23.23986621717747,-0.025760957062300537,1.2871537886760887,-0.811432419033272
2.2502478996689073,22.971739182500773,-0.025535418892810715,1.2664370177686552,-0.7839216790764727
2.2449110129826866,22.707924204455487,-0.025292073356913098,1.2460865826626384,-0.7575837338989312
2.2396268745279895,22.44834564407663,-0.02503305478305832,1.2260901828503046,-0.7323553145109563
2.234398572710256,22.192930390617718,-0.0247602958620214,1.2064360405678924,-0.7081772067081591
2.2292288092451185,21.941607754728377,-0.024475546663098428,1.1871128726639255,-0.684993949676418
2.224119935710512,21.694309367350087,-0.024180391761724863,1.168109864272174,-0.6627535599971337
2.2190739866792724,21.450969083965344,-0.02387626567865064,1.1494166441539506,-0.6414072786631724
2.214092709768162,21.211522893862643,-0.023564466808116927,1.1310232615860494,-0.6209093389637641
2.2091775929040933,20.975908834104587,-0.02324616999253842,1.1129201646811309,-0.6012167533164192
2.2043298890770937,20.7440669079092,-0.02292243788364794,1.0950981800368502,-0.5822891173190909
2.1995506388217776,20.515939007175376,-0.02259423121460076,1.0775484936186108,-0.5640884294693383
2.194840690644385,20.291468838902617,-0.022262418093899713,1.060262632788609,-0.5465789251517306
2.19020071959043,20.07060185527272,-0.021927782419959723,1.0432324494009082,-0.5297269236324413
2.185631244128363,19.853285187177313,-0.021591031504483535,1.0264501038886913,-0.513500686922891
2.1811326415071357,19.63946758099005,-0.021252802983396994,1.0099080502756916,-0.49787028948411777
2.1767051617298763,19.429099338395947,-0.020913671085742404,0.9935990220491121,-0.4828074978418172
2.1723510789874654,19.222274606950542,-0.020553783603882464,0.9761603250500008,-0.4952309472702264
2.1680704254796574,19.019099642455075,-0.020214345041909186,0.9588393368115758,-0.5096809904149725
2.163858867039044,18.81955007372595,-0.019895735344883685,0.9416327463229516,-0.5260427871498345
2.1597120027329195,18.62360221118977,-0.019598210427730165,0.924537373069254,-0.5442046324685826
2.1556253898531885,18.431233020052126,-0.019321912236377695,0.9075501615749568,-0.5640577130303321
2.151594566874773,18.242420094567862,-0.01906687803424119,0.8906681763703983,-0.5854958713501413
2.1476150745394595,18.057141633325806,-0.01883304896874593,0.8738885973634913,-0.6084153767158734
2.1436824752110897,17.875376415464522,-0.018620277968112924,0.8572087156010876,-0.6327147019363761
2.1397923706379216,17.69710377773869,-0.01842833701443856,0.8406259294068457,-0.6582943050440786
2.135940418248711,17.522303592358067,-0.018256923835187844,0.824137740884816,-0.6850564150872165
2.132122346100604,17.35095624552323,-0.01810566805154495,0.8077417527803122,-0.7129048211530316
2.128333966589239,17.183042616583634,-0.017974136818598427,0.7914356656920181,-0.7417446637633816
2.1245711890244356,17.01854405774464,-0.01786183998905346,0.7752172756317034,-0.7714822277780921
2.1208300311685364,16.857442374250617,-0.017768234829033502,0.7590844719304326,-0.8020247359288731
2.117106629828777,16.69971980497118,-0.01769273031153232,0.7430352354927598,-0.8332801420874366
2.113397250589997,16.54535900331711,-0.017634691010179945,0.727067637403168,-0.8651569233452424
2.1096982967695457,16.394343018411124,-0.017593440613166613,0.7111798378919536,-0.8975638699486597
2.106006317672351,16.24665527643702,-0.01756826507440261,0.6953700856709265,-0.9304098720917593
2.102318016220832,16.102279562088036,-0.017558415416252488,0.6796367176527454,-0.9636037025188973
2.098630256031604,15.961200000031994,-0.01756311019544346,0.663978159071482,-0.9970537938300543
2.0949400680087797,15.823401036306738,-0.017581537640981137,0.648392924026182,-1.0306680093128555
2.091244656522118,15.688867419554239,-0.017612857470082458,0.6328796164738203,-1.0643534060454949
2.0875414052373107,15.557584181995647,-0.01765620238522346,0.6174369317032361,-1.0980159889235923
2.083827882665364,15.429536620042427,-0.017710679252365035,0.6020636583274473,-1.131560454160379
2.080101847498357,15.304710274430022,-0.017775369957225572,0.5867586808383164,-1.1648899206926195
2.0763612537998752,15.183090909750625,-0.017849331933075314,0.5715209827749745,-1.197905647793379
2.0726042561201643,15.064664493249836,-0.01793159834988821,0.5563496505658585,-1.230506737046279
2.0688292146085967,14.949417172738467,-0.01802117795075359,0.5412438781138292,-1.2625898166735101
2.0650347001994653,14.83733525345501,-0.018117054517166584,0.5262029722048099,-1.2940487060311467
2.06121949995145,14.72840517369605,-0.018218185940119983,0.5112263588329,-1.3247740578902183
2.0573826226265197,14.622613479010926,-0.018323502868741202,0.49631359054922625,-1.3546529759112433
2.053523304600542,14.519946794732654,-0.018431906902474985,0.48146435495812756,-1.3835686044952908
2.0496410162057086,14.420391796589247,-0.018542268286413605,0.4666784845029091,-1.411399687959477
2.0457354686141027,14.323935179107455,-0.01865342306221439,0.4519559677046241,-1.4380200957448537
2.041806621382576,14.23056362148412,-0.018764169618993947,0.4372969620414323,-1.463298310129024
2.037854690791734,14.140263750558024,-0.018873264579500358,0.4227018086832942,-1.4870968726985778
2.0338801591264977,14.053022100466912,-0.01897941794655805,0.40817104932728837,-1.5092717856586981
2.0298837850626907,13.968825068519209,-0.01908128742303128,0.39370544541275104,-1.5296718639502918
2.0258666153437397,13.887658866747447,-0.0191774718050769,0.37930600003258125,-1.548138034154489
2.0218299979542538,13.80950946853985,-0.019266503332883773,0.36497398289691024,-1.5645025763568212
2.017775597023484,13.734362549667264,-0.019346838864924637,0.35071095874677627,-1.5785883056149943
2.0137054097220375,13.66220342293493,-0.019416849720281192,0.33651881965640124,-1.5902076905636535
2.0096217854505833,13.59301696559255,-0.019474810007851295,0.3223998216995795,-1.5991619081966602
2.0055274476606355,13.526787538533409,-0.019518883229749363,0.3083566264827083,-1.6052398362798013
2.0014255186963,13.463498896206975,-0.019547106906776097,0.2943923480547633,-1.6082169885786421
1.9973195481041628,13.403134086064998,-0.019557374923103107,0.28051060567834507,-1.6078544037341846
1.9932135449291302,13.345675336268158,-0.019547417220063798,0.26671558286300273,-1.6038975070437864
1.9891120146014476,13.291103930314371,-0.019514776376913307,0.25301209288736515,-1.5960749768487903
1.9850200011307937,13.239400067235927,-0.019456780486457055,0.23940565071684805,-1.5840976654873833
1.980943135467557,13.190542706089445,-0.019370511544368214,0.22590255067821266,-1.5676576514299476
1.9768876910851079,13.144509393690427,-0.019252768288481045,0.21250994836006165,-1.5464275380014403
1.9728606481056195,13.101276075014688,-0.01910002199236284,0.19923594378983425,-1.5200601703501189
1.968869767676769,13.060816886540117,-0.01890836304430803,0.1860896607298768,-1.4881890236216906
1.9649236788739404,13.023103934239657,-0.018673435077869553,0.17308131356022302,-1.4504296322211914
1.961031981260658,12.988107060260099,-0.0183903517152943,0.16022224814985597,-1.4063825969384411
1.957205367566019,12.955793605958526,-0.018053588233648336,0.14752493567463074,-1.3556389420362764
1.953455773021556,12.92612818450274,-0.01765683599933194,0.1350028877138049,-1.2977889195209507
1.94979656121419,12.899072484416518,-0.017192800261296548,0.12267044644068256,-1.2324357915648125
1.9462427616238138,12.874585137079883,-0.0166529101232394,0.11054238533677475,-1.159216665098172
1.942811382554987,12.852621696849411,-0.01602689053225259,0.09863323590580136,-1.0778330493175663
1.9395218368909193,12.833134801631193,-0.015302115792202468,0.08695624236295449,-0.9880942620471873
1.9363965400403094,12.81607460090433,-0.01446261611836993,0.07552185979764064,-0.8899766271185267
1.9334617744215652,12.801389546963048,-0.013487532631573478,0.06433579678600228,-0.7836995174638326
1.9307489711011796,12.78902761947025,-0.012348689467337103,0.05339684600253285,-0.6698137982699096
1.9282966546370193,12.778937945945469,-0.011006705429428509,0.042695282804913505,-0.5492865603228135
1.9261534845094135,12.771072509860222,-0.009404438643008056,0.032213632292691294,-0.4235469853011757
1.9243833033412359,12.765387060102114,-0.007454429625349476,0.02193350826070095,-0.2944369591190227
1.923074771540735,12.761839007028083,-0.005007777998468136,0.011857473396743071,-0.1640030350930839
1.9223671054739466,12.760374711775682,-0.0017318988280878183,0.002088195673736342,-0.0341084253549242
