x,y,v_x,v_y,omega
2.375,32.48,0.0,3.435897435897436,-4.204081632653061
2.3735302414154504,31.701099441624173,-0.012780509430866704,3.3371508978053943,-3.8649078595309105
2.3693917199733936,30.94431937474623,-0.023206633543538344,3.2435453359158473,-3.5671705227032464
2.3630778233169676,30.208525453856584,-0.03169681564277516,3.154662671820194,-3.3043969183328334
2.3549949310908747,29.492674145384633,-0.03858920371455718,3.0701313148924263,-3.071299501149843
2.3454789453483955,28.795802814759966,-0.04415849839395732,2.98961938619162,-2.8635306749227514
2.334808389643301,28.117021227503514,-0.04862894251990724,2.9128291986471035,-2.677493807604627
2.323214853740285,27.455504208271982,-0.052184413158492496,2.8394927077140415,-2.5101963536876926
2.3108913697061073,26.810485258722625,-0.054976317573488594,2.769367723149927,-2.3591348169291253
2.297999164925759,26.181250977079863,-0.057129810951274014,2.7022347259175774,-2.222204003063607
2.284673133648799,25.56713615380616,-0.05874872189186053,2.6378941721146045,-2.097624953393282
2.2710262908926455,24.967519441795265,-0.05991947598773512,2.5761641931975516,-1.9838873536756763
2.257153413829447,24.38181951806479,-0.060714237605295096,2.5168786218500427,-1.8797032382192886
2.2431340311363486,23.809491668455085,-0.061193437986865495,2.4598852877995823,-1.7839695656059424
2.229034886588399,23.250024738352224,-0.06140781895182568,2.405044539181798,-1.6957378054881247
2.214911976801659,22.70293840167176,-0.06140009223721686,2.3522279536918136,-1.614189098373012
2.2008122425741723,22.167780707795036,-0.061206292349623034,2.301317210453618,-1.5386138697073766
2.18677497730779,21.64412587223341,-0.060856883879788805,2.2522030987779047,-1.468395022775627
2.1728330034693935,21.131572281799663,-0.060377671236704095,2.2047846441242274,-1.4029940213310101
2.159013658174379,20.62974068921254,-0.05979054871994471,2.1589683348942477,-1.3419393166544789
2.1453396211505273,20.138272575519405,-0.05911412105267785,2.1146674363504,-1.284816685284386
2.1318296121122002,19.65682866162522,-0.058364218411035264,2.0718013801207773,-1.2312611306919714
2.118498979595747,19.185087552666126,-0.05755432521029745,2.0302952195235107,-1.18095007044339
2.105360199309948,18.722744501044478,-0.0566959381444768,1.9900791424038593,-1.1335975842073724
2.0924232968337906,18.269510275713504,-0.05579886599602405,1.9510880343872186,-1.088949540602116
2.0796962068874816,17.825110126816092,-0.05487148136318211,1.9132610864598354,-1.0467794548066531
2.0671850792861814,17.389282836085286,-0.05392093256116701,1.8765414416341528,-1.0068849559874826
2.0548945399613237,16.961779844538114,-0.05295332243759533,1.8408758761673454,-0.9690847653685443
2.0428279140243246,16.54236444996746,-0.05197385962326561,1.8062145114035382,-0.9332161033280522
2.030987416690821,16.130811067581583,-0.050986986755026636,1.7725105528214953,-0.8991324581137058
2.0193743169318426,15.726904547876973,-0.04999648941000425,1.7397200533055552,-0.8667016603105231
2.007989077932832,15.330439546473297,-0.0490055888422613,1.7078016980307462,-0.8358042166074507
1.9968314777912664,14.941219941202313,-0.04801702108439672,1.6767166086734726,-0.8063318641106308
1.9859007133439741,14.559058292237307,-0.04703310454423147,1.6464281649352674,-0.778186312775136
1.9751954895661068,14.183775341485095,-0.04605579787200685,1.6169018416057068,-0.751278148736852
1.9647140966089363,13.815199547846742,-0.045086749581650085,1.5881050595973734,-0.7255258756320746
1.9544544762301306,13.453166655293018,-0.044127340668832546,1.5600070495654603,-0.7008550745622187
1.9444142791072463,13.097519291001653,-0.04317872126929277,1.5325787268811801,-0.6771976663296052
1.9345909143041826,12.748106591070854,-0.04224184223560915,1.5057925768648892,-0.6544912620460906
1.9249815919741757,12.404783851561366,-0.041317482373146856,1.4796225493045638,-0.6326785902870145
1.915599332369015,12.067413590037102,-0.04026738375868405,1.454031898732501,-0.6077038914111869
1.9064556153662493,11.7358637519682,-0.03924319887406167,1.4290101714318706,-0.5839955741310152
1.8975445029576214,11.410006047718198,-0.038244735114006306,1.4045350829159606,-0.5614731655046575
1.8888601108270808,11.089717183514594,-0.03727171819504319,1.3805854753762408,-0.5400622753752315
1.8803966254739737,10.774878610499279,-0.03632380661458468,1.3571412464960593,-0.5196940643319538
1.8721483182481478,10.465376289537101,-0.0354006040447711,1.334183283609827,-0.5003047643527675
1.8641095567387533,10.161100470606566,-0.034501669949961636,1.3116934027426599,-0.4818352463178442
1.8562748138968541,9.861945485698353,-0.033626528675249644,1.2896542921113567,-0.4642306292882111
1.8486386752191208,9.567809554239076,-0.032774677218082776,1.268049459708439,-0.44743992705554464
1.8411958442745635,9.278594600140458,-0.031945591865023215,1.2468631846273714,-0.4314157280011319
1.8339411468173281,8.99420607964906,-0.031138733850068608,1.2260804718195577,-0.4161139047654011
1.8268695336951253,8.714552819239497,-0.030353554169085757,1.2056870100027415,-0.40149335063378766
1.819976082734066,8.439546862855543,-0.029589497666213046,1.185669132466422,-0.38751573989816873
1.813255999755862,8.169103327859439,-0.028846006492082694,1.1660137805431887,-0.37414530976257476
1.806704618861973,7.903140269100355,-0.028122523019995408,1.1467084695357919,-0.3613486616332957
1.8003174021008168,7.641578550559256,-0.027418492294406703,1.1277412569085545,-0.3490945798718948
1.7940899386182236,7.384341724069376,-0.026733364075968512,1.1091007125686567,-0.3373538662993651
1.7880179433775405,7.131355914650005,-0.02606659453866839,1.0907758910780612,-0.32609918892444084
1.7820972555238752,6.882549712026208,-0.02541764766711581,1.0727563056506133,-0.31530494353211064
1.7763238364566667,6.637854067939241,-0.024785996395566254,1.055031903801273,-0.30494712691244313
1.770693767665836,6.39720219888164,-0.02417112352470079,1.0375930445256811,-0.29500322063730716
1.7652032483790485,6.160529493917867,-0.02357252244736548,1.0204304768984422,-0.2854520844055207
1.7598485930609153,5.927773427275955,-0.02298969771031438,1.0035353199877386,-0.27627385807717847
1.754626228799158,5.698873475418257,-0.02242216543539983,0.986899043992263,-0.2674498716069422
1.7495374142700229,5.4738751073047744,-0.021828395687515406,0.969608504820626,-0.2771379107068628
1.7445816944483687,5.2528390192183565,-0.021264820152953764,0.9524444350612634,-0.2891273770678275
1.7397520994905276,5.0357365564893435,-0.02073165774131885,0.9354030669301632,-0.303291526017013
1.7350416246955658,4.822539913322721,-0.020228992649653183,0.918480786692634,-0.3195076839923197
1.7304432601092201,4.613222098204165,-0.01975678636204729,0.9016741273817722,-0.33765695261851525
1.7259500174799842,4.4077569009182795,-0.019314888674786444,0.8849797620607098,-0.3576239246992762
1.7215549547829676,4.206118861057391,-0.018903047821010776,0.8683944975991786,-0.37929641091308425
1.7172511985108394,4.008283237905591,-0.0185209197627114,0.8519152689382061,-0.4025651760530411
1.7130319639162255,3.814225981588411,-0.018168076712193698,0.8355391338198833,-0.4273236836944879
1.7088905733762392,3.6239237053834756,-0.017844014939861066,0.8192632679621503,-0.453467848210132
1.7048204730373246,3.437353659091759,-0.01754816192026425,0.8030849606614593,-0.48089579308039543
1.7008152478871594,3.2544937033726526,-0.017279882863781574,0.7870016108090316,-0.5095076144670226
1.696868635389969,3.075322284949049,-0.017038486677006068,0.7710107233092555,-0.53920514903064
1.692974537812162,2.8998184125909496,-0.016823231390880683,0.7551099058916034,-0.5698917449779027
1.6891270333566526,2.7279616337877286,-0.01663332909180827,0.7392968663103275,-0.6014720353209401
1.6853203862165511,2.5597320120201914,-0.016467950387336068,0.7235694099291391,-0.6338517123207961
1.681549055652035,2.395110104543857,-0.016326228434543164,0.7079254376911499,-0.6669373020671255
1.6778077041881327,2.234076940594452,-0.016207262555912497,0.6923629444775798,-0.7006359381181283
1.6740912050258179,2.0766139999253816,-0.01611012146421492,0.6768800178621698,-0.7348551330870601
1.6703946487542383,1.922703191584958,-0.016033846114740364,0.6614748372719389,-0.7695025470140116
1.6667133494480375,1.7723268328382566,-0.015977452200047527,0.6461456735689426,-0.8044857513032558
1.66304285023062,1.6254676281345368,-0.01593993229923547,0.6308908890720991,-0.8397119869364601
1.6593789283817966,1.4821086480162968,-0.015920257690532423,0.6157089380430338,-0.8750879155894504
1.6557176000666236,1.3422333078598356,-0.015917379832711707,0.6005983676653331,-0.9105193621839034
1.6520551247613557,1.2058253463297604,-0.01593023151744153,0.5855578195527049,-0.9459110472940746
1.6483880094523724,1.0728688034209277,-0.015957727691110615,0.5705860318284375,-0.9811663077011239
1.6447130126846914,0.9433479979506245,-0.015998765940897337,0.5556818418263655,-1.0161868032423111
1.6410271485383698,0.8172475043512613,-0.016052226635813297,0.5408441894724567,-1.0508722079378354
1.6373276906137053,0.694552128599053,-0.016116972709093992,0.5260721214163089,-1.0851198831928575
1.6336121761098497,0.5752468830969235,-0.01619184906356408,0.5113647959935115,-1.118824530664886
1.629878410086254,0.45931696030964986,-0.016275681576398065,0.49672148911322395,-1.1518778221560364
1.6261244700024644,0.3467477049258463,-0.01636727567394603,0.4821416011807388,-1.1841680036349316
1.622348710639257,0.23752458429407142,-0.016465414440902604,0.4676246651825467,-1.215579470214215
1.618549769513143,0.1316331568486646,-0.01656885622095752,0.45317035608187095,-1.2459923086079547
1.614726572907057,0.029059038204188425,-0.01667633165805243,0.43877850169617627,-1.2752818032716888
1.6108783426527722,-0.07021213544522453,-0.01678654011833609,0.42444909525521846,-1.3033179020923313
1.6070046038155543,-0.16619474703453818,-0.0168981454226884,0.4101823098692244,-1.3299646371556753
1.603105193449017,-0.2589032419143038,-0.017009770808071,0.3959785151722146,-1.3550794957920689
1.5991802706084768,-0.348352175250362,-0.01711999302271334,0.3818382964456748,-1.3785127368113894
1.5952303278346949,-0.4345562641475098,-0.01722733544495672,0.3677624765729898,-1.4001066466254948
1.5912562043472467,-0.5175304451943035,-0.017330260098071346,0.3537521412252438,-1.4196947298781997
1.5872591012184696,-0.5972899382245771,-0.017427158413032825,0.33980866773366275,-1.4371008293463488
1.5832405988357179,-0.6738503172025574,-0.017516340567417764,0.3259337581618314,-1.4521381703691811
1.5792026770024292,-0.747227589263332,-0.017596023200308435,0.3121294771492436,-1.464608326096172
1.5751477380784569,-0.8174382830779763,-0.017664315269016347,0.29839829515202954,-1.4743001016941346
1.5710786336187965,-0.8844995478615729,-0.0177192017715079,0.284743137748785,-1.480988338731338
1.566998695039438,-0.9484292644977259,-0.017758525005524443,0.2711674416960035,-1.4844326458602852
1.5629117689226373,-1.0092461704072946,-0.017779962966654572,0.2576752183871753,-1.4843760695346584
1.5588222576760173,-1.066969999926485,-0.017781004395258173,0.24427112525796166,-1.4805437301195765
1.5547351663874025,-1.1216216420559562,-0.017758919853566927,0.23096054543311553,-1.4726414663029592
1.5506561568809227,-1.1732233174569444,-0.017710728028866297,0.2177496754450132,-1.4603545570129677
1.5465916101966417,-1.2217987764375877,-0.01763315618227281,0.20464562003882628,-1.4433466292523451
1.54254869901327,-1.2673735192894213,-0.017522593238351827,0.19165649171623714,-1.421258918489186
1.5385354719563935,-1.309975039539239,-0.01737503334318176,0.1787915104560754,-1.3937101344295948
1.5345609523575847,-1.3496330892282913,-0.017186006646458894,0.16606109553566045,-1.3602973120513502
1.5306352549770614,-1.3863799628440105,-0.016950492314613732,0.1534769359053997,-1.3205982139788728
1.5267697256828332,-1.4202507924542402,-0.016662805896067147,0.1410520172270358,-1.274176120565827
1.5229771114434631,-1.451283840134046,-0.016316448359323405,0.12880057129301015,-1.220588230089985
1.5192717718299011,-1.47952076385166,-0.015903896106434428,0.11673789581669759,-1.1593994275222137
1.515669949522494,-1.5050068182780265,-0.015416297871017996,0.10487996876038226,-1.0902038876524138
1.5121901277214307,-1.5277909312785027,-0.014843022138226964,0.09324275298287073,-1.0126578216218707
1.5088535195427015,-1.5479255700221302,-0.014170962024636517,0.08184106217909276,-0.9265274580849013
1.5056847627599814,-1.5654662812979936,-0.01338344478162617,0.07068686195886789,-0.8317564871977747
1.502712939557425,-1.5804707717774633,-0.012458496110168873,0.05978696829739463,-0.7285553057962798
1.4999731171858512,-1.5929974188791505,-0.011366046251340977,0.04914039780426263,-0.6175077789092163
1.4975087370297946,-1.603103241809059,-0.01006334641002129,0.03873632332537679,-0.499675878190123
1.4953754437468927,-1.6108417426830641,-0.008487029963038233,0.028554988622490042,-0.3766559155567345
1.4936476525788025,-1.6162618818593728,-0.006537241063833952,0.018576656388914745,-0.25050925162533444
1.4924318746826697,-1.6194115681841552,-0.0040347406416692926,0.008811920348346604,-0.12348046376374042
