x,y,v_x,v_y,omega
2.375,32.48,0.0,3.435897435897436,-4.6938775510204085
2.373641803656634,31.768045828233582,-0.012935203270152844,3.3446184856874632,-4.346643334456813
2.3697973020720595,31.07480243602998,-0.023679097535318883,3.25769953529922,-4.0382286619313765
2.3638890896816656,30.39938876235511,-0.032589591897002765,3.1748116425567097,-3.7630596049295466
2.3562712434146205,29.740989222959172,-0.03996132493199745,3.095660161214123,-3.516503679479754
2.3472413208591876,29.09884700657466,-0.04603793750069839,3.0199799948288475,-3.29468952184571
2.3370500551683504,28.472258279309145,-0.05102173574536915,2.9475316934141413,-3.0943649946485112
2.3259092310528717,27.86056713956612,-0.05508135106871233,2.878098208900396,-2.9127847144399928
2.3139981149438498,27.26316119951993,-0.05835784996959298,2.8114821724918633,-2.7476202970725634
2.30146872900005,26.679467694402277,-0.060969635209454365,2.747503590533399,-2.5968882822883743
2.2884501954986596,26.10895004002329,-0.06301639813711839,2.685997879742673,-2.4588919157986067
2.2750523299370142,25.55110477370438,-0.06458232149760257,2.6268141804374086,-2.3321738658823103
2.2613686240686484,25.00545882530092,-0.06573868677254577,2.569813899595586,-2.2154776217769463
2.247478731336589,24.471567074062932,-0.06654600591373237,2.5148694455280998,-2.107715825377219
2.233450544727849,23.949010154313143,-0.06705577131236345,2.4618631235174893,-2.0079441701946967
2.2193419394606484,23.437392478744393,-0.06731189789907158,2.410686167613482,-1.9153397937547925
2.205202239014471,22.936340452870994,-0.06735191587404639,2.3612378883236746,-1.829183314450935
2.1910734519835633,22.44550085804773,-0.06720796061079072,2.313424919516893,-1.748843837995196
2.1769913184408187,21.964539383674857,-0.06690759693915577,2.2671605507009494,-1.6737663942608711
2.1629861974556905,21.493139291873987,-0.06647450768111257,2.2223641331168795,-1.603461371604528
2.14908382174389,21.031000200153496,-0.06592907052651543,2.1789605499353963,-1.5374955994867967
2.1353059408500283,20.577836969464215,-0.06528884274835386,2.1368797423434547,-1.4754847965067919
2.121670870553115,20.13337868664128,-0.06456896960320427,2.0960562845416555,-1.4170871537089729
2.1081939631640454,19.697367731586773,-0.06378252934031321,2.056429001691755,-1.3619978651766098
2.0948880109167223,19.269558920710608,-0.06294082539609948,2.0179406257003105,-1.309944451766374
2.0817635926319142,18.849718719146658,-0.062053634459216314,1.9805374844325403,-1.2606827511179999
2.068829372169808,18.43762451512395,-0.06112941756084145,1.94416922054565,-1.2139934691518985
2.0560923558151845,18.03306395062011,-0.06017550010223936,1.908788536633744,-1.1696792062064152
2.043558114603921,17.635834303074233,-0.05919822571931871,1.8743509638032045,-1.1275618855954765
2.0312309766574574,17.245741913502968,-0.05820308805652376,1.840814651161218,-1.0874805243399546
2.019114193807897,16.862601656859837,-0.05719484384405138,1.808140174011471,-1.0492892956582673
2.0072100861422437,16.486236450912692,-0.056177610114550504,1.7762903588184888,-1.0128558409030213
1.9955201675469996,16.11647680029732,-0.05515494793539541,1.7452301232326588,-0.9780597953270042
1.9840452548753098,15.753160372742816,-0.05412993465212502,1.7149263296673916,-0.9447914976143386
1.972785562972912,15.396131604762985,-0.053105226323092634,1.6853476510928864,-0.9129508577303634
1.9617407874738724,15.045241334372776,-0.05208311176299918,1.656464447861504,-0.8824463614953688
1.950910177002359,14.700346458623653,-0.05106555939427181,1.6282486545110963,-0.8531941935088536
1.9402925961840995,14.361309613961197,-0.05005425792248412,1.600673675607546,-0.8251174627529478
1.9298865806738519,14.027998877594609,-0.04905065169892185,1.573714289788527,-0.7981455174758516
1.9196903852374545,13.700287488234611,-0.04805597150486453,1.5473465612590707,-0.7722133378718892
1.909702025784124,13.378053584705317,-0.047071261383996255,1.5215477580675443,-0.7472609966940302
1.8999193161226986,13.061179961069474,-0.04609740205815009,1.4962962765595373,-0.7232331793067243
1.8903533081049588,12.749555363567438,-0.0450074362060384,1.4715570329836594,-0.6964345196617737
1.8810136636592734,12.443072645831961,-0.043941558514775735,1.4473259930685076,-0.6709056295768578
1.8718953314974884,12.141627047938787,-0.04289970016889171,1.4235844630569483,-0.6465709424016532
1.8629932831575773,11.845117642757607,-0.041881712592164846,1.400314633906674,-0.6233602424847576
1.8543025284358345,11.553447155671204,-0.04088737999586213,1.3774995288209773,-0.6012082263448947
1.8458181283573871,11.266521794924497,-0.03991643027506578,1.3551229544809995,-0.5800541046116326
1.8375352060093717,10.984251091857967,-0.038968544467936905,1.3331694556764369,-0.559841240513329
1.829448955519024,10.706547750340654,-0.03804336496394687,1.3116242730598748,-0.5405168211713054
1.8215546494224648,10.433327504772972,-0.037140502622331,1.2904733037751974,-0.5220315583807785
1.8138476446383476,10.164508986079593,-0.03625954294069126,1.2697030647331642,-0.504339415928837
1.8063233872330695,9.90001359515821,-0.03540005139528964,1.24930065832761,-0.4873973608246404
1.7989774161403997,9.639765383291387,-0.03456157805870687,1.2292537404040293,-0.47116513610290045
1.7918053659776185,9.38369093906654,-0.03374366158682957,1.2095504903087997,-0.45560505311364996
1.7848029690821985,9.131719281383589,-0.032945832655266724,1.1901795828621726,-0.44068180143367197
1.7779660568773181,8.883781758161344,-0.03216761691502154,1.1711301621115962,-0.42636227473149446
1.7712905606607656,8.639811950382548,-0.031408537528335966,1.152391816734071,-0.412615411091808
1.7647725118998117,8.399745581143911,-0.03066811733789153,1.1339545569672456,-0.39941204645933576
1.758408042104171,8.163520429401665,-0.029945880715830684,1.1158087929589109,-0.38672477999900917
1.7521933823400206,7.93107624812545,-0.02924135513321811,1.0979453144336015,-0.3745278502908903
1.746124862440058,7.702354686593683,-0.02855407248547286,1.0803552715832179,-0.3627970213864707
1.7401989099575723,7.4772992165823595,-0.02788357020486815,1.0630301570960539,-0.3515094778493566
1.7344120489063917,7.255855062216504,-0.02722939218732802,1.0459617892454076,-0.3406437279893249
1.728760898323198,7.037969133269396,-0.026591089557374055,1.0291422959651482,-0.33017951457551026
1.7232421706840004,6.8235899617093025,-0.02596822129212597,1.012564099845259,-0.3200977323831322
1.7178526702024457,6.61266764130707,-0.02536035472268103,0.996219903985535,-0.3103803519896185
1.712594310566367,6.405289169368668,-0.024719260859019425,0.9788131620944669,-0.32681679901838495
1.7074669062994374,6.201553969184918,-0.024113160730788064,0.9615220777507717,-0.345203738108803
1.7024631444234979,6.001438092208161,-0.023541714278157398,0.9443434172659407,-0.3654288120172101
1.6975757924350785,5.8049182556902466,-0.023004495135361108,0.927274073380878,-0.3873827667475704
1.6927977155876999,5.611971816691952,-0.02250099864919759,0.9103110599362098,-0.41095920796440394
1.688121892559223,5.422576747167973,-0.022030649241058655,0.8934515069588264,-0.43605436532082986
1.6835414296371103,5.236711610041915,-0.021592807160015787,0.8766926561464965,-0.46256686375598793
1.6790495735449045,5.054355536189373,-0.0211867746705139,0.8600318567348468,-0.49039750084332945
1.6746397230244778,4.875488202250207,-0.02081180171450314,0.8434665617333936,-0.5194490292921694
1.670305439280598,4.700089809193635,-0.02046709108435195,0.8269943245196688,-0.5496259437195381
1.666040455387083,4.528141061561872,-0.02015180313960229,0.8106127957828343,-0.5808342708177684
1.6618386847471847,4.359623147319567,-0.019865060097524638,0.7943197208105407,-0.6129813620453392
1.657694228694874,4.194517718237364,-0.019605949924481544,0.778112937115196,-0.6459756879641385
1.653601383318313,4.0328068707384475,-0.01937352985228998,0.7619903723982919,-0.6797266333353181
1.6495546455820111,3.8744731271369552,-0.019166829541060915,0.7459500428540234,-0.7141442920680067
1.6455487188199263,3.7194994171965874,-0.018984853907366192,0.7299900518161632,-0.7491392610900002
1.6415785176680813,3.5678690599366085,-0.018826585634014202,0.7141085887550604,-0.7846224321767211
1.6376391725021155,3.419565745610676,-0.018690987375183408,0.6983039286347622,-0.82050478073374
1.6337260334425663,3.274573517781441,-0.018577003668141596,0.6825744316436548,-0.8566971504783868
1.629834673988586,3.1328767554107024,-0.018483562560243437,0.6669185433157485,-0.8931100329067747
1.6259608943392414,2.9944601548808443,-0.018409576957322298,0.6513347950638452,-0.9296533403631408
1.6221007244605432,2.859308711858347,-0.018353945696945706,0.6358218051504033,-0.9662361714479276
1.6182504269559022,2.727407702904216,-0.01831555434725627,0.6203782801270353,-1.0027665674085304
1.6144064997978704,2.5987426667290485,-0.018293275729237776,0.6050030167793284,-1.039151258051112
1.610565678979795,2.4732993849820986,-0.0182859701571927,0.5896949046201866,-1.0752953955922302
1.60672494114745,2.3510638624538416,-0.01829248538895225,0.5744529289822663,-1.111102274734148
1.602881506272859,2.2320223065600153,-0.018311656273818096,0.559276174768473,-1.146473037096467
1.5990328404354552,2.116161105961776,-0.018342304082406356,0.5441638309290588,-1.1813063579681347
1.5951766587794736,2.003466808161022,-0.01838323549837307,0.5291151957448058,-1.2154981131570721
1.591310928721169,1.8939260958919455,-0.018433241247383016,0.5141296830083072,-1.248941023509166
1.587433873485169,1.787525762109052,-0.01849109433356899,0.49920682920971543,-1.281524274444191
1.5835439760561005,1.684252683347804,-0.018555547848035155,0.4843463018497729,-1.3131331076143546
1.5796399836397597,1.5840937912062891,-0.018625332307592512,0.46954790902178967,-1.3436483815338576
1.5757209127376117,1.4870360416642932,-0.01869915247476954,0.4548116104257866,-1.3729460977594554
1.5717860549495413,1.3930663819193114,-0.018775683602091055,0.4401375300026274,-1.4008968889297975
1.5678349836326977,1.3021717143766232,-0.01885356703451542,0.4255259704039356,-1.4273654647069398
1.5638675615592468,1.2143388573819607,-0.018931405093587123,0.41097742954523075,-1.4522100114248546
1.5598839497331367,1.1295545022295634,-0.01900775515508127,0.39649261952521686,-1.4752815410640618
1.5558846175459193,1.0478051659148946,-0.01908112281841736,0.38207248823354895,-1.4964231850789445
1.5518703544746777,0.9690771390290678,-0.019149954050552115,0.3677182440124207,-1.515469428664043
1.5478422835516286,0.8933564281105291,-0.019212626168961376,0.3534313837831726,-1.5322452813441343
1.543801876865647,0.8206286916781913,-0.019267437507054255,0.3392137250962253,-1.5465653804359358
1.5397509733915031,0.7508791690692398,-0.01931259558003081,0.32506744260808945,-1.5582330251393637
1.5356917994840582,0.684092601094946,-0.01934620353849181,0.3109951095280466,-1.5670391410378794
1.5316269924233126,0.6202531414113714,-0.01936624465908418,0.29699974460122086,-1.572761178003919
1.5275596274539294,0.5593442573831702,-0.01937056457313799,0.28308486519116793,-1.575161949472358
1.5234932488322968,0.5013486191058973,-0.019356850870981306,0.26925454697332274,-1.573988428568806
1.5194319054792658,0.4462479751587267,-0.019322609634076927,0.25551349061879625,-1.5689705278314006
1.5153801919432919,0.394023013607125,-0.019265138327578542,0.24186709558694017,-1.5598199059470772
1.51134329551599,0.344653206799137,-0.01918149431339167,0.22832154067959082,-1.5462288695104836
1.5073270505244027,0.2981166386540721,-0.019068457987440144,0.21488387022576724,-1.5278694738981586
1.5033380010745652,0.25438981351381074,-0.018922489153870372,0.2015620834910178,-1.5043929801295484
1.499383473876238,0.21344744634431834,-0.018739674639722332,0.18836522288512308,-1.4754299015269632
1.495471663299364,0.1752622353341593,-0.018515664187649147,0.17530345340213643,-1.4405909856807562
1.4916117315979256,0.13980462002858474,-0.0182455901117628,0.16238812093669594,-1.3994696383625513
1.4878139284496448,0.1070425314846375,-0.017923963681387708,0.1496317699580221,-1.3516465261664823
1.4840897358698026,0.0769411461276448,-0.017544537079015137,0.13704809058476947,-1.2966974178805741
1.4804520476086473,0.04946266281869782,-0.017100113027226846,0.12465175045284393,-1.2342057657331205
1.4769153970634532,0.024566134040114207,-0.01658227311747682,0.11245804743839598,-1.163782099718805
1.4734962557135343,0.0022073979123149456,-0.015980977834133166,0.10048229663585827,-1.085092979304913
1.4702134370195534,-0.0176608219896508,-0.0152839621085415,0.08873884528760498,-0.9979028637581043
1.4670886616170273,-0.03508855984065207,-0.014475803629802943,0.07723961043618346,-0.9021323923400119
1.4641473732010688,-0.05012788916700828,-0.01353646699837304,0.06599209743384504,-0.7979352147339295
1.4614199485961024,-0.06283175138252517,-0.012439005429877565,0.054997066523451606,-0.6857907600321166
1.4589435359108205,-0.07325232712546637,-0.011145877287092204,0.04424651198072515,-0.5665992860533263
1.4567649250720738,-0.08143918969221176,-0.00960279736763837,0.033723607702539606,-0.44174590646794765
1.454945264943791,-0.08743801918068783,-0.007727299092197388,0.023408101711503218,-0.3130754919176649
1.4535688037212071,-0.09129185400703932,-0.005381855408602592,0.01329508711086365,-0.18270641012721436
1.4527645925099013,-0.09305106077904668,-0.0022772989847853657,0.0034592630987153976,-0.052638472072205095
