x,y,v_x,v_y,omega
2.375,32.48,0.0,3.4871794871794872,-4.6938775510204085
2.373619378470515,31.75753417946753,-0.013148776471286594,3.3934473750344822,-4.341846119984128
2.369714453167265,31.05427531063129,-0.02404098832157011,3.3042561376916244,-4.029743873162047
2.363719881808682,30.369306218197806,-0.03305016747445438,3.2192590283415394,-3.75175934618132
2.35599890476766,29.701778707109987,-0.04048294720194791,3.138145839161505,-3.50307540859561
2.3468560141089063,29.050906425086527,-0.04659220192904187,3.060637799157153,-3.279676442569636
2.336547160146361,28.41595870073031,-0.051587359619008996,2.9864833851877575,-3.078197100339891
2.3252880194892898,27.796255186530527,-0.05564255140071682,2.9154548452863907,-2.8958027850287142
2.3132607268481,27.191161172829958,-0.05890309280108962,2.8473452851952348,-2.7300945475217073
2.300619381952228,26.600083466273624,-0.06149066811197835,2.7819662058174486,-2.579032925739856
2.2874945743324155,26.02246674705411,-0.06350749969575656,2.7191454057969815,-2.4408765879550596
2.27399711649994,25.457790335249047,-0.06503971775639217,2.6587251828226544,-2.314132624766113
2.260221135986787,24.905565308982123,-0.06616009665458619,2.600560781624237,-2.1975160650578722
2.2462466457427683,24.365331926932132,-0.06693028662178499,2.5445190474233046,-2.089916739320831
2.2321416882922147,23.836657315512454,-0.06740264147872534,2.4904772518117286,-1.990372028152728
2.2179641301933817,23.319133387315624,-0.06762172136730439,2.438322064348537,-1.8980443495526842
2.2037631684972574,22.812374962510447,-0.06762553288149609,2.3879486480817365,-1.8122024809325383
2.1895805991533366,22.316018069049875,-0.0674465561082264,2.3392598610665876,-1.732205998927133
2.1754518879657287,21.82971840099077,-0.06711259805946797,2.2921655490200976,-1.6574922655302111
2.161407077236757,21.353149917089162,-0.06664750412121453,2.2465819167095122,-1.5875655027659026
2.147471555243135,20.886003564230535,-0.06607175296090213,2.2024309676583878,-1.521987587448623
2.1336667108606973,20.42798611227247,-0.06540295544326843,2.159640003370761,-1.4603702681609767
2.1200104917462737,19.97881908858553,-0.06465627421790765,2.118141174600085,-1.4023685626053182
2.1065178813116736,19.53823780203264,-0.06384477754018773,2.0778710782846233,-1.3476751381676635
2.093201307137742,19.105990447371266,-0.06297973840201769,2.038770394680831,-1.296015514328036
2.0800709913602904,18.681837282131184,-0.06207088804990324,2.0007835599865884,-1.2471439543491536
2.0671352518229105,18.265549868942173,-0.06112663135371145,1.9638584703849498,-1.2008399369381744
2.054400761361687,17.856910377084013,-0.06015423018175552,1.9279462139784806,-1.1569051174415623
2.0418727714057825,17.455710937724387,-0.05915995987447588,1.893000827541785,-1.1151607034899396
2.0295553050995965,17.06175304791449,-0.05814924304157755,1.8589790754096198,-1.0754451825559261
2.017451324339479,16.674847018940582,-0.0571267641976382,1.8258402481513993,-1.0376123491737126
2.005562874441032,16.294811465092927,-0.05609656816852308,1.7935459789691246,-1.0015295880301676
1.9938912095876073,15.92147282932092,-0.05506214472123624,1.7620600760023875,-0.9670763761200422
1.982436901737131,15.554664942602255,-0.054026501473777216,1.7313483689372662,-0.934142972938764
1.971199935266949,15.194228614171262,-0.0529922268136707,1.7013785685007508,-0.9026292724868639
1.9601797893019413,14.840011250032461,-0.051961544281639814,1.6721201375830679,-0.8724437948582968
1.9493755093890819,14.491866497434845,-0.0509363596503543,1.6435441728704145,-0.8435027985244586
1.9387857699431816,14.149653913204173,-0.04991830173917283,1.6156232959931358,-0.8157294972228079
1.9284089286865584,13.813238654028208,-0.04890875784771544,1.5883315533017592,-0.7890533677081358
1.9182430741338978,13.48249118696637,-0.047908904558575334,1.5616443234776265,-0.7634095366025849
1.9082860670276942,13.15728701861309,-0.04691973454812502,1.535538232267909,-0.7387382362503717
1.8985355765053282,12.837506441485612,-0.04594207995059951,1.5099910737080675,-0.7149843208963355
1.8889891116726572,12.523034296334007,-0.0449766327415047,1.4849817372595928,-0.6920968357062546
1.879656741185016,12.213761182654835,-0.0439030861884114,1.4604764882563281,-0.6665804984912852
1.8705472338916338,11.909581719898508,-0.042854126129515134,1.4364707760896553,-0.6422659011826475
1.8616554449966807,11.61039292473135,-0.04182957763194352,1.4129463207404303,-0.6190819321282286
1.8529762734520157,11.316095562330126,-0.040829198983912754,1.3898857021283566,-0.5969624865543054
1.8445046748216642,11.026593971118576,-0.03985269273371941,1.3672723094102142,-0.5758460582581288
1.8362356719825716,10.741795897778037,-0.03889971525764019,1.3450902938330016,-0.5556753690240839
1.8281643639503984,10.461612341816025,-0.03796988504877015,1.323324524852816,-0.5363970318780424
1.820285933081506,10.185957409034494,-0.03706278989306173,1.301960549257022,-0.5179612447350045
1.8125956508696843,9.914748173292125,-0.03617799307667037,1.2809845530512332,-0.5003215113811877
1.805088882527922,9.647904546002863,-0.035315038749635305,1.2603833258941333,-0.48343438707065073
1.7977610905209902,9.385349152856314,-0.03447345655447764,1.2401442278825172,-0.46725924631453236
1.7906078371932894,9.127007217285485,-0.033652765614101875,1.2202551585063306,-0.4517580707034077
1.7836247866178911,8.872806450243356,-0.03285247796111873,1.2007045276091894,-0.4368952548346834
1.776807705776564,8.622676945882969,-0.032072101480092575,1.1814812282040215,-0.42263742862134634
1.770152465166527,8.37655108276589,-0.031311142425023024,1.1625746110062705,-0.4089532944391471
1.7636550389174277,8.134363430251568,-0.030569107566398118,1.1439744605586866,-0.3958134777293991
1.7573115044913559,7.896050659745523,-0.02984550601523685,1.1256709728322138,-0.38319038981656084
1.751118042029376,7.661551460507457,-0.02913985076552656,1.1076547341969984,-0.37105810182585136
1.7450709333999161,7.430806459741824,-0.028451659991231795,1.089916701666178,-0.35939222869826776
1.7391665609972393,7.203758146712964,-0.027780458129499468,1.0724481843229592,-0.3481698224001847
1.7334014063319814,6.9803508006449455,-0.027125776777719286,1.055240825848634,-0.33736927351369456
1.7277720484503136,6.760530422182892,-0.026487155428640104,1.0382865880756833,-0.32697022047325724
1.7222751622135104,6.54424466820786,-0.025864142064724694,1.021577735496051,-0.3169534657851836
1.7169075164655339,6.331442789811465,-0.025256293630289348,1.0051068206600782,-0.3073008986299565
1.711665972112598,6.122075573249472,-0.024663176397670687,0.9888666704065313,-0.29799542330424283
1.7065524355743666,5.916235548325766,-0.024037171585485722,0.9715145193430482,-0.31573531292267626
1.7015666529909927,5.714027504611291,-0.023446472065694,0.9542763731757402,-0.33536623248625264
1.6967012527870344,5.51542783377964,-0.02289067273390861,0.9371490633161893,-0.3567776590472941
1.6919489569697945,5.320413579945125,-0.022369287430280008,0.9201295446315597,-0.37986204983367183
1.6873025973498983,5.128962414274554,-0.02188175656873198,0.9032148903262615,-0.40451460321066623
1.6827551302258055,4.9410526106312105,-0.021427454136914204,0.8864022872293817,-0.4306330270944402
1.6782996496596425,4.756663022167679,-0.021005694112256904,0.8696890314709124,-0.45811731388769966
1.6739293994626099,4.575773058787352,-0.020615736335675344,0.8530725245322106,-0.48686952103231673
1.6696377839998715,4.398362665397329,-0.020256791880880406,0.8365502696584958,-0.5167935562916213
1.6654183779172218,4.224412300877717,-0.019928027953878,0.8201198686235195,-0.5477949668867713
1.6612649348848885,4.053902917694163,-0.019628572354058436,0.803779018838892,-0.5797807316170599
1.65717139544756,3.8868159420817747,-0.019357517525261884,0.7875255108029143,-0.612659055093111
1.6531318940640625,3.7231332547294187,-0.019113924222333177,0.7713572258861938,-0.6463391632045015
1.6491407654150452,3.5628371718937153,-0.018896824815925153,0.7552721344538336,-0.6807310989291862
1.64519255005253,3.405910426871767,-0.018705226255650673,0.7392682943266193,-0.7157455175708966
1.6412819994612313,3.252336151760897,-0.018538112709096367,0.7233438495864202,-0.7512934804820433
1.6374040805981507,3.102097859432252,-0.01839444789167226,0.7074970297340043,-0.7872862462931245
1.6335539799740506,2.955179425643056,-0.01827317709975666,0.6917261492107045,-0.8236350586246748
1.6297271073380828,2.81156507120955,-0.01817322895708001,0.6760296072988897,-0.8602509292037489
1.6259190990250056,2.6712393441590585,-0.01809351688174861,0.6604058884200799,-0.8970444152430999
1.6221258210231575,2.5341871017752986,-0.01803294027871132,0.6448535628538352,-0.933925389866761
1.6183433718206148,2.400393492445584,-0.017990385459789995,0.6293712879053446,-0.9708028042797676
1.6145680850868245,2.269843937212247,-0.01796472629059518,0.6139578095550134,-1.0075844402812653
1.6107965322474387,2.1425241109228814,-0.01795482456069744,0.5986119646294117,-1.0441766516081694
1.6070255250111858,2.018419922865114,-0.017959530070283357,0.5833326835398016,-1.0804840924697472
1.603252117909375,1.8975174967609973,-0.017977680423150757,0.5681189936422615,-1.1164094314908306
1.5994736109111587,1.7798031499839198,-0.018008100512243358,0.5529700232823009,-1.1518530491217265
1.5956875521809797,1.6652633718465921,-0.018049601679937324,0.5378850065970097,-1.1867127163952562
1.5918917410488405,1.5538848007921686,-0.018100980530912227,0.5228632891593907,-1.2208832527149527
1.5880842312691819,1.445654200301334,-0.01816101737059939,0.5079043345628306,-1.254256160142909
1.584263334650402,1.3405584333060503,-0.018228474236825356,0.4930077320589107,-1.2867192314213975
1.580427625144477,1.2385844348750439,-0.018302092486270773,0.4781732053792478,-1.3181561287105101
1.576575943494901,1.1397191829065534,-0.018380589890645248,0.4634006228920855,-1.3484459297576208
1.5727074025514414,1.043949666529823,-0.018462657189921572,0.44869000926726876,-1.3774626379387258
1.568821393372148,0.9512628518775763,-0.018546954041442708,0.4340415588493657,-1.4050746523353774
1.5649175922469212,0.861645644846714,-0.018632104294051925,0.4194556509683794,-1.4311441937478038
1.560995968792978,0.7750848504126786,-0.01871669050540708,0.40493286745099183,-1.4555266823159552
1.5570567952910612,0.6915671280038858,-0.01879924760808566,0.39047401263276243,-1.4780700622573153
1.5531006574525672,0.6110789423750695,-0.01887825561566708,0.37608013621310943,-1.4986140691802532
1.5491284668323755,0.5336065093420146,-0.01895213124330078,0.3617525593398112,-1.5169894355633453
1.5451414751305592,0.45913573565383814,-0.019019218297807745,0.3474929043571365,-1.5330170304050121
1.5411412906590034,0.38765215218288773,-0.01907777666939091,0.3333031286995217,-1.5465069298902387
1.5371298972871192,0.31914083950641015,-0.019125969729506198,0.31918556345737387,-1.557257417404408
1.5331096762254077,0.25358634483979614,-0.01916184990584067,0.3051429571770496,-1.5650539136563357
1.529083431058143,0.19097258916148263,-0.01918334216335051,0.2911785254735334,-1.5696678415002312
1.5250544164990214,0.13128276325006283,-0.01918822506637654,0.2772960070161647,-1.5708554359180555
1.5210263714193841,0.07449921124447201,-0.019174109025409482,0.2634997263703877,-1.5683565184819486
1.517003556792118,0.020603300255181978,-0.019138411234266857,0.24979466400379016,-1.5618932688315716
1.5129907993126923,-0.030424725475782566,-0.019078326665024584,0.23618653343394058,-1.551169045267683
1.5089935416128464,-0.078605907302844,-0.018990794285887905,0.2226818649190491,-1.5358673353821022
1.5050179001896677,-0.12396275300345394,-0.018872457363433716,0.20928809413435626,-1.515650959927365
1.5010707324609953,-0.16651943642457923,-0.018719616242971557,0.19601365273350077,-1.4901617149642297
1.4971597147725526,-0.2063020157642228,-0.018528171266005807,0.18286805526311412,-1.4590207274326596
1.4932934337969972,-0.24333866874684418,-0.01829355231071219,0.1698619731427843,-1.4218299299690074
1.489481494702109,-0.2776599404031401,-0.018010629545364545,0.15700728072670606,-1.378175248896715
1.4857346509260525,-0.30929899513071746,-0.017673596893271092,0.14431705001213935,-1.3276323667979133
1.4820649627150395,-0.3382918585123065,-0.017275814640186016,0.13180545838393978,-1.269776293679399
1.4784859953020733,-0.3646776251292536,-0.016809589292824723,0.1194875570155522,-1.204196481600294
1.4750130736347438,-0.38849859536571074,-0.0162658551579325,0.10737882618878498,-1.1305198481027874
1.4716636203536617,-0.4098002862853889,-0.01563369989999121,0.0954944206653136,-1.0484447658547085
1.4684576196083368,-0.42863123975563866,-0.014899640531676372,0.08384799333704329,-0.9577895861844037
1.4654182749396167,-0.4450425295446081,-0.014046499170418987,0.0724500046531619,-0.8585589649208298
1.4625729707018387,-0.4590868612994754,-0.013051636427466899,0.06130553586936854,-0.7510287981149018
1.4599547136353879,-0.47081719565139224,-0.011884145157778369,0.0504119341488984,-0.6358435435693802
1.457604347630547,-0.48028496510946184,-0.010500292983565602,0.039757298785096554,-0.5141050224082961
1.4555740741105874,-0.4875383031374838,-0.00883564530176092,0.029322111005614097,-0.38740860345474804
1.453933466437634,-0.4926214510115585,-0.006789189678747735,0.01908882112843982,-0.2577591287693267
1.4527817029695653,-0.49557837615737554,-0.004179986207621781,0.009072370736492658,-0.127296809322383
