x,y,v_x,v_y,omega
2.375,32.48,0.0,3.282051282051282,-5.673469387755102
2.373742498350563,31.863836676825333,-0.01323685946775912,3.203878435576754,-5.306034339593291
2.370157809500687,31.26221585634342,-0.024496707373038225,3.1289723063381274,-4.974245764000366
2.3645946501573953,30.674537956655435,-0.034062864661611306,3.057110848272224,-4.673616021710397
2.3573521006981983,30.100243555198446,-0.04217449806677739,2.9880933775908196,-4.400327163606718
2.3486872714794003,29.538809595314497,-0.04903423055215035,2.9217377790823464,-4.151116725501053
2.3388216612075263,28.989746078633335,-0.0548142986254699,2.8578781859825053,-3.9231853809805335
2.327946454278931,28.452593162615344,-0.05966156378079449,2.796363035259539,-3.7141218063493757
2.316226952442365,27.926918599013497,-0.06370161344622045,2.7370534237072524,-3.521841200495181
2.303806296483162,27.412315461548232,-0.06704213349276027,2.6798217075060538,-3.3445347116998074
2.290808602839393,26.908400120767325,-0.06977569433638461,2.624550300714022,-3.1806276311793305
2.2773416159586786,26.414810431614043,-0.07198206230271269,2.571130637741591,-3.0287446740257793
2.263498958196349,25.931204105176892,-0.07373012466917885,2.51946227212314,-2.88768102081349
2.2493620439635094,25.45725724082769,-0.07507949883439763,2.4694520894474117,-2.756378065052823
2.235001712776942,24.992662998754167,-0.07608188207683943,2.421013616589691,-2.6339030229388887
2.220479626176968,24.53713039596958,-0.07678218739656882,2.374066412721749,-2.519431727108254
2.2058494656579737,24.09038321139264,-0.07721950227705675,2.328535530193372,-2.412234056219117
2.191157962410201,23.652158987656268,-0.07742790033107651,2.284351035452673,-2.3116615551962987
2.1764457844994913,23.22220811901462,-0.07743713030797358,2.2414475818278303,-2.217136883016077
2.1617483028791855,22.800293016145112,-0.07727320253734928,2.1997640273249175,-2.128144790561521
2.14709625415127,22.386187339840006,-0.07695888933544454,2.1592430916761676,-2.0442243838809686
2.132516315126817,21.979675296594106,-0.07651415302722155,2.1198310477543663,-1.9649624708408697
2.1180316018636183,21.580550989954077,-0.07595651290118528,2.08147744319332,-1.8899878237766692
2.103662103889789,21.188617822228647,-0.07530136050753868,2.0441348486533144,-1.8189662189442097
2.089425062682449,20.80368794178804,-0.074562231148675,2.007758629668821,-1.75159613663703
2.075335302101214,20.425581731723398,-0.0737510381274817,1.9723067394326936,-1.687605024767176
2.061405517329357,20.054127336106212,-0.07287827526048925,1.937739530221897,-1.6267460443035042
2.0476465279123124,19.689160220495822,-0.07195319228734656,1.9040195814664247,-1.5687952278531851
2.034067499672255,19.33052276369858,-0.0709839470816812,1.8711115427150797,-1.5135489933628077
2.0206761395929163,18.978063878093792,-0.06997773796398651,1.8389819899668625,-1.460821963808534
2.007478867189612,18.63163865611494,-0.06894091891290155,1.807599294021062,-1.4104450511646163
1.9944809653881919,18.29110804071545,-0.06787910004941494,1.7769334996577741,-1.362263769148165
1.9816867135190952,17.95633851786119,-0.06679723541476083,1.7469562145975952,-1.3161367444475767
1.9690995046769824,17.627201829280157,-0.06569969976537396,1.7176405073080174,-1.271934400524997
1.9567219493927939,17.303574703867294,-0.06459035585766477,1.6889608128273672,-1.2295377917803627
1.9445559673053623,16.985338606291307,-0.06347261348372006,1.6608928458672594,-1.1888375689910866
1.93260286829712,16.672379501483242,-0.0623494813398827,1.6334135205334281,-1.1497330595918631
1.920863424367302,16.36458763380553,-0.06122361265820105,1.606500876074019,-1.1121314486111904
1.9093379333516236,16.06185731980659,-0.060097345401572036,1.5801340081253392,-1.075947047999288
1.898026275455702,15.764086753561699,-0.058972737713391295,1.5542930049787997,-1.0411006437193293
1.8869279634471583,15.471177823686887,-0.05785159921864736,1.5289588884402947,-1.0075189113744525
1.876042187245539,15.183035941189999,-0.056735518693135284,1.5041135588953793,-0.9751338923436252
1.8653678535575628,14.899569877392992,-0.05562588854871931,1.4797397442310052,-0.9438825234307603
1.8549119475047608,14.6206937617617,-0.05443628042814313,1.455798315045751,-0.9111900588057424
1.8446801219061149,14.346324660446331,-0.053267146926028096,1.4322974882739345,-0.879925244990822
1.8346684592869407,14.076380298309147,-0.052118775381067975,1.4092221131700986,-0.8500093368413238
1.8248729971027018,13.810781215859514,-0.05099135287407665,1.3865577020891817,-0.8213687542160144
1.8152897455610726,13.549450646745381,-0.04988497914307425,1.3642903938490554,-0.7939346891231455
1.8059147031332126,13.292314401976842,-0.04879967799229434,1.3424069195039872,-0.7676427467439662
1.7967438700235778,13.039300760441265,-0.04773540737228011,1.3208945703441803,-0.742432617074014
1.7877732598359888,12.79034036530306,-0.046692068286551626,1.2997411679527144,-0.7182477742680621
1.7789989096459307,12.545366125911801,-0.045669512661430225,1.2789350361657934,-0.6950352010802057
1.7704168886646783,12.30431312487049,-0.0446675502991222,1.2584649747953727,-0.6727451360612188
1.7620233056593837,12.067118529941343,-0.04368595501976675,1.2383202349851294,-0.6513308414153302
1.753814315274377,11.833721510490012,-0.04272447008556565,1.2184904960815126,-0.6307483896317014
1.7457861233822844,11.604063158190687,-0.04178281298909395,1.1989658439113662,-0.6109564671954039
1.737934991578888,11.378086411734294,-0.040860679678236714,1.1797367503664673,-0.5919161938514109
1.7302572409226913,11.155735985300161,-0.03995774828172931,1.1607940542033681,-0.5735909560455232
1.7227492550087018,10.936958300568289,-0.03907368239184382,1.1421289429742365,-0.5559462533003744
1.7154074824558248,10.721701422064687,-0.03820813395423059,1.1237329360110495,-0.5389495564046072
1.7082284388783011,10.50991499564644,-0.03736074580917627,1.1055978683915604,-0.5225701764006103
1.7012087084036989,10.301550189946248,-0.03653115392347928,1.0877158758209908,-0.5067791434523088
1.6943449447929382,10.096559640608252,-0.03571898934768422,1.0700793803684558,-0.4915490947606653
1.6876338722116073,9.894897397158083,-0.034923879929483176,1.0526810770017472,-0.47685417077189635
1.6810722856962976,9.696518872360425,-0.034145451810620266,1.035513920868329,-0.4626699189929051
1.6746570513547896,9.501380793926877,-0.033383330731568045,1.0185711152742676,-0.4489732047909489
1.6683851063345652,9.309441158445768,-0.032637143165532574,1.0018461003163688,-0.4357421286108539
1.66225345859025,9.12065918741374,-0.03190651730094442,0.9853325421260517,-0.42295594909382844
1.6562655266315842,8.93520352732067,-0.031124345421852315,0.9668323009588989,-0.45432187328345147
1.6504216911233534,8.753252744465026,-0.030389712559525196,0.9484390975215683,-0.4871019177210485
1.6447130556172818,8.574786764629312,-0.02970118750438475,0.9301501639069962,-0.5211889452259356
1.6391309977225155,8.399786029103282,-0.029057316651052146,0.9119628416301474,-0.5564777500158913
1.6336671730151584,8.228231474208847,-0.02845662763691579,0.8938745783112889,-0.5928648211097275
1.628313518292856,8.060104511418785,-0.02789763259784667,0.8758829247419768,-0.630248108804917
1.6230622542448052,7.895387007997005,-0.027378831065846397,0.8579855323294019,-0.6685267932178385
1.6179058876031414,7.734061268088542,-0.026898712530614176,0.840180150917572,-0.7076010538644475
1.6128372128377229,7.5761100141876305,-0.02645575868431665,0.8224646269867517,-0.7473718392413513
1.6078493134529226,7.421516368911501,-0.026048445366214503,0.804836902235681,-0.7877406353410056
1.6029355629421165,7.270263837006443,-0.02567524422121763,0.7872950125543985,-0.828609231999601
1.598089625453132,7.122336287510866,-0.02533462408388144,0.7698370873990423,-0.8698794859316294
1.5933054562159679,6.9777179359974895,-0.025025052096794502,0.7524613495838626,-0.9114530792504535
1.5885773017826494,6.836393326813582,-0.024744994569715167,0.7351661155099016,-0.9532312722087116
1.5838997001281259,6.698347315233967,-0.024492917583162944,0.7179497958544674,-0.9951146488152132
1.5792674806606697,6.563565049436477,-0.024267287337428563,0.7008108967507094,-1.0370028538951537
1.5746757641903295,6.432031952203381,-0.024066570245101254,0.6837480214924166,-1.0787943200569605
1.5701199629046372,6.3037337022450615,-0.0238892327621866,0.666759872805681,-1.1203859829107072
1.5655957804020115,6.178656215033559,-0.023733740949663146,0.6498452557364502,-1.161672982748603
1.561099211835177,6.056785623023519,-0.023598559753857044,0.6330030812113605,-1.2025483507463017
1.5566265442194867,5.938108255126256,-0.023482151990251773,0.6162323703387651,-1.2429026775734675
1.552174356964345,5.822610615288937,-0.02338297701124013,0.5995322595277404,-1.2826237621120036
1.5477395226900654,5.710279360014852,-0.02329948903380633,0.582902006515277,-1.3215962377696913
1.5433192083975318,5.601101274642321,-0.023230135098127845,0.5663409974060923,-1.3597011736451368
1.5389108770640691,5.49506324817839,-0.02317335262253102,0.5498487548458063,-1.3968156475469966
1.5345122897460957,5.392152246458682,-0.02312756651403152,0.5334249474669178,-1.4328122875975813
1.5301215082775226,5.292355283376324,-0.023091185786737696,0.5170694007684341,-1.4675587788608038
1.525736898662688,5.1956593898899435,-0.023062599632572716,0.5007821096145132,-1.5009173311320818
1.5213571352739994,5.102051580482847,-0.023040172879940774,0.4845632525654478,-1.532744103721696
1.5169812059776389,5.0115188167019475,-0.02302224076595926,0.4684132082861246,-1.5628885827667691
1.5126084183259048,4.924047967355026,-0.023007102936504226,0.4523325743130532,-1.5911929063412957
1.5082384069722807,4.8396257648876535,-0.02299301657532721,0.4363221885014,-1.6174911324299333
1.5038711424855085,4.758238757395791,-0.0229781885485912,0.42038315351819666,-1.6416084447362511
1.4995069417621676,4.6798732556558775,-0.02296076643394456,0.4045168647966855,-1.6633602913785062
1.4951464802640415,4.604515274470419,-0.022938828283174152,0.3887250424186812,-1.6825514518861857
1.4907908063374768,4.53215046753337,-0.02291037094382008,0.3730097674449755,-1.6989750286947027
1.4864413579078128,4.462764054915944,-0.022873296736854235,0.35737352326475974,-1.7124113607560325
1.4820999818837675,4.396340742160884,-0.022825398253097866,0.34181924257796514,-1.7226268592476968
1.477768956655845,4.3328646298542495,-0.022764340988191852,0.32635036064976797,-1.7293727691180518
1.47345101813126,4.2723191124229665,-0.02268764348112498,0.31097087546898944,-1.7323838660006368
1.4691493898183898,4.2146867647925355,-0.0225926545490866,0.29568541537764237,-1.731377106806143
1.4648678175604868,4.1599492154465665,-0.02247652711304985,0.28049931457994,-1.7260502654267267
1.46061060962759,4.108087004381829,-0.02233618797007453,0.26541869662781364,-1.7160806044563768
1.4563826830170412,4.059079424486544,-0.022168302667281366,0.25045056542780975,-1.7011236625417845
1.4521896170021122,4.0129043450441735,-0.02196923433197083,0.23560290238662304,-1.6808122791425015
1.448037715229638,3.969538016470775,-0.02173499485196633,0.22088476680704097,-1.654756040193773
1.4439340780410879,3.9289548561692307,-0.021461186080140967,0.20630639426183878,-1.6225414181898279
1.4398866872422413,3.8911272167371145,-0.02114292759192611,0.1918792839709551,-1.5837330109553325
1.435904506381394,3.856025140006306,-0.020774765680153923,0.17761626056387297,-1.5378764720271962
1.431997600890822,3.8236161039704797,-0.02035055527323447,0.16353148718167673,-1.4845039948849523
1.428177284491686,3.7938647751993066,-0.019863301559774726,0.14964039462015624,-1.4231435909410886
1.4244563015372094,3.766732787671671,-0.01930494006629612,0.13595947409181053,-1.3533339148632102
1.4208490602567143,3.7421785810480976,-0.018666020781021947,0.12250585878792597,-1.2746470519178148
1.4173719404339225,3.7201573480636405,-0.017935240511523582,0.10929659368003042,-1.186722444281132
1.4140437129328776,3.700621161816958,-0.017098733183683996,0.0963474720745157,-1.0893157972306828
1.4108861308522416,3.6835193762065543,-0.016138972928273675,0.08367132382446875,-0.9823668243809897
1.4079247879239478,3.6687994065359355,-0.01503305789587255,0.07127572533995045,-0.866087829590426
1.4051903974108115,3.6564079777338243,-0.013750000137140414,0.059160367313867604,-0.7410690515304484
1.4027207415269083,3.646292824324444,-0.01224637758815761,0.04731493173225652,-0.608383059860931
1.4005637276626426,3.638404550303541,-0.01045903150937661,0.03571953164566531,-0.469647103038769
1.3987824542227638,3.6326977555084454,-0.008291215226187743,0.024351992513234475,-0.32697461622465573
1.3974648180961329,3.6291291686943232,-0.005578638738347557,0.013212079214359186,-0.182735331808662
1.396748916939825,3.6276451909875824,-0.001957162907000268,0.0024087387513248276,-0.03908754854866234
