x,y,v_x,v_y,omega
2.375,32.48,0.0,2.1025641025641026,-3.3469387755102042
2.374449913150065,32.04266373101475,-0.005238922380332853,2.0625432211049524,-3.186139220362824
2.372863067969479,31.613608025266448,-0.00987388886334192,2.023701595545521,-3.0364661233770005
2.3703594999279396,31.192591416903635,-0.013969616294177846,1.9859803888621936,-2.896894744024588
2.3670464444259247,30.779384367143386,-0.017583293248821047,1.949324846949713,-2.7665136580126246
2.3630198157894093,30.37376844699898,-0.020765550908468225,1.9136839163303374,-2.6445103499846705
2.358365496969169,29.97553559540839,-0.023561294998582304,1.8790099083419287,-2.530158870429268
2.35316046680693,29.584487443738098,-0.0260104208322651,1.845258202803747,-2.422809227366251
2.3474737875088603,29.200434698976657,-0.02814842962554179,1.8123869854004468,-2.3218782415071018
2.341367471479282,28.82319657903773,-0.030006961132350983,1.7803570140178917,-2.2268416404372835
2.3348972437729483,28.45260029450919,-0.03161425511844268,1.7491314100634785,-2.1372272053369383
2.3281132140115783,28.08848057195023,-0.03299555213270165,1.7186754714503834,-2.052608814681142
2.321060469591263,27.73067921448053,-0.03417344234649261,1.6889565044515276,-1.972601254667962
2.3137796003114195,27.379044695946835,-0.03516816984249222,1.6599436720598635,-1.8968556869243647
2.306307163126406,27.033431785411715,-0.03599789858620585,1.6316078568460683,-1.825055681210048
2.2986760945120226,26.693701199100094,-0.036678945360302806,1.6039215365979143,-1.7569137350674795
2.2909160769136694,26.359719277274035,-0.03722598414782383,1.5768586712693153,-1.6921682142006504
2.2830538648705843,26.03135768379384,-0.03765222578632039,1.550394599970648,-1.6305806572428396
2.275113575666442,25.708493126372126,-0.03796957615789328,1.5245059469028255,-1.5719333968459395
2.2671169487201857,25.39100709574275,-0.0381887757112132,1.4991705352816918,-1.516027455973627
2.2590966712361307,25.078788273734126,-0.03819481937502352,1.4743420552766497,-1.4595453638461393
2.251081752879182,24.77172953013329,-0.038137736405436586,1.4500269313979715,-1.4057653248269601
2.243084739658114,24.469725062886234,-0.03802429427140702,1.4262060900025468,-1.3545250423161144
2.235116825602831,24.172672978912523,-0.03786060149318857,1.402861376413772,-1.305673819486071
2.227187984186952,23.880475107011293,-0.03765217389613406,1.3799754988360042,-1.2590715985045502
2.2193070865828526,23.59303682211099,-0.03740399376195704,1.357531976405017,-1.2145880900414487
2.2114820081547943,23.310266880032053,-0.03712056269574408,1.3355150910133962,-1.172101983578113
2.2037197244345577,23.032077262004066,-0.036805948925557,1.3139098425864704,-1.1315002301374089
2.1960263976827026,22.758383028243227,-0.036463829663539164,1.2927019075167796,-1.0926773900134532
2.188407455014515,22.48910217995462,-0.036097529081103086,1.2718775999937584,-1.0555350389197775
2.1808676589606386,22.224155529176244,-0.035710052384388305,1.2514238359907814,-1.0199812267105444
2.173411171236351,21.963466575929303,-0.03530411641834924,1.231328099694352,-0.9859299834752475
2.1660416104087994,21.706961392182457,-0.03488217717737875,1.2115784121803965,-0.9533008683750618
2.1587621040767644,21.45456851217665,-0.03444645455628824,1.1921633021606388,-0.9220185570889284
2.151575336111481,21.206218828692776,-0.03399895463688828,1.1730717786381457,-0.8920124641783667
2.1444835894485887,20.961845494876584,-0.033541489771608826,1.1542933053255744,-0.8632163970694509
2.137488784869497,20.721383831264674,-0.03307569669593443,1.135817776692612,-0.8355682386949097
2.1305925161645103,20.48477123768227,-0.03260305287536536,1.1176354955207592,-0.8090096561445157
2.1237960820292803,20.25194710970791,-0.0321248912696835,1.0997371518540995,-0.783485832942704
2.117100515009868,20.02285275942259,-0.031642413677101175,1.0821138032441682,-0.7589452228129099
2.1105066077794516,19.79743134018142,-0.031156702803053948,1.0647568561955847,-0.7353393230021
2.104014937000951,19.575627775164563,-0.030668733182665553,1.047658048726849,-0.7126224654295812
2.0976258850042107,19.35738868948163,-0.030179381072004186,1.0308094339677116,-0.6907516240941631
2.0913396594835016,19.14266234561933,-0.029689433410939305,1.0142033647208821,-0.6696862373255603
2.085156311400655,18.931398582036866,-0.029199595949501136,0.9978324789216152,-0.6493880436016366
2.079079261505833,18.723692924046798,-0.028677069715474096,0.9803166447933148,-0.657159807390053
2.0731095959139973,18.519652886379742,-0.028176888302007486,0.9629218091786543,-0.6671012536513576
2.067242582214857,18.319253421564145,-0.027699432642185676,0.9456445223984538,-0.6790913002509209
2.0614734215640222,18.122470191979776,-0.02724495450862182,0.928481473643163,-0.69301230668564
2.055797274703408,17.929279541319794,-0.02681358702103682,0.9114294850233592,-0.7087498130737551
2.050209285859973,17.739658467254003,-0.026405354345011327,0.8944855060793931,-0.7261922880203454
2.044704604686612,17.55358459519907,-0.02602018063937752,0.8776466087294831,-0.7452308843575662
2.0392784063974485,17.371036153105464,-0.0256578983050389,0.8609099826382197,-0.7657592017908718
2.033925910239136,17.191991947174493,-0.02531825558365224,0.844272930990037,-0.787673055508138
2.0286423964300457,17.016431338421796,-0.025000923550541405,0.8277328666547392,-0.8108702498278825
2.0234232216902863,16.844334220005905,-0.02470550254240498,0.8112873087346909,-0.8352503559757277
2.01826383347737,16.675680995242754,-0.024431528056798834,0.7949338794857889,-0.8607144930848755
2.0131597830349217,16.510452556228024,-0.024178476156991875,0.7786703016068826,-0.8871651115165701
2.0081067373551167,16.348630262990334,-0.02394576841258142,0.7624943958949142,-0.9145057775902178
2.003100490149461,16.190195923098464,-0.0237327764031878,0.7464040792657468,-0.9426409587997887
1.998136971917118,16.035131771645496,-0.023538825809600504,0.7303973631434729,-0.9714758085731019
1.9932122591951509,15.883420451531912,-0.023363200113895612,0.7144723522239831,-1.0009159496032656
1.9883225830708295,15.735044993968106,-0.023205143927261522,0.6986272436217695,-1.0308672547465083
1.9834643370325062,15.589988799114519,-0.02306386596153197,0.6828603264123849,-1.0612356244374461
1.978634084232486,15.44823561677461,-0.022938541657706653,0.6671699815867307,-1.091926759520951
1.9738285642328155,15.309769527052069,-0.02282831548201368,0.6515546824374642,-1.1228459283386385
1.9690446993029869,15.174574920878886,-0.022732302897307276,0.6360129954023642,-1.1538977268369242
1.964279600337219,15.04263648031521,-0.02264959201476884,0.62054358139455,-1.1849858303819298
1.9595305724582324,14.913939158514996,-0.022579244927959055,0.6051451976550989,-1.2160127358735269
1.9547951203743337,14.788468159243365,-0.022520298728218823,0.5898167001699509,-1.2468794926457756
1.9500709535571645,14.666208915822004,-0.02247176619720099,0.5745570467001373,-1.2774854205232866
1.9453559913087246,14.547147069367831,-0.022432636168892885,0.5593653004824473,-1.3077278132720118
1.9406483677882602,14.43126844617716,-0.022401873549816972,0.5442406346668026,-1.3375016255383163
1.9359464370724064,14.318559034092612,-0.02237841898212382,0.5291823375669967,-1.3666991412118212
1.9312487783256373,14.209004957672686,-0.02236118812996286,0.514189818813261,-1.395209620975919
1.9265542011626904,14.102592451963897,-0.022349070564769046,0.4992626165085327,-1.4229189266262658
1.9218617512903038,13.99930783465242,-0.022340928219866184,0.4844004055055417,-1.449709119544343
1.917170716522425,13.899137476345732,-0.022335593378978332,0.4696030069391158,-1.4754580305143843
1.9124806332711721,13.802067768704521,-0.02233186615676339,0.45487039916766764,-1.500038797874048
1.9077912936253782,13.70808509011043,-0.022328511422225236,0.44020273029987195,-1.5233193708020643
1.9031027531397375,13.617175768515683,-0.022324255107686826,0.4256003325072495,-1.545161974384537
1.8984153394705716,13.529326041075585,-0.02231777983675058,0.4110637383508391,-1.5654225329874045
1.8937296620093296,13.444522010113815,-0.022307719794125862,0.3965936993803146,-1.5839500484274986
1.889046622682396,13.36274959491275,-0.022292654748097846,0.3821912072965083,-1.6005859295244411
1.8843674281059948,13.283994478756338,-0.0222711031223923,0.36785751800266614,-1.615163269895975
1.8796936033083775,13.208242050581074,-0.022241513997771342,0.3535941789046079,-1.6275060714242644
1.8750270072586708,13.135477340511517,-0.02220225790419667,0.3394030598530825,-1.6374284118043936
1.8703698504734418,13.065684948471265,-0.02215161624084088,0.3252863881493224,-1.644733556180247
1.865724715009275,12.998848964970204,-0.022087769132174986,0.31124678805126155,-1.6492130153502695
1.8610945771937735,12.934952883077361,-0.022008781491651093,0.29728732521389173,-1.6506455567760785
1.8564828335003822,12.873979500501747,-0.02191258701683755,0.2834115564586306,-1.6487961802072197
1.8518933300371183,12.815910810630562,-0.02179696977615111,0.26962358517170404,-1.6434150779412786
1.8473303961998653,12.760727881330531,-0.0216595429595915,0.25592812244764396,-1.6342366117081706
1.8427988831437483,12.708410720327489,-0.021497724241523512,0.24233055377180318,-1.6209783555284658
1.8383042078610226,12.658938126078759,-0.021308707022530803,0.22883701050180003,-1.6033402789733626
1.8338524038361594,12.612287523297983,-0.021089426547593156,0.2154544445532212,-1.5810041813604623
1.829450179502457,12.568434782767056,-0.020836519487670662,0.20219070336038006,-1.5536335392445517
1.8251049860877835,12.527354025899683,-0.020546274937790026,0.18905460013841077,-1.5208740036768866
1.82082509697117,12.48901741588881,-0.020214573791863016,0.17605597139371487,-1.4823548891494722
1.8166197014752035,12.453394939439779,-0.019836811884008883,0.16320570907324528,-1.4376921449604871
1.8124990172499924,12.420454186432128,-0.01940779978466553,0.15051574814248592,-1.3864935070926574
1.8084744273179814,12.390160139862175,-0.018921628139251377,0.13799898109516828,-1.3283668115538994
1.8045586508548164,12.36247499571488,-0.018371481033747927,0.1256690584028897,-1.2629328223206713
1.8007659615331062,12.337358042656202,-0.01774936964920524,0.11354001834640691,-1.189844385887453
1.7971124747832912,12.314765645053964,-0.01704574225379603,0.10162567310349807,-1.108814219471124
1.7936165372290396,12.294651389328138,-0.016248901120029424,0.08993866714247575,-1.0196540063798316
1.7902992702865559,12.276966470039845,-0.01534411737981363,0.07848913560318475,-0.922327304653682
1.7871853492693128,12.261660399991843,-0.014312273260597658,0.06728296009207296,-0.8170172267638871
1.7843041456655824,12.248682108755453,-0.013127761060644113,0.05631981358782299,-0.704205421819038
1.7816914368128653,12.237981409227139,-0.011755180393806271,0.04559161049136543,-0.5847495760250327
1.7793920314746319,12.229510598656088,-0.010143918065560299,0.03508277589961186,-0.45993131212021704
1.777464005508007,12.223225513051862,-0.008218233997530848,0.02477518223588437,-0.33142848279369674
1.7759863560764562,12.219084391439946,-0.005854617731526601,0.014664071210938032,-0.2011575012218352
1.775077024189094,12.217039715655208,-0.0028056859576364476,0.004809031500840687,-0.07095273624081297
