x,y,v_x,v_y,omega
2.375,32.48,0.0,3.0769230769230766,-3.7142857142857144
2.374226445303213,31.902003520430778,-0.008142681018809043,3.007250392226611,-3.487453243796104
2.372015925452656,31.33698938540091,-0.015125948987052992,2.940266818614113,-3.2812475582690035
2.368573765319137,30.784462467676022,-0.021107315576305553,2.8758059995425933,-3.093228433008091
2.364077565118879,30.24395791029117,-0.026221107584307176,2.813715657140056,-2.921297429385614
2.358681249088334,29.715038600514106,-0.030582219053008466,2.7538560247237487,-2.763643407265941
2.3525184645794917,29.197292920430712,-0.0342891968295406,2.69609850246987,-2.618697726382026
2.3457054459154034,28.69033273548661,-0.03742678910823013,2.6403244969417443,-2.4850972382494385
2.338343435342538,28.19379158900476,-0.040068059027197886,2.586424413393535,-2.3616535767942652
2.330520736029392,27.707323076010283,-0.04227614426907633,2.534296776021998,-2.2473275678218334
2.3223144582359376,27.230599373953655,-0.0441057272409683,2.4838474561530246,-2.1412078185926937
2.313792008723604,26.763309911370506,-0.04560426762570063,2.434988992090665,-2.0424927364685908
2.30501236458921,26.30516015832932,-0.0468130390521319,2.3876399872902665,-1.9504753726283952
2.2960271655284363,25.855870524832053,-0.0477680036928523,2.3417245758388288,-1.8645306027289792
2.2868816527103126,25.415175355249943,-0.04850055228740102,2.297171946078108,-1.7841042482132727
2.2776154776984314,24.982822008476393,-0.04903813204818711,2.253915914696123,-1.7087038151188545
2.268263400972138,24.55857001482231,-0.04940478086016899,2.211894544820563,-1.6378905858007287
2.258855896412713,24.142190301814143,-0.0496215829232512,2.171049802633797,-1.5712728460794212
2.2494196754921933,23.733464482019137,-0.04970705834537571,2.1313272478399274,-1.50850006837046
2.2399781427298486,23.332184196845756,-0.049677497047727434,2.092675753985167,-1.4492579022118133
2.2305517921790488,22.93815051097399,-0.04954724559227079,2.0550472551913166,-1.393263848737978
2.2211585532075127,22.55117335267949,-0.04932895410810998,2.01839651632971,-1.3402635161938914
2.2118140925822782,22.171070995842786,-0.049033789315407895,1.982680924056661,-1.2900273704368481
2.20253207882319,21.797669579893274,-0.04867161867499593,1.9478602964645078,-1.242347908250591
2.1933244139095667,21.430802664337524,-0.048251169889460696,1.9138967093855157,-1.1970371927571932
2.1842014366850213,21.07031081487127,-0.047780169316279125,1.8807543376276912,-1.1539246997096317
2.1751721016814285,20.71604121838189,-0.04726546230048896,1.8483993096289242,-1.1128554313418608
2.166244136555421,20.367847324418676,-0.04671311797327266,1.816799574194385,-1.0736882610338483
2.157424180883608,20.02558851094725,-0.04612852067739298,1.785924778136358,-1.036294477550597
2.148717908682801,19.6891297724162,-0.04551644985741369,1.7557461537694532,-1.0005565022262974
2.140130136698124,19.358341428351707,-0.04488114998129204,1.7262364153304939,-0.966366756341564
2.131664920225915,19.03309885086339,-0.044226391831438706,1.6973696634939262,-0.9336266592088669
2.123325638002431,18.71328220959343,-0.043555526310495904,1.6691212972424536,-0.9022457402415582
2.1151150674872574,18.398776232774495,-0.04287153174396252,1.6414679324305939,-0.872140850619604
2.107035451696847,18.089469983181075,-0.04217705552351707,1.614387326447463,-0.8432354621496562
2.099088558594457,17.785256647866234,-0.0414744508174264,1.5878583084456184,-0.8154590426056424
2.0912757339142294,17.486033340671554,-0.04076580897444415,1.5618607146562873,-0.7887464982759723
2.083597948186236,17.191700916585127,-0.04005298816232832,1.5363753283587225,-0.7630376756740238
2.076055838633437,16.902163797100265,-0.03933763870923918,1.5113838241135045,-0.7382769154224448
2.0686497465284392,16.61732980579831,-0.03862122555389496,1.486868715907066,-0.7144126522262105
2.061385484070674,16.337111139997216,-0.03784469505416323,1.4628014504202231,-0.6895982569349476
2.0542678295910117,16.061423032494094,-0.03707798367912289,1.4391786285599948,-0.6658717959856209
2.0472948650222613,15.79018249150684,-0.036321643360356246,1.415984960779531,-0.6431730565612781
2.0404645768948315,15.52330936673372,-0.035576126402062064,1.3932058263059328,-0.6214457878600402
2.033774874149727,15.260726225787543,-0.0348417972306166,1.3708272362853862,-0.600637398872947
2.027223603845206,15.002358237402927,-0.034118942816973453,1.348835799342143,-0.5806986822916993
2.0208085649946366,14.748133060975501,-0.03340778192586033,1.3272186893676097,-0.5615835620261961
2.0145275207456153,14.497980742025266,-0.03270847332699709,1.3059636153717233,-0.543248862079471
2.0083782090862634,14.251833613206852,-0.032021123087231734,1.2850587932431574,-0.5256540947643327
2.002358352243393,14.009626200517353,-0.03134579104824351,1.2644929192778942,-0.5087612664555882
1.9964656649185188,13.771295134377944,-0.03068249658201432,1.244255145347447,-0.4925346992575417
1.990697861491216,13.53677906528901,-0.030031223705381766,1.2243350555886763,-0.4769408671314275
1.985052662304787,13.306018583779942,-0.029391925625452522,1.204722644506798,-0.4619482451740819
1.9795277991363358,13.07895614439456,-0.028764528779296167,1.1854082963919663,-0.4475271708696885
1.9741210199420223,12.855535993471335,-0.028148936424004064,1.166382765957788,-0.4336497162527616
1.9688300929582003,12.635704100494195,-0.02754503182675325,1.1476371601173911,-0.4202895700243263
1.9636528102302682,12.41940809280521,-0.026952681098847728,1.129162920819291,-0.40742192875598726
1.9585869906331692,12.206597193484601,-0.026371735712720244,1.1109518088713277,-0.3950233963995101
1.953630482440495,11.997222162216609,-0.025802034736481193,1.0929958886864677,-0.3830718913938053
1.9487811654929406,11.791235238971911,-0.02524340681672363,1.075287513889294,-0.3715465607277734
1.9440369530113493,11.5885900903484,-0.024695671936870018,1.0578193137266205,-0.36042770037721306
1.939395793094691,11.389241758422532,-0.024158642975321474,1.0405841802298808,-0.3496966815876631
1.934855669938961,11.193146611973017,-0.02363212708499505,1.0235752560808151,-0.3393358825233176
1.930414604809107,11.000262299947465,-0.023115926913466693,1.0067859231355194,-0.3293286248456043
1.926070656792648,10.810547707050898,-0.02260984168083991,0.9902097915651766,-0.3196591148241763
1.9218260447393352,10.624165931231047,-0.02207028519613665,0.9717036381174525,-0.35275772489120116
1.917680055961973,10.441290191897906,-0.02157170193399141,0.953304144336656,-0.38724117844033457
1.913625013008,10.261900485545077,-0.0211129607394103,0.9350085541141612,-0.4230051421305774
1.9096534566409886,10.085977322185382,-0.020692895755445914,0.9168142180931634,-0.45994712651223607
1.9057581520293698,9.913501705376028,-0.02031031068264492,0.8987185904263562,-0.49796625913944853
1.9019320941652733,9.744455112825115,-0.019963982623635957,0.8807192258990508,-0.5369630603257917
1.898168512589788,9.5788194775104,-0.019652665539364546,0.8628137774137418,-0.576839220583353
1.8944608754961942,9.41657716924179,-0.01937509334057084,0.8449999938347907,-0.6174973787727265
1.8908028932784868,9.25771097659899,-0.019129982635296847,0.8272757181946984,-0.6588408999707405
1.8871885215888384,9.102204089175189,-0.018916035150477697,0.8096388862663729,-0.700773652033938
1.8836119639644588,8.950040080056532,-0.01873193984299074,0.7920875255089511,-0.7431997797984056
1.8800676740816509,8.801202888465362,-0.018576374712881337,0.7746197543981108,-0.7860234758098888
1.8765503576926885,8.655676802492767,-0.018448008328827835,0.7572337821555036,-0.8291487464215425
1.8730549742994937,8.513446441842877,-0.018345501073222217,0.739927908895981,-0.8724791720293226
1.8695767386169455,8.374496740507261,-0.018267506111497495,0.7227005262157631,-0.9159176601360188
1.866111121878041,8.238812929283043,-0.01821267008749551,0.7055501182496877,-0.9593661898431952
1.8626538530330772,8.106380518042354,-0.018179633543705002,0.6884752632312676,-1.0027255462646962
1.8592009198955286,7.977185277653803,-0.018167031062071078,0.671474635595581,-1.0458950432346
1.8557485702884462,7.8512132214483685,-0.01817349111774236,0.6545470086721551,-1.0887722325451765
1.8522933132469799,7.72845058611232,-0.01819763563453396,0.6376912580231096,-1.131252597795067
1.8488319203351349,7.608883811878474,-0.01823807922699226,0.6209063654910719,-1.1732292307530103
1.8453614271381498,7.4924995218737855,-0.01829342810969297,0.6041914240319561,-1.2145924879465242
1.8418791349960055,7.379284500465868,-0.018362278649722414,0.5875456434198194,-1.255229624966563
1.8383826130486365,7.269225670433116,-0.01844321553311011,0.5709683569249357,-1.2950244057372058
1.8348697006695205,7.162310068762434,-0.01853480951021564,0.5544590290822375,-1.3338566837331447
1.8313385103715802,7.05852482085448,-0.01863561467862963,0.5380172646856922,-1.3716019518372526
1.827787431277893,6.957857112888629,-0.018744165254919558,0.5216428191653784,-1.4081308572170754
1.8242151332597265,6.860294162067721,-0.01885897177841154,0.5053356105283853,-1.4433086772659236
1.820620571856082,6.765823184425624,-0.018978516681004764,0.48909573307263177,-1.4769947523073366
1.81700299410246,6.6744313598378255,-0.019101249146597082,0.47292347311471206,-1.5090418704112991
1.8133619454122067,6.586105793826036,-0.01922557917185782,0.4568193270093759,-1.5392955993331363
1.8096972776718554,6.500833475691081,-0.019349870726575766,0.4407840217796087,-1.5675935602869995
1.8060091587326785,6.418601232443358,-0.019472433896338716,0.42481853872273884,-1.5937646380439758
1.8022980835046396,6.33939567792579,-0.01959151587249063,0.4089241404095481,-1.6176281217579573
1.798564886886554,6.26320315643968,-0.0197052906336748,0.3931024015495189,-1.6389927710561845
1.7948107587981357,6.190009680088263,-0.019811847139150393,0.3773552442548797,-1.6576558024118815
1.7910372616164887,6.119800858945883,-0.01990917582555417,0.3616849782964992,-1.6734017918283712
1.7872463503624278,6.052561823042581,-0.019995153164561408,0.34609434700143127,-1.6860014916776214
1.7834403960320753,5.988277135026149,-0.020067523997045443,0.33058657948734277,-1.695210562545991
1.7796222125281997,5.926930692229547,-0.020123881306905553,0.3151654499505509,-1.7007682257225991
1.7757950877161783,5.86850561673759,-0.020161643030163677,0.2998353447016429,-1.7023958493642628
1.7719628192148376,5.812984131924303,-0.02017802540500014,0.28460133754349687,-1.699795492619146
1.7681297556381343,5.760347423840912,-0.020170012244508703,0.2694692738606004,-1.6926484488966755
1.7643008441378674,5.7105754858051725,-0.020134319337249067,0.254445863357705,-1.6806138546836067
1.7604816852734084,5.663646944626372,-0.020067352920213034,0.23953878062968958,-1.6633274677081027
1.7566785964725158,5.619538867176022,-0.019965160773394632,0.22475677147926595,-1.6404007735232475
1.7528986856814404,5.578226546605009,-0.019823373869502846,0.21010976084717853,-1.6114206609810053
1.749149937288125,5.53968326860263,-0.019637135533818587,0.19560895496732572,-1.575950026505949
1.745441313131022,5.503880059976812,-0.019401013488317576,0.18126692530445843,-1.5335298414221987
1.741782872530617,5.470785424930682,-0.019108887568575594,0.16709765412848307,-1.4836834689880678
1.7381859170561276,5.440365079327883,-0.018753801636575206,0.15311651011149108,-1.425924378212746
1.734663168592271,5.412581700815181,-0.018327761140861227,0.1393401058116956,-1.359768904245323
1.7312289939103476,5.387394723963986,-0.017821446037280753,0.12578596630614713,-1.2847563777515376
1.7278996965477962,5.3647602257073395,-0.01722378935799957,0.11247191007960339,-1.2004797772838862
1.7246939092768265,5.3446309678368245,-0.016521339810101284,0.09941501487317894,-1.1066309208933078
1.7216331408741015,5.326956688593857,-0.015697274955426048,0.08663002978963145,-1.0030646869619828
1.718742564188133,5.311684757095474,-0.014729848054767855,0.07412714387753613,-0.889885796057181
1.7160521866772556,5.2987613022045075,-0.013589915217627122,0.061909223395791024,-0.7675571267855241
1.7135986349665693,5.288132856369685,-0.012236944894861537,0.04996915381287034,-0.637016770388617
1.7114279512369666,5.279748329546084,-0.010612357522009532,0.03828902327765785,-0.4997683070973042
1.7096001824932638,5.273560601752244,-0.008627313464333906,0.026844953499616405,-0.35787699988978927
1.7081977700765978,5.269525856341662,-0.006134922500570428,0.01562605082228394,-0.21378117981718556
1.70734559859347,5.26759501437834,-0.002835303637616878,0.004698601423223944,-0.06984886548611155
