x,y,v_x,v_y,omega
2.375,32.48,0.0,2.051282051282051,-5.795918367346939
2.3743637327125047,32.11401271014322,-0.007069636527727124,2.0152433915709995,-5.553796651329798
2.372520240065665,31.754428818707602,-0.013413615103826665,1.980133179935908,-5.325869552954264
2.369594039879039,31.401085179390435,-0.01909972030312557,1.9459072569215066,-5.111004856482065
2.3656980750036225,31.05382631669379,-0.024188778312615754,1.9125245508189748,-4.9081810351048745
2.3609348927271467,30.71250389735373,-0.028735469203779087,1.879946775181674,-4.716474557140255
2.3553976877453606,30.376976252780125,-0.03278903059384581,1.848138164525068,-4.5350488702021
2.349171226751145,30.047107946153524,-0.03639386934188146,1.8170652424371465,-4.36314481052385
2.3423326699585956,29.722769378775453,-0.039590095019780044,1.7866966173192138,-4.200072227598195
2.334952302616156,29.403836431056373,-0.042413986562879744,1.7570028017816701,-4.045202649125971
2.3270941876800473,29.090190134182333,-0.04489840161610543,1.727956052374337,-3.8979628396459964
2.3188167492446774,28.781716369050677,-0.04707313655467243,1.6995302268662624,-3.7578291294642394
2.310173295003693,28.47830558952706,-0.048965243900711,1.6717006567295019,-3.624322409639128
2.3012124848986155,28.179852567465467,-0.05059931282236959,1.6444440328437722,-3.497003704611035
2.29197875216545,27.886256157263027,-0.051997717546137606,1.6177383027388617,-3.375470247218759
2.282512682184129,27.597419078001842,-0.05318083780187585,1.5915625779409739,-3.2593519918233147
2.2728513538476025,27.313247711469415,-0.05416725482619701,1.5658970501971303,-3.1483085104571265
2.2630286475775785,27.033651914554344,-0.05497392595184642,1.5407229155258584,-3.042026224652963
2.253075523606687,26.758544844690036,-0.0556163403913906,1.5160223051886725,-2.9402159321376335
2.24302027370925,26.48784279717104,-0.0561086584690221,1.4917782228001877,-2.8426105931076253
2.232886447902505,26.221471100241303,-0.056489406050365426,1.4679072986413266,-2.7467949057983017
2.2226938547672503,25.95935772885287,-0.05676162878579645,1.4444634945635086,-2.655056134185934
2.212461170693561,25.70142712566434,-0.056934860921868495,1.4214320964201566,-2.567174338652789
2.2022054279327947,25.447606322465102,-0.057017836419974655,1.3987990502380308,-2.482943725168274
2.1919421523033322,25.197824824830626,-0.0570185594629434,1.3765509234783524,-2.4021715845266303
2.181685488809228,24.95201450349705,-0.05694436824932385,1.3546748691169306,-2.3246773224730055
2.1714483163172336,24.71010949197002,-0.05680199277283511,1.3331585922945353,-2.2502915719323697
2.1612423523192352,24.472046089925193,-0.05659760720492669,1.3119903193146345,-2.1788553795047143
2.1510782487021953,24.237762671995924,-0.0563368774288516,1.2911587687884063,-2.110219459225226
2.1409656793544545,24.00719960157773,-0.056025004212711275,1.2706531247470378,-2.044243507324708
2.130913420354323,23.780299149310178,-0.05566676245541919,1.2504630115591155,-1.980795572376248
2.1209294234130143,23.55700541592426,-0.05526653689245361,1.2305784705066658,-1.9197514757900596
2.1110208831780835,23.33726425916879,-0.05482835460677916,1.210989937887408,-1.8609942781289406
2.1011942989446415,23.121023224551834,-0.05435591465368597,1.1916882245232336,-1.8044137871701609
2.0914555312689784,22.9082314796538,-0.053852615075901084,1.172664496566033,-1.749906104042751
2.0818098539320506,22.698839751787684,-0.05332157755663379,1.1539102575019113,-1.6973732041282872
2.0722620016580047,22.492800268798778,-0.052765669932763964,1.135417331263709,-1.6467225497336013
2.0628162139549566,22.29006670281177,-0.05218752676777031,1.1171778463697073,-1.597866731829998
2.053476275411108,22.090594116747276,-0.05158956816388012,1.0991842210135403,-1.550723138409525
2.0442455527486088,21.894338913442752,-0.05097401697500276,1.0814291490367676,-1.5052136472381252
2.035127028909916,21.701258787224518,-0.05034291456602638,1.063905586721354,-1.461264340991117
2.026123334426493,21.511312677788588,-0.049698135249783726,1.046606740344533,-1.4188052429411189
2.017236776297192,21.32446072625769,-0.049041399520230976,1.0295260544432514,-1.3777700715345467
2.0084693645833647,21.140664233291226,-0.04837428618895958,1.0126572007396772,-1.3380960123422667
1.999822836909385,20.959885619133175,-0.047698243521924096,0.9959940676831232,-1.2997235060046661
1.991301960083832,20.782327615685233,-0.04697816565088661,0.9768726372939864,-1.3141132230532784
1.9829082802917035,20.608201052849267,-0.04628494315054098,0.9578669497723156,-1.3302132777452358
1.9746369998009086,20.437485365555794,-0.04561817341384951,0.9389740201551608,-1.3478994631480108
1.9664834008341197,20.27016051442709,-0.04497737066158194,0.920190992386005,-1.36704977103352
1.9584428599310981,20.10620696290092,-0.044361972705321884,0.9015151356825156,-1.3875441272749724
1.9505108611437025,19.9456056549674,-0.0437713471546299,0.8829438413566012,-1.4092641306327471
1.9426830081605817,19.78833799343781,-0.043204797102268135,0.8644746200833096,-1.432092793850069
1.9349550354527496,19.63438581866466,-0.04266156631808799,0.8461050996183518,-1.4559142859722907
1.9273228185260105,19.48373138763194,-0.04214084397901523,0.8278330229674116,-1.4806136747890277
1.919782383361543,19.336357353333618,-0.04164176895951015,0.8096562470139512,-1.5060766682760358
1.9123299151218354,19.192246744356922,-0.0411634337039095,0.791572741615998,-1.5321893538833478
1.9049617661955605,19.051382944584702,-0.04070488769914564,0.7735805891864367,-1.5588379344775207
1.8976744636519256,18.913749672928112,-0.04026514056346271,0.7556779847757055,-1.5859084596985855
1.8904647161724646,18.779330962997047,-0.039843164763882485,0.737863236680548,-1.6132865514361319
1.8833294205262092,18.648111142611107,-0.03943789797228794,0.7201347676076911,-1.640857122063587
1.876265667652668,18.520074813047977,-0.03904824506706181,0.7024911164270629,-1.6685040839948806
1.8692707484160533,18.395206827919544,-0.038673079784211375,0.6849309405555316,-1.696110049043154
1.8623421590937825,18.273492271557814,-0.03831124601879687,0.667453019019223,-1.7235560159668966
1.8554776066624106,18.15491643678355,-0.037961558774225836,0.6500562562503617,-1.750721044485051
1.8486750139449115,18.039464801919515,-0.03762280475354082,0.6327396866834054,-1.7774819139297202
1.8419325246846072,17.927123006897748,-0.03729374258317209,0.6155024802251104,-1.8037127645841151
1.8352485086131085,17.81787682829591,-0.036973102655704096,0.5983439486842178,-1.8292847196259967
1.8286215665824386,17.711712153121034,-0.03665958657396133,0.5812635532588234,-1.8540654854657952
1.8220505358351136,17.60861495114034,-0.03635186617409579,0.5642609131933168,-1.8779189281379118
1.8155344954904193,17.50857124553705,-0.03604858210028437,0.5473358157321794,-1.9007046232795315
1.8090727723305702,17.411567081644797,-0.035748341898036724,0.530488227515022,-1.9222773771223864
1.8026649469769285,17.3175884934866,-0.03544971758687171,0.5137183075760823,-1.9424867158419492
1.7963108605541596,17.226621467812876,-0.03515124266611884,0.4970264221319763,-1.961176340573391
1.790010621949237,17.138651905298264,-0.0348514084996834,0.48041316136368384,-1.9781835454395025
1.7837646157827738,17.05366557851753,-0.0345486600165755,0.4638793584222149,-1.9933385960779315
1.7775735112224604,16.971648086277494,-0.034241390653574136,0.4474261109115473,-2.006464066452824
1.77143827178276,16.892584803834097,-0.033927936454209384,0.43105480512619365,-2.017374132257903
1.7653601662717402,16.81646082847192,-0.033606569223788345,0.41476714334243614,-2.0258738200597635
1.7593407810655526,16.743260919867975,-0.033275488622739484,0.39856517447918566,-2.0317582126246037
1.7533820339141903,16.672969434604127,-0.03293281305906223,0.382451328452456,-2.03481161280374
1.7474861895096492,16.60557025413477,-0.03257656921361682,0.3664284545403882,-2.0348066711804957
1.7416558770806838,16.541046705462144,-0.032204679997110346,0.3504998640443403,-2.0315034867620017
1.7358941103187053,16.47938147372657,-0.03181495069153854,0.33466937746205794,-2.024648695833877
1.7302043099894906,16.420556505891476,-0.031405052966403134,0.3189413762612151,-2.0139745723803513
1.7245903296489051,16.364552904706603,-0.03097250637343648,0.30332085912626044,-1.9991981751783316
1.7190564849632182,16.31135081218671,-0.030514656800861864,0.2878135022058804,-1.9800205931532937
1.7136075872439542,16.260929281976583,-0.030028651190960605,0.2724257223510884,-1.9561263637151474
1.7082489819559745,16.213266140228427,-0.029511407564370637,0.25716474151730956,-1.9271831711678273
1.7029865931645687,16.16833783505629,-0.028959579006804563,0.2420386492842125,-1.8928419774619232
1.6978269751818709,16.12611927534194,-0.028369509689837827,0.22705645865300975,-1.8527378003380908
1.6927773730998998,16.08658366077188,-0.027737180109839697,0.21222814768098425,-1.806491440630977
1.6878457945265917,16.049702306657927,-0.027058137371362097,0.19756467580737758,-1.753712579216582
1.6830410957801762,16.015444469565445,-0.026327404255476233,0.18307795855354855,-1.6940048242961014
1.678373087212866,15.983777183340965,-0.025539357603528053,0.16878077727400814,-1.6269735010528505
1.6738526644835288,15.954665120145524,-0.024687561611327267,0.15468659156422493,-1.5522372441770347
1.669491975872111,15.928070497908681,-0.023764534071093548,0.14080921106735647,-1.4694447726785191
1.665304640715695,15.90395306440405,-0.022761412111304596,0.12716227231743268,-1.378298557327928
1.661306041621967,15.882270198558817,-0.021667466707897827,0.11375845929624778,-1.2785873259353242
1.657513724559419,15.862977179997273,-0.0204693895426347,0.10060841360981249,-1.1702292455935408
1.653947958110789,15.84602768380558,-0.019150237664364335,0.08771932185345643,-1.0533266898864702
1.6506325290378676,15.831374549625867,-0.017687863145873582,0.07509328014335968,-0.9282309121975258
1.6475958913430016,15.818970834598364,-0.016052555685974537,0.0627257757177716,-0.7956095561962984
1.6448728538514088,15.808771058619477,-0.014203416442832136,0.05060506849206842,-0.6565008164042426
1.6425071292817393,15.800732342101483,-0.012082412109051081,0.03871400393010672,-0.5123261098370167
1.6405554263899629,15.794814736865419,-0.00960317557735553,0.02703716535948776,-0.364823486490825
1.6390949740662457,15.79097915890813,-0.006624072463945318,0.015580367499288414,-0.21586628433029795
1.6382421380454435,15.78917788617387,-0.002851883322747822,0.0044337739924720475,-0.06716263341895576
