x,y,v_x,v_y,omega
2.375,32.48,0.0,2.871794871794872,-3.1020408163265305
2.3744660299294487,31.96843964851708,-0.005933000783902096,2.8122090335708685,-2.9322545766053465
2.372933130845537,31.467422143897824,-0.011099211259564097,2.7546521288653247,-2.7761509773955
2.3705308876363493,30.976592345668347,-0.015592379953628173,2.699012295906618,-2.632283920059511
2.3673731279057457,30.495614495740345,-0.019493839275303775,2.6451860366267494,-2.4993889547980572
2.3635599940593135,30.024170786336935,-0.02287431457394174,2.593077401188917,-2.3763572652213183
2.359179715800396,29.56196006561624,-0.02579544385847617,2.54259727348548,-2.26221381210669
2.354310130564399,29.108696664209837,-0.02831105876370974,2.493662742141208,-2.1560989035676763
2.349019991181362,28.6641093284223,-0.030468267714482782,2.4461965443869835,-2.057252599929541
2.343370093373161,28.227940247911164,-0.032308374598861385,2.400126572403401,-1.9650014731786094
2.3374142502441573,27.799944167378804,-0.03386766016784411,2.355385433511729,-1.878747329593575
2.3312001364646973,27.379887573231347,-0.035178048492826665,2.3119100570155866,-1.7979575751245909
2.3247700211816307,26.96754794735156,-0.036267676874576556,2.2696413416487284,-1.722156960105295
2.318161405666025,26.56271308113622,-0.03716138440992962,2.2285238385216912,-1.650920485916097
2.3114075792043507,26.16518044379875,-0.03788113183089725,2.188505465227973,-1.583867293544567
2.3045381046591817,25.774756599661913,-0.03844636311542762,2.1495372474035466,-1.5206553843830959
2.2975792433915814,25.391256669785307,-0.03887431763568554,2.1115730845587564,-1.4609770484506701
2.2905543277877816,25.014503833805424,-0.0391803001843101,2.0745695374399387,-1.4045548956134655
2.283484088417326,24.644328868326703,-0.039377915042978405,2.0384856345458373,-1.3511384021680244
2.2763869418278957,24.280569718601512,-0.0394792692840235,2.003282695734075,-1.3005008990235112
2.2692792441204617,23.92307110058502,-0.03949514968746554,1.9689241711158472,-1.252436939220007
2.262175514720154,23.57168413075511,-0.03943517698261694,1.9353754936609173,-1.2067599920835352
2.2550886341412077,23.226265981354246,-0.03930794056123083,1.902603944126499,-1.1633004192956038
2.2480300190202405,22.886679558944927,-0.039121116338407466,1.870578527088118,-1.121903694827988
2.24100977724598,22.552793204377682,-0.038881570042261226,1.8392698569923889,-1.0824288362910384
2.234036845632911,22.22448041245367,-0.03859544788073249,1.8086500532744163,-1.0447470199519155
2.2271191122608465,21.901619569726947,-0.03826825625331612,1.7786926436891495,-1.0087403556494363
2.220263525323611,21.58409370903602,-0.037904931938190715,1.74937247509894,-0.9743008011887153
2.213476190090602,21.271790279483447,-0.037509903984130975,1.7206656310407582,-0.9413291986432748
2.20676245537911,20.964600930697685,-0.03708714836577996,1.6925493554677298,-0.9097344174085652
2.2001269907577963,20.662421310314585,-0.03664023631548032,1.6650019821222306,-0.8794325909080364
2.1935738555485247,20.36515087370882,-0.03617237712087444,1.6380028690529562,-0.850346435608273
2.187106560561208,20.072692705088713,-0.035686456071527706,1.6115323378371178,-0.822404642500762
2.180728123381531,19.784953349143287,-0.03518506814710868,1.5855716171120922,-0.7955413324941303
2.1744411179317256,19.50184265249787,-0.03467054796183978,1.5601027900591757,-0.7696955682651567
2.168247718937985,19.22327361429609,-0.034144996413055476,1.5351087455161794,-0.7448109160670912
2.1621497418626383,18.949162245281293,-0.033610304424131945,1.510573132425993,-0.7208350518129392
2.1561486787934503,18.67942743480097,-0.033068174122402434,1.486480317355381,-0.6977194064587925
2.1502483717043885,18.413991703837134,-0.032490793533837214,1.4628055822427812,-0.674322889405314
2.144451814261692,18.152780160631423,-0.03191540027390064,1.439544897820704,-0.6519107467567726
2.1387585718626103,17.89571951254894,-0.03134284860478822,1.4166845253179652,-0.6304305559946104
2.1331680658097105,17.642738888084452,-0.030773885316320714,1.394211302065234,-0.6098332118845758
2.127679591644109,17.393769735910972,-0.0302091609681411,1.3721126109734463,-0.5900726829982849
2.1222923355610357,17.148745729249395,-0.029649239954891424,1.350376351932943,-0.5711057884946823
2.1170053891080265,16.907602675226084,-0.029094609522992136,1.328990914992745,-0.5528919932802014
2.1118177623442063,16.67027842890954,-0.028545687852785967,1.307945155191094,-0.5353932198588855
2.1067283956198466,16.43671281173963,-0.028002831306768693,1.2872283689190072,-0.5185736753547231
2.1017361701182518,16.206847534083177,-0.027466340933173964,1.2668302717082291,-0.5023996923405498
2.0968399172868963,15.9806261216685,-0.026936468304104406,1.2467409773437212,-0.4868395822433428
2.0920384272712593,15.757993845668775,-0.026413420758530395,1.226950978208787,-0.47186350021654433
2.0873304564528525,15.538897656219948,-0.025897366112658884,1.2074511267781871,-0.4574433204779194
2.0827147341823182,15.323286119173602,-0.02538843689327524,1.1882326181812033,-0.4435525212078726
2.0781899687890024,15.111109355898655,-0.024886734143566874,1.1692869737626412,-0.4301660781894443
2.073754852939982,14.902318985958242,-0.02439233084554904,1.1506060255752697,-0.41726036644852066
2.0694080684140226,14.696868072499669,-0.02390527499844403,1.1321819017422279,-0.40481306922213867
2.06514829034923,14.494711070205941,-0.023425592388139994,1.11400701263254,-0.3928030936450385
2.0609741910171775,14.295803775667274,-0.02295328907910897,1.0960740377971,-0.3812104926005873
2.0568844431709423,14.100103280040063,-0.02248835365683823,1.0783759136163509,-0.3700163922325642
2.0528777230096984,13.90756792386929,-0.02203075924587494,1.060905821614441,-0.35920292465966447
2.048952712798233,13.718157253958179,-0.021580465325957265,1.0436571773978982,-0.34875316547548435
2.045108103175924,13.531831982176179,-0.021137419366367375,1.0266236201798562,-0.3386510756536681
2.0413425951862605,13.348553946103166,-0.02070155829655978,1.0097990028536283,-0.32888144751125
2.037654902054937,13.168286071413963,-0.020272809829262415,0.9931773825819612,-0.3194298544133855
2.0340469513549495,12.991212696561803,-0.01981553128170389,0.974304560219833,-0.35875471978648377
2.0305176073407134,12.817527244807817,-0.019399402209811706,0.955533792602215,-0.39922413566949255
2.02705958160743,12.647211573600973,-0.01902310593777589,0.9368625541404737,-0.4407382543278847
2.0236658244953456,12.480247986190225,-0.018685306418721872,0.9182884170900576,-0.4831985302805897
2.0203295283075993,12.31661921422473,-0.018384651222904717,0.8998090491932237,-0.5265075036842676
2.01704413002002,12.15630840074742,-0.01811977419464332,0.8814222116657522,-0.5705685841224512
2.013803313540834,11.999299083519833,-0.017889297796309673,0.8631257575296616,-0.6152858338422819
2.0106010115752024,11.845575178615459,-0.017691835155155624,0.8449176302967368,-0.6605637494517524
2.0074314071468744,11.695120964217793,-0.017525991826264752,0.8267958630106799,-0.7063070410522299
2.0042889348270916,11.547921064557528,-0.01739036728243539,0.8087585776589262,-0.7524204077339715
2.0011682817191345,11.403960433921043,-0.01728355613930731,0.7908039849686977,-0.7988083083056626
1.9980643882456608,11.263224340659345,-0.017204149121511973,0.7729303846057344,-0.845374726061881
1.9949724487851523,11.12569835112297,-0.017150733773026186,0.7551361657984427,-0.8920229263139048
1.9918879122034812,10.991368313443761,-0.01712189491221044,0.7374198084149789,-0.9386552053183856
1.9888064823267557,10.86022034107906,-0.01711621482918282,0.719779884526153,-0.9851726291339264
1.985724118402313,10.732240796027327,-0.01713227322018029,0.7022150604930877,-1.0314747608162498
1.9826370355959653,10.60741627161666,-0.01716864685035107,0.684724099625417,-1.0774593742270047
1.9795417055754672,10.485733574758648,-0.017223908932959615,0.6673058654636026,-1.1230221525778252
1.976434857232671,10.367179707549617,-0.01729662820921953,0.6499593257478269,-1.1680563696584385
1.9733134776000454,10.251741848089164,-0.01738536770884317,0.6326835571460939,-1.2124525515038092
1.9701748130212333,10.139407330371693,-0.01748868316684682,0.6154777508258248,-1.2560981160389553
1.9670163706401778,10.030163623090374,-0.01760512106710543,0.598341218966628,-1.2988769879997564
1.9638359202791604,9.923998307173918,-0.017733216277530696,0.5812734023273309,-1.3406691861627833
1.9606314967829914,9.820899051854628,-0.01787148923545796,0.5642738789980966,-1.3813503796264461
1.9574014029146711,9.7208535890408,-0.01801844263476673,0.5473423744888726,-1.4207914095701475
1.9541442128972948,9.623849685737198,-0.018172557558305324,0.5304787733289341,-1.4588577725797531
1.9508587767079288,9.529875114223458,-0.01833228899020331,0.5136831323793115,-1.495409061271032
1.947544225241888,9.438917619661137,-0.01849606063247371,0.4969556960909096,-1.530298357575803
1.9441999764804787,9.350964884755061,-0.018662258938739518,0.4802969139765927,-1.5633715736916496
1.9408257428121658,9.26600449104264,-0.018829226264738198,0.46370746060586004,-1.5944667353562127
1.9374215396765224,9.184023876325242,-0.018995253020186835,0.4471882584763301,-1.6234132018234801
1.93398769572267,9.105010287687321,-0.01915856868928519,0.43074050416723225,-1.6500308167407822
1.9305248646995903,9.028950729471006,-0.019317331567154945,0.4143656982362827,-1.674128984123736
1.9270340393252812,8.955831905485372,-0.01946961703628187,0.39806567938188375,-1.695505663909085
1.9235165674158377,8.88564015462999,-0.019613404179754598,0.38184266345572093,-1.7139462822893332
1.9199741705950497,8.818361379001395,-0.019746560495668017,0.3656992879730894,-1.7292225534283385
1.916408965951032,8.75398096342969,-0.019866824437863185,0.34963866282361533,-1.7410912115601025
1.9128234910602435,8.692483685262463,-0.01997178545978499,0.33366442792333495,-1.7492926563756672
1.9092207328629391,8.633853613079513,-0.02005886117692964,0.3177808185538716,-1.7535495207246068
1.90560416095052,8.57807399289252,-0.020125271183282407,0.30199273907938795,-1.7535651790507825
1.901977765918616,8.52512712027357,-0.02016800694898743,0.2863058455755921,-1.749022229189383
1.8983461035564428,8.474994196789336,-0.020183797075157803,0.2707266375825663,-1.7395810014359296
1.8947143457930498,8.427655169132514,-0.02016906696254384,0.2552625586043312,-1.7248781804762712
1.891088339520352,8.383088549500918,-0.0201198916229865,0.23992210396895267,-1.7045256727022713
1.887474674687023,8.341271216173755,-0.020031939858446996,0.22471493299954637,-1.6781099207337948
1.8838807634482855,8.302178194023877,-0.019900407238635797,0.209651979776863,-1.6451919689285992
1.8803149327336912,8.265782416111886,-0.019719934034633783,0.19474555257860054,-1.6053087330485798
1.8767865334732745,8.232054469874676,-0.01948450219221781,0.1800094056126178,-1.5579761447261824
1.8733060710945404,8.20096233524879,-0.019187302015939833,0.16545875689722062,-1.502695154675628
1.8698853640909898,8.172471128066384,-0.01882055357906684,0.1511102117961885,-1.4389620220270252
1.866537741006654,8.146542871172436,-0.01837525846910829,0.13698153146991998,-1.3662849257943435
1.863278291978133,8.123136329048368,-0.01784084184779321,0.12309115879751181,-1.284209724423001
1.860124200505739,8.102206960241947,-0.017204618956584875,0.10945738349603289,-1.1923586051985504
1.85709519679311,8.08370706541249,-0.01645097785040211,0.09609700349793385,-1.090486157196915
1.8542141996506376,8.06758623359384,-0.015560101510403872,0.08302335004261532,-0.9785573696287142
1.8515082557908733,8.053792203008811,-0.014505941375864362,0.07024365645768703,-0.8568496048902294
1.8490099540887044,8.042272225055218,-0.013252966426012732,0.05775609858222152,-0.7260727006795686
1.8467596114814615,8.032974888536437,-0.011750840321132161,0.04554764051533695,-0.5874837736035949
1.8448087684059402,8.025852014903524,-0.009925193851326727,0.03359539985036244,-0.4429438301896875
1.8432261813973196,8.020859471086897,-0.007659106244455613,0.021877309223254243,-0.2948307333641481
1.8421099999408104,8.017953850776902,-0.004742909938982291,0.01040736088782452,-0.14571525175564456
1.841626089506033,8.01707227210158,-0.0006338726696533429,-0.0006120422731395233,0.002182039790722401
