x,y,v_x,v_y,omega
2.375,32.48,0.0,2.2564102564102564,-7.020408163265306
2.373774500143315,32.010922325485616,-0.011671427206523928,2.2109961675362495,-6.6614659385945005
2.3702454820374537,31.551220922877945,-0.021938269039773636,2.1671124287272496,-6.329384377607604
2.3646910608561265,31.100584157939036,-0.030960980306201667,2.1246662849766627,-6.021477036555879
2.357357795630685,30.658718983403638,-0.03887964088847975,2.083573472503317,-5.735384310781083
2.3484646569120846,30.22534926978804,-0.04581691833628447,2.043757133359497,-5.469026751966382
2.3382064244738068,29.800214345668543,-0.051880533456836415,2.005146905873816,-5.220566088507784
2.326756609347375,29.383067714020733,-0.05716532489013566,1.967678157438675,-4.988372497730461
2.3142699765407264,28.973675917491605,-0.06175498755413506,1.9312913333149424,-4.770996987066369
2.300884730734617,28.571817530429318,-0.06572354393261844,1.895931400611582,-4.5671479767893945
2.286724416141036,28.177282259427965,-0.06913659505387099,1.8615473708298675,-4.375671358384179
2.2718995728490388,27.789870137287586,-0.07205238867943418,1.8280918876499197,-4.195533443704466
2.25650918486496,27.40939079781738,-0.0745227349784586,1.7955208692091842,-4.025806330642042
2.2406419492918186,27.035662820954993,-0.07659379428955476,1.763793196146907,-3.8656552983375136
2.2243773913967617,26.668513139338927,-0.07830675709194068,1.732870438291817,-3.7143279144016486
2.2077868464641064,26.307776498832837,-0.07969843274287157,1.7027166141471142,-3.5711445922078164
2.1909343261545584,25.95329496662069,-0.08080176068139389,1.6732979783495365,-3.4354903811013546
2.173877284456207,25.604917481418205,-0.08164625549338135,1.644582833102704,-3.3068078086626036
2.156667296116472,25.262499441116027,-0.08225839536124065,1.6165413602513898,-3.1845906237298873
2.1393506586047644,24.92590232381306,-0.08266196189311592,1.5891454712054274,-3.0683783131061597
2.1219689271085196,24.594993338738163,-0.08287833807111858,1.5623686723649939,-2.957751284803486
2.104559390758753,24.269645104013247,-0.08292677002189783,1.536185944062806,-2.852326627156797
2.087155497173848,23.94973534859607,-0.08282459745338937,1.510573631338851,-2.751754366819382
2.069787231468266,23.635146636068743,-0.08258745688548311,1.4855093451119081,-2.655714160058032
2.0525082366419847,23.325776176775317,-0.0819743986029145,1.460875981492142,-2.557252680465846
2.035366019833594,23.02152498479214,-0.08128480909604413,1.4367544183476426,-2.4634774048581827
2.0183756633050085,22.722287616927048,-0.08052811022381584,1.413125275605644,-2.374107742774161
2.0015503700228523,22.42796259824017,-0.07971277817767525,1.3899701404598146,-2.288883136373113
1.9849016522062044,22.13845222546324,-0.07884643912373118,1.3672715050347963,-2.2075613982889157
1.9684395008652944,21.8536623829891,-0.07793595459922092,1.3450127090046355,-2.1299172065508967
1.9521725383587212,21.57350237044105,-0.07698749784433488,1.3231778866910515,-2.0557407398986913
1.9361081557642597,21.29788474092531,-0.07600662210291743,1.301751918220779,-1.9848364387864734
1.9202526366546548,21.026725149153528,-0.07499832179808075,1.2807203843676338,-1.9170218790836655
1.9046112686911274,20.75994220869665,-0.07396708737837043,1.2600695247454938,-1.852126746971166
1.8891884442902958,20.497457357697712,-0.07291695453431289,1.2397861990538797,-1.7899919048352362
1.873987751481998,20.23919473243061,-0.07185154840185627,1.219857851108976,-1.730468539101658
1.8590120559536576,19.985081048145034,-0.07077412329662233,1.2002724754203544,-1.6734173819528122
1.8442635751692629,19.73504548668562,-0.06968759845951916,1.1810185860978406,-1.6187079997488651
1.8297439453559337,19.489019590416444,-0.06859459023885457,1.1620851878943428,-1.5662181417474343
1.8154542820668702,19.24693716202055,-0.0674974410855578,1.1434617492094037,-1.5158331433977266
1.801395234954855,19.008734169779583,-0.06639824569554134,1.125138176895049,-1.4674453790870654
1.7875670373242611,18.774348657969952,-0.06529887459582698,1.1071047927204694,-1.4209537597501163
1.773969550970694,18.543720662040936,-0.06420099543814602,1.089352311365407,-1.3762632712227405
1.760602306765043,18.316792128266044,-0.06310609223472255,1.0718718198240325,-1.333284549640841
1.7474645413921341,18.093506837582787,-0.06201548274536065,1.054654758111756,-1.2919334905563318
1.7345552306126244,17.87381033335747,-0.0609303342023514,1.0376929011769689,-1.2521308887731557
1.7218731193797068,17.65764985283142,-0.059851677539720746,1.0209783419282992,-1.2138021062010012
1.7094167491090948,17.4449742620229,-0.058780420275631594,1.0045034752956776,-1.1768767652873207
1.6971844823711428,17.235733993875556,-0.05771735818105411,0.9882609832504669,-1.1412884658231552
1.685184372729858,17.03004554861353,-0.056569400307372314,0.9706765906735768,-1.1379333979961925
1.673421672321119,16.82803653738353,-0.055456317871095145,0.9532187543740516,-1.137042971864097
1.6618890645248594,16.629680772388795,-0.05437804209328211,0.9358837693853355,-1.1384800650024154
1.6505792594858515,16.43495282723847,-0.0533343868496507,0.9186680891891702,-1.142111721424778
1.6394850176939166,16.24382800441242,-0.05232505878782335,0.90156831867794,-1.1478088389557743
1.6285991715232027,16.056282304145316,-0.05134966664754898,0.8845812076754325,-1.1554458688166631
1.6179146448918755,15.872292394615584,-0.05040772984128106,0.8677036449886856,-1.1649005261420853
1.607424471192016,15.691835583330239,-0.04949868634785586,0.8509326529669892,-1.176053510202454
1.5971218096288822,15.51488978960123,-0.048621899967704246,0.8342653825473739,-1.1887882331545128
1.5869999600989522,15.341433518013002,-0.04777666698401157,0.817699108769081,-1.2029905561820518
1.5770523767272302,15.171445832784276,-0.04696222227048362,0.8012312267425941,-1.2185485319202827
1.56727268017613,15.004906332929806,-0.04617774488285048,0.7848592480618691,-1.2353521520811173
1.5576546688307993,14.84179512812991,-0.0454223631679187,0.7685807976514477,-1.2532930992127282
1.5481923289589798,14.682092815216969,-0.04469515942083867,0.7523936110432128,-1.2722645015353995
1.5388798439373739,14.525780455188958,-0.04399517411826428,0.7362955320806954,-1.292160689796799
1.529711602630973,14.372839550660014,-0.04332140975222175,0.7202845110520827,-1.3128769550834198
1.5206822070068808,14.223252023657615,-0.04267283428675121,0.7043586032564708,-1.334309306510922
1.5117864790598168,14.077000193674479,-0.0420483842567155,0.6885159680114805,-1.356354227694355
1.5030194671226775,13.934066755881286,-0.0414469675255627,0.6727548681141639,-1.3789084308695454
1.4943764516322862,13.79443475940332,-0.040867465716260265,0.6570736697712277,-1.4018686074991111
1.485852950417737,13.658087585560342,-0.04030873632706484,0.6414708430190369,-1.4251311741503798
1.477444723576566,13.52500892596418,-0.03976961454123029,0.6259449626587056,-1.4485920123777356
1.469147778002335,13.39518276036264,-0.039248914737161196,0.610494709736907,-1.47214620127843
1.4609583716261323,13.26859333411133,-0.03874543170286381,0.5951188736089051,-1.4956877413185596
1.4528730174339723,13.145225135146578,-0.038257941555803573,0.5798163546268268,-1.519109267944797
1.4448884873221393,13.025062870322902,-0.03778520236641609,0.5645861675034386,-1.5423017534078172
1.4370018158532125,12.908091440967013,-0.03732595448050475,0.5494274454097748,-1.5651541951257735
1.4292103039768413,12.794295917487219,-0.03687892053255498,0.5343394448739912,-1.587553288811724
1.421511522781374,12.683661512861764,-0.03644280513856164,0.5193215515589036,-1.609383084479347
1.4139033173452331,12.57617355481235,-0.03601629425325469,0.5043732870069444,-1.6305246233293333
1.4063838107605222,12.471817456448967,-0.03559805417256505,0.48949431645382857,-1.6508555534086349
1.3989514084058408,12.370578685149564,-0.03518673015773349,0.47468445782619345,-1.6702497218322567
1.3916048025507606,12.272442729412152,-0.03478094465255414,0.459943692053924,-1.688576741271217
1.3843429773809668,12.177395063387781,-0.0343792950597675,0.4452721748448483,-1.7057015283529973
1.377165214540863,12.08542110876984,-0.03398035103645979,0.4306702500879387,-1.7214838116097397
1.3700710992995944,11.996506193678158,-0.03358265126133578,0.41613846507092217,-1.7357776066691262
1.3630605274571888,11.910635508135222,-0.033184699618717034,0.4016775877189402,-1.7484306565476253
1.3561337131200681,11.827794055686127,-0.0327849607348132,0.3872886260819512,-1.759283835223408
1.3492911974898725,11.74796660066404,-0.03238185479086058,0.3729728503188683,-1.7681705132033398
1.3425338588267475,11.671137610548914,-0.03197375152461569,0.35873181744422666,-1.774915884647686
1.3358629237685133,11.597291192810111,-0.031558963315709745,0.34456739911579454,-1.7793362569063371
1.3292799802111646,11.526411025564741,-0.03113573723046998,0.3304818127448631,-1.7812383052307423
1.322786991984937,11.458480281325656,-0.03070224587645858,0.31647765619880863,-1.7804182982057388
1.3163863155951008,11.393481543060265,-0.03025657688388785,0.30255794632872757,-1.7766613034425593
1.310080719339677,11.33139671174035,-0.029796720786814418,0.28872616147997004,-1.7697403887725889
1.3038734051703385,11.27220690454386,-0.029320557016409947,0.2749862880103982,-1.7594158422557133
1.2977680337320718,11.215892342887532,-0.028825837633749303,0.26134287062129946,-1.7454344457073394
1.2917687531081528,11.162432229546777,-0.02831016830833819,0.2478010659573203,-1.7275288524618257
1.2858802319191782,11.111804614289827,-0.02777098587237089,0.2343666983945802,-1.7054171425397286
1.2801076975929122,11.063986247765271,-0.02720553152063779,0.22104631612500206,-1.6788026597699754
1.2744569808578166,11.018952423905926,-0.02661081833741695,0.2078472444401981,-1.6473742791444472
1.2689345678516353,10.976676811947396,-0.025983591245261645,0.19477763135533532,-1.6108073133265972
1.2635476617301078,10.937131280446973,-0.02532027657880949,0.1818464781724991,-1.568765350772787
1.2583042563913929,10.90028571762042,-0.024616917123236458,0.16906364398515894,-1.5209034317981986
1.2532132260250406,10.866107855146488,-0.023869086365833098,0.1564398081475138,-1.4668731216067359
1.248284435844088,10.834563106643422,-0.023071772500380998,0.1439863680721721,-1.4063302386575913
1.243528881861299,10.805614437662644,-0.022219217811895585,0.1317152412685676,-1.3389462455985515
1.2389588713738158,10.77922229159741,-0.021304691592707436,0.11963853078129255,-1.2644245961801575
1.2345882615925274,10.755344605438694,-0.02032016346718222,0.1077680040636384,-1.1825236070726106
1.2304327825711567,10.733936960168887,-0.01925582721253942,0.09611433183929062,-1.093087564762866
1.2265104836669087,10.714952920429116,-0.018099400446965685,0.08468604663471793,-0.9960875175579361
1.222842362263955,10.698344621203717,-0.016835089104975144,0.0734882317024268,-0.8916720348681519
1.2194532627383567,10.684063643829802,-0.0154420492340566,0.06252107662056051,-0.7802253187524648
1.2163731794034423,10.672062168317314,-0.013892077765128134,0.05177869016504481,-0.6624244073017389
1.2136391777822055,10.662294259528519,-0.012146032913317775,0.04124901258540392,-0.5392783060384918
1.2112983241667883,10.654716888675804,-0.010147811043036387,0.030916424107125376,-0.41212143230442944
1.2094125067845045,10.649289797199494,-0.007812354502523374,0.020770161381530844,-0.2825276320913349
1.2080678389428292,10.645972081706269,-0.0049940058943840505,0.010827129030120466,-0.1521179840860662
1.2074014464035312,10.644707363550552,-0.001352589717978281,0.0012178057862233596,-0.022287930790555244
