x,y,v_x,v_y,omega
2.375,32.48,0.0,3.7435897435897436,-4.938775510204081
2.373860740695593,31.814614402880167,-0.012658436715631929,3.6495835577416966,-4.596063827961017
2.3706248618389267,31.16577276434296,-0.023295772802881816,3.559767981560583,-4.289179741631361
2.365628217957165,30.53274742093188,-0.032222492550030166,3.473846945229233,-4.013295781114325
2.359155425477324,29.914861406514184,-0.03969742389264704,3.3915532149673604,-3.764351080789756
2.3514483114667293,29.31148359663903,-0.04593717622507014,3.312644672534379,-3.5389131540702072
2.3427128338067997,28.722024467154952,-0.0511236866630354,3.236901210622016,-3.334067425409499
2.3331247759558864,28.145932367535465,-0.05541028945822278,3.164122118483398,-3.1473283836265566
2.3228344537413133,27.582690229264482,-0.058926624037036454,3.0941238623053122,-2.976567702200287
2.3119706214383786,27.03181264484313,-0.06178262377334753,3.026738186820844,-2.819955765317374
2.3006437257486265,26.492843264748057,-0.0640717727794559,2.961810480902169,-2.675913853101871
2.2889486263016443,25.965352468885076,-0.06587377663145551,2.8991983620198596,-2.5430748522115794
2.2769668778733885,25.448935276375064,-0.06725676146027527,2.838770443646937,-2.420250822801808
2.264768651089987,24.94320946334195,-0.0682790916886319,2.780405256720982,-2.306406108202559
2.252414353814739,24.447813863082228,-0.06899087803634216,2.723990301720373,-2.20063494726989
2.2399560038297324,23.962406826832552,-0.06943523290818084,2.669421212164913,-2.102142761462865
2.227438394164393,23.486664826503933,-0.06964931892892309,2.616601013708656,-2.010230454122194
2.214900084989198,23.02028118336012,-0.06966522746213051,2.5654394656670343,-1.9242811892051637
2.20237424999755,22.56296490879289,-0.06951071688951159,2.515852473968857,-1.843749219102251
2.1898894003438576,22.11443964517195,-0.06920983481818403,2.4677615662638286,-1.7681504123288172
2.177470005258716,21.67444269628794,-0.06878344390561084,2.42109342133623,-1.6970541965560537
2.1651370252409823,21.24272413821486,-0.0682496674025436,2.3757794461424684,-1.63007668421051
2.1529083710884964,20.819046002534023,-0.06762426762507479,2.331755394755715,-1.566874789488953
2.1407992998613365,20.4031815248186,-0.0669209682322569,2.2889610243045726,-1.5071411792348466
2.12882275708413,19.99491445210128,-0.0661517292922618,2.2473397836656126,-1.4505999273579036
2.116989673015722,19.594038403760134,-0.06532698257893976,2.2068385312360053,-1.3970027646393774
2.1053092195882304,19.200356280875653,-0.06445583328207885,2.1674072785915874,-1.346125833864766
2.0937890335973264,18.813679719650548,-0.06354623328352109,2.128998957242891,-1.2977668750593807
2.082435410874464,18.433828584954256,-0.06260513030383624,2.0915692060492237,-1.2517427778013395
2.071253475459808,18.060630500466438,-0.06163859652567572,2.0550761771487505,-1.2078874476518655
2.0602473271974806,17.69392041225636,-0.06065193972240821,2.019480358518768,-1.166049942073903
2.049420170672696,17.33354018295453,-0.05964979944186526,1.9847444115016026,-1.1260928381268844
2.0387744279871938,16.979338213955298,-0.05863623039704591,1.9508330218231782,-1.087890799985126
2.0283118375119042,16.63116909333941,-0.0576147748839475,1.9177127627978285,-1.051329319137122
2.0180335404530885,16.28889326742738,-0.056588525769565017,1.8853519695580288,-1.016303604150769
2.007940156811338,15.952376734072448,-0.05556018136099373,1.8537206232745527,-0.982717600271505
1.998031852094395,15.621490755977806,-0.05453209327170755,1.822790244443674,-0.9504831219674719
1.9883083959586008,15.296111592480468,-0.05350630823711594,1.792533794415643,-0.9195190839387625
1.9787692137948705,14.976120248384845,-0.05248460469322097,1.7629255844246057,-0.8897508181408982
1.9694134321391012,14.661402238555592,-0.05146852481532685,1.7339411914559784,-0.8611094660969421
1.960239918670392,14.351847367092663,-0.0504594026147739,1.705557380354346,-0.8335314372384228
1.9512473174603722,14.047349520013675,-0.049458388607668685,1.6777520316343892,-0.8069579252641013
1.9424340800508482,13.74780647046067,-0.04846647149815326,1.650504074510108,-0.7813344755719975
1.9337984928628034,13.453119695531353,-0.04748449725790073,1.62379342470454,-0.7566105977326589
1.9253387013757501,13.163194203909985,-0.046513185931579624,1.5976009266439968,-0.7327394177541886
1.9170527314610832,12.877938373540989,-0.04555314645360986,1.5719082996781757,-0.709677365561997
1.9089385082051449,12.597263798649873,-0.04460488972348126,1.546698088000875,-0.6873838936952106
1.9009938725161488,12.321085145471962,-0.043668840154252105,1.5219536139759378,-0.6658212237211506
1.8932165957729963,12.04932001610014,-0.04274534588077732,1.4976589345998512,-0.6449541173010075
1.8856094836194297,11.781889862088388,-0.04177812249218461,1.4737872210862766,-0.6232547057121924
1.8781745730978294,11.51871876035727,-0.04083199441448424,1.4503361314816818,-0.6024700989434223
1.8709080907304196,11.259732260027778,-0.03990669855673528,1.4272916499571082,-0.5825514902866743
1.8638063132813403,11.00485837990145,-0.0390019397663713,1.4046403514465498,-0.5634531686036207
1.8568655730349652,10.754027504951935,-0.038117396304459324,1.3823693702147315,-0.5451322905602697
1.8500822621503752,10.507172288295703,-0.03725272463543067,1.3604663704100868,-0.5275486718648401
1.8434528362079454,10.264227558297637,-0.036407563613790765,1.3389195184573066,-0.5106645957395397
1.8369738170500889,10.025130230492444,-0.03558153814017065,1.3177174571559742,-0.4944446370384229
1.8306417950059521,9.789819224025752,-0.034774262350237714,1.2968492813628012,-0.47885550058470017
1.8244534305791271,9.558235382340055,-0.03398534239226293,1.2763045151449701,-0.4638658724442231
1.8184054556680078,9.330321397849904,-0.0332143788423963,1.2560730903011637,-0.449446282979506
1.8124946743801198,9.106021740368838,-0.032460968800802806,1.23614532615512,-0.43556898064243643
1.8067179634944495,8.885282589066811,-0.03172470770664658,1.2165119105340692,-0.4222078155653954
1.8010722726193666,8.668051767752132,-0.03100519090538567,1.1971638818512584,-0.4093381321012717
1.7955546240880733,8.454278683285896,-0.03030201499787102,1.1780926122180333,-0.39693666954406137
1.7901621126285117,8.243914266949776,-0.029614778997259467,1.1592897915166442,-0.3849814703344783
1.784891904840256,8.036910918599961,-0.028943085316690337,1.140747412370177,-0.3734517951202243
1.7797412385070355,7.833222453451075,-0.02828654060798425,1.1224577559507805,-0.36232804409911323
1.774707421770084,7.632804051344049,-0.027644756469255273,1.1044133785717412,-0.3515916841258586
1.769787832184499,7.435612208361427,-0.027017350037242833,1.0866070990129688,-0.3412251811106616
1.7649799156780972,7.241604690662278,-0.02640394447833266,1.0690319865331335,-0.3312119372803575
1.7602811854298919,7.050740490417038,-0.0258041693906163,1.0516813495250792,-0.3215362329112971
1.7556892206832244,6.8629797837301005,-0.02521766112790941,1.0345487247742433,-0.31218317217780345
1.751201665506728,6.678283890444977,-0.024644063055387074,1.0176278672826693,-0.30313863279135467
1.7468162275146588,6.49661523573339,-0.02408302574537968,1.00091274062383,-0.2943892191339468
1.7425306765566948,6.317937313375616,-0.02353420712088735,0.9843975077959041,-0.28592221861470357
1.738347649146807,6.14243883032573,-0.022943875211200043,0.9655856372028258,-0.3272473978404764
1.7342666383198448,5.970317476140185,-0.022400689532822465,0.9468738537476671,-0.3696443514134035
1.7302793056090526,5.801555455950307,-0.02190300725375888,0.9282597039176363,-0.41301443929274356
1.7263776084580793,5.636135407924527,-0.021449183312612786,0.9097408297021257,-0.4572602213919008
1.722553800441219,5.4740403862725735,-0.021037572430275993,0.8913149664307002,-0.5022852399979284
1.7188004311464182,5.315253844607874,-0.020666530845290288,0.8729799409548717,-0.5479938022808222
1.71511034576947,5.159759619606017,-0.020334417787468757,0.8547336701768632,-0.5942907619070125
1.7114766844654168,5.007541914896265,-0.02003959670201147,0.8365741599314759,-0.6410812987388562
1.7078928815011745,4.8585852851217055,-0.019780436234015212,0.8184995042302922,-0.6882706955605632
1.7043526642518287,4.712874620101704,-0.019555310980934822,0.8005078848808255,-0.7357641107202119
1.7008500520819085,4.570395129027705,-0.019362602018179312,0.7825975714969282,-0.7834663455165681
1.6973793551522192,4.431132324620105,-0.019200697200592077,0.7647669219208444,-0.831281605087451
1.693935173192562,4.295072007169864,-0.01906799124004234,0.7470143830818226,-0.879113251472396
1.6905123942808542,4.162200248383584,-0.018962885556712602,0.729338492321268,-0.9268635474252425
1.6871061936698517,4.032503374944859,-0.018883787898870345,0.7117378792201033,-0.9744333894407619
1.6837120327038901,3.9059679516977113,-0.018829111722923116,0.69421126797044,-1.0217220283321888
1.6803256578698171,3.782580764349685,-0.018797275322332753,0.6767574803409626,-1.0686267755520147
1.6769431000286659,3.662328801582561,-0.018786700690459686,0.659375439293742,-1.1150426932850712
1.6735606738776532,3.5451992364473526,-0.0187958120985699,0.642064173319693,-1.160862266159126
1.6701749776958414,3.4311794069072086,-0.018823034366005815,0.6248228215707825,-1.2059750522122443
1.666782893431366,3.3202567953766753,-0.018866790794831962,0.6076506398795869,-1.2502673105265036
1.6633815871935873,3.212419007088105,-0.018925500736041333,0.5905470077711779,-1.2936216026828802
1.659968510219973,3.1076537470957,-0.018997576748562957,0.573511436588864,-1.3359163649113812
1.656541400395085,3.0059487957040076,-0.01908142130574845,0.5565435788743863,-1.377025447503548
1.6530982844078714,2.9072919820804515,-0.019175422996622903,0.5396432391651391,-1.41681761772234
1.6496374806437002,2.8116711557799228,-0.019277952160835117,0.5228103863962886,-1.455156022089976
1.6461576029194145,2.719074155873031,-0.019387355886784818,0.5060451681247488,-1.4918976035632356
1.642657565183354,2.6294887773275235,-0.019501952291666087,0.489347926825338,-1.5268924687278682
1.6391365873180095,2.542902734243963,-0.019620023989940182,0.4727192185475547,-1.559983199775194
1.6355942022010637,2.4593036194908606,-0.01973981064279006,0.4561598342647062,-1.5910041056898458
1.6320302642013527,2.378678860220404,-0.019859500465108763,0.4396708242959185,-1.6197804068163093
1.6284449593101593,2.301015668672541,-0.01997722054815291,0.4232535262358943,-1.6461273468412043
1.6248388171357062,2.2263009875915003,-0.02009102583465624,0.40690959688679174,-1.6698492263139326
1.6212127250203414,2.154521429484177,-0.020198886558285886,0.3906410487501247,-1.6907383522570814
1.6175679445764028,2.08566320884351,-0.020298673929921886,0.37445029170173827,-1.7085738993760151
1.6139061309790863,2.0197120663421764,-0.02038814381804082,0.3583401805353048,-1.7231206801373118
1.6102293554039822,1.9566531838739323,-0.020464918127558063,0.3423140691118353,-1.7341278239477207
1.6065401310549907,1.8964710891845016,-0.020526463527901856,0.3263758718818532,-1.7413273704142027
1.6028414432973719,1.8391495486971827,-0.020570067112309184,0.3105301335327989,-1.7444327890584965
1.5991367844941409,1.7846714470110214,-0.020592808479148104,0.2947821074245632,-1.7431374491535059
1.595430194246936,1.7330186514494201,-0.02059152760090538,0.27913784325987845,-1.7371130803889308
1.5917263058726916,1.6841718599947448,-0.02056278766847648,0.2636042840143032,-1.7260082905708798
1.58803040011724,1.6381104310074477,-0.020502831836540638,0.2481893714001009,-1.709447244496733
1.5843484673360728,1.5948121933730022,-0.02040753239865238,0.232902157871505,-1.6870286643612082
1.5806872796929827,1.5542532362646213,-0.02027233030234766,0.21775292111051442,-1.6583253950665584
1.5770544753919875,1.5164076787374547,-0.020092161930934146,0.20275327363576293,-1.6228848999637888
1.573458657654367,1.4812474211578213,-0.01986136848707138,0.18791625502685005,-1.5802312314039852
1.569909512227112,1.4487418834323655,-0.01957358070464906,0.17325638636709015,-1.5298692803095213
1.566417948906606,1.4188577397365947,-0.019221567300975188,0.15878965469703682,-1.4712924815700883
1.562996275292919,1.3915586667812399,-0.018797028406657205,0.14453337814025696,-1.4039956746050803
1.5596584154428341,1.3668051336644709,-0.01829030326095096,0.13050587871274028,-1.3274955229772525
1.5564201934043926,1.34455427718623,-0.017689941610623473,0.11672585993438939,-1.24136177890071
1.5532997136629876,1.324759927822324,-0.016982055516098202,0.10321135522013934,-1.1452636171310449
1.55031789032698,1.3073728770605797,-0.01614931488398459,0.08997809768812462,-1.0390358433177567
1.5474992092430462,1.2923414997010454,-0.01516936382639289,0.07703720630668412,-0.9227689471136555
1.5448728600268802,1.2796128456979083,-0.01401229413100535,0.06439228261706295,-0.7969224783172755
1.5424744629793006,1.2691342513683992,-0.012636561953213202,0.05203654326638029,-0.6624492497555571
1.5403487765139037,1.260855305261984,-0.010982176551195988,0.03995174680488202,-0.5208942146216828
1.5385541359801715,1.2547294948089949,-0.008958273823605718,0.02811281378387391,-0.374397873321484
1.5371705281679133,1.2507137332602625,-0.006415146312596383,0.016506758979806996,-0.2255074857112844
1.536318631443546,1.2487604338111247,-0.003050372847039676,0.005196568232823665,-0.07671775132977562
