x,y,v_x,v_y,omega
2.375,32.48,0.0,2.6666666666666665,-5.3061224489795915
2.3741773015571406,32.00478570788508,-0.00914109380954727,2.613492134610229,-5.033137918524357
2.371809135870727,31.538987440365563,-0.017171858261715585,2.5620441711621313,-4.78067622216772
2.368083926551898,31.082302978344014,-0.024219356391941407,2.512227629077299,-4.546695567519987
2.3631686540859493,30.634446553702087,-0.03039478211859737,2.4639548669441105,-4.329397879802518
2.357211513324625,30.19514757163709,-0.03579567078501032,2.417144933778079,-4.127195247462949
2.3503442041034632,29.76414946939297,-0.04050776500567377,2.3717228689344143,-3.9386816008117016
2.3426839116087987,29.34120869242033,-0.04460659604615453,2.327619097428199,-3.762608708729365
2.3343350233381734,28.926093772226967,-0.04815882918301235,2.284768904720311,-3.5978657565212253
2.325390621606739,28.518584492771566,-0.051223412277372524,2.24311197811746,-3.443461907739165
2.3159337841437684,28.11847113434886,-0.05385255953341026,2.20259200435708,-3.2985113632805536
2.306038720087769,27.725553785619386,-0.056092596644360684,2.163156314859263,-3.1622205190219437
2.295771764387498,27.339641715833917,-0.05798468891420958,2.1247555716459554,-3.033876893690404
2.2851922500647026,26.960552800453122,-0.05956547022795908,2.087343488140635,-2.9128395554306024
2.2743532748481217,26.58811299431715,-0.060867587734050585,2.050876580036859,-2.798530821501258
2.2633023762334283,26.2221558473147,-0.061920174651433395,2.0153139422125856,-2.6904290429679
2.2520821269701665,25.862522058167812,-0.06274926160703048,1.9806170483084042,-2.588062316882808
2.240730661252265,25.509059062509962,-0.06337813525854315,1.9467495701121176,-2.4910029936087215
2.229282140435583,25.161620651910788,-0.0638276515934746,1.9136772143231526,-2.3988628677104216
2.2177671658774596,24.820066620905322,-0.06411651016345601,1.881367574626453,-2.311288958044479
2.206213145451427,24.484262439431824,-0.06426149457024227,1.849789997301319,-2.227959796986507
2.194644619404254,24.15407894837933,-0.06427768373167705,1.818915458837543,-2.1485821606772473
2.1830835504668618,23.82939207620251,-0.06417863779490106,1.7887164542382157,-2.0728881821688763
2.171549582484615,23.510082574783404,-0.06397656200784321,1.7591668948629775,-2.0006327977535605
2.1600602712787578,23.19603577291256,-0.06368245139057181,1.7302420148130588,-1.9315914838348789
2.1486312909750405,22.887141345930747,-0.06330621865072834,1.701918284984857,-1.865558247684533
2.1372766186259713,22.583293100219787,-0.06285680745004073,1.6741733340258063,-1.8023438404958023
2.126008699599689,22.284388771360845,-0.06234229284198429,1.6469858755179692,-1.7417741654521117
2.1148385959028766,21.990329834892805,-0.06176997045593329,1.6203356407936265,-1.6836888571977375
2.1037761193403886,21.70102132870441,-0.061146435793931773,1.594203316855191,-1.6279400122303125
2.092829951184508,21.416371686183677,-0.060477654826960756,1.56857048893073,-1.5743910524159814
2.082007749826951,21.136292579327623,-0.059769026923672974,1.5434195872476213,-1.5229157061280385
2.0713162477127267,20.8606987710867,-0.059025441012153956,1.5187338376515596,-1.4733970934871583
2.0607613387031316,20.58950797628171,-0.05825132576112475,1.494497215737212,-1.4257269038847458
2.0503523398975485,20.32264387425768,-0.057404216523132434,1.470659473418672,-1.3777319353473714
2.0400967760511532,20.060032679926046,-0.056546492881260256,1.4472426858217233,-1.3317686590192026
2.0299963294639056,19.801599892093748,-0.0556806914214901,1.4242327345371268,-1.2877282165546358
2.0200522500136793,19.5472734966595,-0.05480908024769281,1.4016161036212258,-1.2455086836774938
2.01026540111234,19.296983861112906,-0.05393368532274296,1.379379846896456,-1.2050145576126274
2.000636301159604,19.05066363472792,-0.05305631415209933,1.357511557381173,-1.1661562875082776
1.9911651609475562,18.808247654081917,-0.05217857709287882,1.3359993386855535,-1.1288498438204992
1.9818519174206533,18.569672853559986,-0.05130190653937523,1.3148317782247945,-1.093016323047682
1.9726962641534098,18.334878180529508,-0.050427574207773634,1.2939979221138151,-1.0585815845728053
1.9636976788700915,18.103804514893522,-0.04955670671798666,1.2734872516193823,-1.02547591669931
1.9548554482970932,17.876394592752725,-0.048690299648660666,1.2532896610561204,-0.9936337292583829
1.9461686906087252,17.65259293392566,-0.047829230222094794,1.233395437022407,-0.9629932704254021
1.937636375700448,17.432345773094372,-0.04697426875876275,1.2137952388807705,-0.933496365615062
1.9292573434998153,17.215600994359534,-0.04612608902604587,1.194480080395216,-0.9050881765316281
1.921030320504152,17.002308069003917,-0.04528527759243497,1.17544131244499,-0.8777169786357177
1.9129539347150364,16.7924179962772,-0.04445234228662573,1.1566706067407202,-0.8513339554545285
1.905026729122701,16.585883247027812,-0.043627719850435794,1.1381599404747214,-0.8258930083107306
1.897247173878298,16.382657710019256,-0.04281178286514994,1.1199015818425788,-0.8013505801782618
1.8896136772783994,16.182696640779405,-0.04200484602261398,1.1018880763779748,-0.7776654924927096
1.8821245956739119,15.985956612841143,-0.04120717180502603,1.0841122340471507,-0.7547987938513483
1.8747782424046868,15.792395471242088,-0.040418975630808374,1.0665671170534476,-0.7327136196345265
1.8675728958512858,15.601972288159732,-0.039640430518091234,1.0492460283060614,-0.7113750616671544
1.8605068066865669,15.414647320566239,-0.038871671312119056,1.0321425005105438,-0.6907500471175397
1.8535782044018356,15.23038196979454,-0.03811279851822804,1.0152502858416763,-0.670807225901682
1.846785303175186,15.049138742914192,-0.0373638817778777,0.9985633461622003,-0.6515168659251588
1.8401319646181102,14.871105827889291,-0.03656210218962979,0.9795801541144695,-0.6823372528538781
1.8336188985365116,14.696480248863772,-0.03580529871702294,0.9607040572802031,-0.714517697878898
1.8272381335295254,14.525242971373153,-0.035092090249490726,0.9419323592822268,-0.747948885417245
1.820981949059619,14.35737543645839,-0.03442107052724508,0.9232624731040403,-0.782523202233128
1.814842879661811,14.19285954124074,-0.03379081167062355,0.9046919182032034,-0.8181344993612638
1.8088137185508821,14.031677619981352,-0.03319986733969887,0.886218318012215,-0.8546778559652498
1.8028875206911494,13.873812425555897,-0.032646775546219635,0.8678393978261759,-0.8920493441082581
1.797057605389633,13.719247111274385,-0.03213006113729543,0.8495529830795115,-0.930145793395452
1.7913175584701875,13.567965212975682,-0.031648237967654355,0.831356998017178,-0.9688645544215003
1.7856612340833702,13.419950631324916,-0.031199810774761767,0.8132494647691294,-1.0081032599219912
1.7800827562044699,13.275187614240057,-0.03078327676857368,0.7952285028404318,-1.0477595824839336
1.774576519870232,13.133660739371418,-0.03039712694518082,0.7772923290333266,-1.08773098761731
1.7691371922033707,12.995354896554453,-0.030039847131055723,0.7594392578218377,-1.1279144809261648
1.7637597132729943,12.860255270152106,-0.029709918762017347,0.7416677022042458,-1.168206348043226
1.7584392968385614,12.728347321197962,-0.029405819398347285,0.7239761750640028,-1.2085018859057883
1.7531714310249873,12.599616769245404,-0.02912602297469761,0.7063632910755271,-1.2486951238516222
1.7479518789770205,12.474049573820796,-0.028868999780488826,0.6888277691978931,-1.28867853290116
1.7427766795420732,12.351631915370369,-0.028633216163370882,0.6713684358068421,-1.328342721465163
1.7376421480323225,12.2323501755806,-0.028417133944969707,0.6539842285239171,-1.3675761155746504
1.7325448771191683,12.116190916940454,-0.028219209534521728,0.6366742008110259,-1.4062646215712653
1.7274817379160758,12.003140861400603,-0.02803789272205902,0.6194375274095278,-1.444291269020889
1.7224498813095264,11.893186867969376,-0.02787162512849206,0.6022735107152243,-1.481535831420965
1.7174467396022957,11.78631590906749,-0.02771883828518237,0.5851815881946248,-1.5178744220630216
1.7124700285386993,11.682515045443232,-0.027577951310331673,0.568161340963809,-1.553179062187467
1.7075177497878404,11.581771399426245,-0.027447368143655924,0.551212503669361,-1.5873172183304378
1.7025881939684275,11.484072126271165,-0.027325474294266638,0.5343349758315161,-1.620151305516705
1.6976799443075028,11.389404383311351,-0.027210633049338715,0.5175288348330926,-1.6515381527056352
1.6927918810356037,11.297755296607587,-0.02710118108287278,0.5007943507642896,-1.6813284266601787
1.6879231866326398,11.20911192473611,-0.026995423394504624,0.48413200336322254,-1.7093660101987957
1.683073352052343,11.123461219314141,-0.02689162749768278,0.46754250132531905,-1.7354873306323253
1.6782421840687567,11.040789981808636,-0.026788016764386628,0.4510268042913813,-1.7595206341188947
1.6734298139061996,10.961084816114653,-0.02668276281958074,0.434586147863974,-1.7812852017436063
1.6686367073348227,10.884332076322927,-0.0265739768623843,0.4182220720440775,-1.8005905034230896
1.6638636764377361,10.81051780902187,-0.026459699771912867,0.4019364535232305,-1.8172352863590637
1.6591118932832822,10.73962768939705,-0.026337890833130782,0.38573154230810963,-1.831006595878923
1.6543829057681383,10.671646950302183,-0.02620641489069062,0.3696100031904002,-1.8416787283329856
1.6496786559345316,10.60656030338123,-0.0260630277049386,0.3535749625979854,-1.8490121185939097
1.645001501109354,10.544351851224736,-0.02590535924147967,0.33763006136304285,-1.8527521690916242
1.6403542382663199,10.485004989450914,-0.02573089457001012,0.3217795139016396,-1.8526280338876993
1.6357401320774079,10.428502297522499,-0.025536951973456873,0.3060281741918484,-1.8483513810089776
1.6311629472009244,10.374825417060105,-0.025320657765248562,0.29038160872364993,-1.8396151705039285
1.626626985457147,10.323954916415712,-0.025078917165610483,0.2748461762140541,-1.8260925064420488
1.6221371286786848,10.275870140364386,-0.024808380372859044,0.2594291132451359,-1.8074356511955256
1.617698888207192,10.230549044016165,-0.024505402643727487,0.24413862395734037,-1.7832753338994503
1.6133184622658387,10.187968010531332,-0.024165996704642003,0.22898397031856588,-1.7532205477811533
1.6090028028078218,10.148101653072178,-0.02378577505110082,0.21397555700537285,-1.7168591212460904
1.6047596939892859,10.110922602836364,-0.023359878488189083,0.1991250011703422,-1.6737594764987742
1.6005978452437954,10.07640128727148,-0.022882885350593046,0.1844451717728359,-1.623474172193983
1.596527003212481,10.044505706061727,-0.022348692775121987,0.16995017500218093,-1.5655460823019969
1.592558088780184,10.01520121773908,-0.02175035647262169,0.15565525080503118,-1.49951841358011
1.5887033686203202,9.988450357469073,-0.021079867525867067,0.14157652997282158,-1.4249502264207008
1.5849766756587957,9.964212717407353,-0.020327832046627827,0.12773058182408165,-1.3414396948623644
1.5813937008347965,9.942444935471283,-0.01948299933114091,0.1141336619100469,-1.248657955544663
1.5779723911804744,9.923100855844826,-0.01853155238354944,0.10080055616167966,-1.1463968370650581
1.5747335091908703,9.906131941697826,-0.01745602527871823,0.08774293436056016,-1.0346334987088415
1.5717014397652547,9.891488027939399,-0.01623363500590029,0.07496721851084806,-0.913612927481082
1.568905380506573,9.879118477803448,-0.014833690090563206,0.06247222744417593,-0.7839433873457168
1.5663811335041058,9.868973710059876,-0.013213498825736676,0.05024741415108345,-0.6466877233986416
1.5641738749846672,9.861006823324079,-0.01131159583469334,0.038273549580012285,-0.5034137418239906
1.5623426727438692,9.855174541331191,-0.009035095729729523,0.026529583674289904,-0.3561450338288983
1.5609688537132667,9.851435594606073,-0.0062295601658543896,0.015014268827005703,-0.20714604384302004
1.56017696644816,9.849740590131809,-0.0025691872242204856,0.003819114220394092,-0.058510363902921386
