x,y,v_x,v_y,omega
2.375,32.48,0.0,2.6153846153846154,-5.061224489795919
2.374036785418402,31.96245290409698,-0.009632145815979862,2.5600863436455454,-4.78043535544817
2.371272263783401,31.455770175378223,-0.01801307053403038,2.5067409435420385,-4.52260077774523
2.366941265016723,30.959572798734236,-0.025296917132750927,2.45523282289781,-4.285252479617589
2.3612498615920967,30.473503899316263,-0.0316171171135107,2.405456171281933,-4.066239456167495
2.3543792011003712,29.997226899887693,-0.037089487803744284,2.3573138230037824,-3.8636810548684393
2.3464887710709847,29.530423888391923,-0.04181481249011909,2.310716291953913,-3.6759278967315514
2.337719189834761,29.07279416453655,-0.04588099987211643,2.2655809465998145,-3.5015291729486147
2.3281945999248443,28.624052939857602,-0.049364899227052075,2.2218313001896695,-3.3392051556244575
2.3180247267786256,28.18393017020182,-0.052333832235137975,2.1793963963681477,-3.187823995725041
2.307306654511449,27.75216950312761,-0.05484689043662379,2.138210274373924,-3.046382063722494
2.2961263616753946,27.32852732558369,-0.05695603792392383,2.0982115010653213,-2.9139872313061486
2.2845600527346055,26.912771899534622,-0.05870705148396747,2.059342759425336,-2.7898446052879406
2.272675315132384,26.504682575083034,-0.060140324538244354,2.021550485090537,-2.6732443144009186
2.2605321270249368,26.104049072179063,-0.06129155653622838,1.984784543949193,-2.5635510212755905
2.2481837368029876,25.71067082327896,-0.06219234568326654,1.9489979450518375,-2.46019488941749
2.2356774322516526,25.3243563703698,-0.06287069983008245,1.9141465840397485,-2.362663781503008
2.2230552144819202,24.944922810658348,-0.0633514778672401,1.880189013074751,-2.270496503066102
2.2103543895013944,24.57219528596222,-0.0636567719380173,1.8470862338865341,-2.183276936450986
2.1976080883959184,24.206006511466423,-0.06380623911674381,1.814801511071436,-2.1006289351457825
2.1848457255016487,23.846196340039004,-0.06381738982595182,1.783300203202759,-2.022211869379138
2.1720934026061696,23.4926113587522,-0.0637058391288405,1.7525496096653046,-1.9477167310150554
2.159374266084356,23.14510451464365,-0.06348552608929425,1.7225188314201885,-1.8768627200017367
2.146708822914956,22.803534767086493,-0.0631689056047058,1.6931786441513588,-1.8093942464605446
2.134115220708603,22.467766764426212,-0.06276711645882559,1.6645013824514492,-1.745078292375733
2.121609496183722,22.137670542793195,-0.06229012878998407,1.6364608338787425,-1.6837020851137223
2.109205795934139,21.813121245218845,-0.06174687370584943,1.6090321418647655,-1.6250710419446066
2.0969165728251147,21.493998859374575,-0.06114535738439035,1.5821917165779231,-1.569006950587204
2.084752760919709,21.18018797242115,-0.06049276166966656,1.555917152956311,-1.5153463557386373
2.0727239314636985,20.871577541603983,-0.059795532890440456,1.5301871552153976,-1.4639391257325145
2.0608384321355393,20.568060679360833,-0.05905946039114865,1.5049814672160973,-1.4146471770211522
2.049103511490255,20.269534451824438,-0.05828974606169204,1.4802808081478498,-1.3673433371997554
2.037537213976802,19.975903165691985,-0.057373229072843424,1.4560320531766682,-1.3183606223865805
2.026155127369429,19.68707451557596,-0.05644763700088379,1.432254447983561,-1.2716100577768852
2.0149587809527647,19.402955953660516,-0.05551582716576189,1.408931171170865,-1.2269635146876567
2.0039491655781165,19.123458219232077,-0.05458032658071937,1.3860461731135678,-1.1843016134607334
1.9931267962275223,18.84849518880489,-0.053643366925222404,1.3635841311583112,-1.1435130309685158
1.9824917679623564,18.57798373489471,-0.05270691572643736,1.341530407943506,-1.1044938702717948
1.972043805971492,18.311843592841853,-0.05177270418220464,1.3198710125850477,-1.0671470862022636
1.9617823103526781,18.049997235133723,-0.05084225200593604,1.2985925644962533,-1.0313819613304716
1.9517063961892727,17.79236975272088,-0.04991688962811725,1.2776822596321733,-0.9971136273850756
1.9418149294215405,17.53888874286089,-0.04899777804920538,1.25712783896769,-0.9642626277221293
1.9321065589562323,17.289484203060518,-0.04808592660387539,1.2369175590360564,-0.9327545169131715
1.9225797454092342,17.04408843071991,-0.04718220886610783,1.2170401643700022,-0.9025194939360659
1.9132327868328294,16.802635928112768,-0.046287376897939464,1.1974848617014375,-0.8734920658198445
1.9040638417409037,16.565063312363794,-0.04540207402131742,1.1782412957882977,-0.8456107389201961
1.8950709497115743,16.33130923011013,-0.04452684627197535,1.15929952674835,-0.818817735290913
1.8862520498167552,16.101314276556298,-0.04366215267621622,1.1406500087899707,-0.793058731873043
1.8776049971015716,15.87502091865339,-0.04280837447562047,1.122283570239102,-0.7682826204515992
1.8691275773129372,15.652373422152486,-0.04196582341072408,1.1041913947699313,-0.7444412865328418
1.8608175200556256,15.433317782300055,-0.04113474916238999,1.0863650037543873,-0.7214894054763232
1.8526725105355146,15.217801657959374,-0.04031534603872071,1.0687962396524082,-0.6993842543776604
1.8446902000330674,15.005774308957019,-0.039507758985750506,1.0514772503711576,-0.678085538342608
1.8368682152353268,14.797186536467198,-0.03871208899165636,1.0344004745270359,-0.6575552299224405
1.829204166541491,14.591990626259545,-0.03792839794670211,1.0175586275494994,-0.6377574205966203
1.8216956554453745,14.390140294647555,-0.03715671301446176,1.0009446885703996,-0.6186581832927631
1.814340281087533,14.19159063698583,-0.03639703056395293,0.9845518880468573,-0.6002254450273344
1.8071418896853964,13.996484950877871,-0.03558688345741411,0.9665049730327038,-0.6196532625536113
1.8001014960681272,13.804977263961337,-0.034817052715277005,0.9485718961326319,-0.6408664690891936
1.7932111183388768,13.617045118272625,-0.03408672457722802,0.9307495607544939,-0.6637495523166587
1.7864629435749706,13.43266666270538,-0.03339502306183332,0.9130349949179629,-0.6881896993028387
1.7798493396402966,13.251820628547897,-0.032741016284906915,0.8954253466568602,-0.7140765424202652
1.773362865789104,13.074486305897445,-0.032123722227019404,0.8779178798476741,-0.7413019114131819
1.7669962821675589,12.900643520867497,-0.03154211398843268,0.860509970451784,-0.7697595905733515
1.7607425583120908,12.730272613506148,-0.03099512456624798,0.8431991031616959,-0.7993450800039992
1.7545948807369411,12.56335441634554,-0.030481651185245977,0.8259828684443985,-0.8299553599559062
1.7485466596973414,12.399870233503318,-0.03000055921075201,0.8088589599778098,-0.8614886572177968
1.7425915352093813,12.239801820257615,-0.029550685668851145,0.7918251724792235,-0.893844212533594
1.7367233824028578,12.083131363016918,-0.029130842396381584,0.7748793999277355,-0.9269220480016055
1.730936316279187,11.929841459605559,-0.02873981884032594,0.7580196341858569,-0.9606227333849122
1.7252246959428073,11.779915099784077,-0.02837638452347319,0.7412439640289668,-0.994847150227782
1.7195831283714083,11.633335645921683,-0.028039291190514085,0.7245505745949559,-1.0294962526293094
1.7140064717877537,11.490086813735143,-0.027727274646033463,0.7079377472704397,-1.0644708234721432
1.7084898386938354,11.350152653004667,-0.02743905629314687,0.6914038600343164,-1.0996712248404483
1.703028598626644,11.213517528172805,-0.027173344378767825,0.6749473882843091,-1.1349971412864406
1.6976183806939016,11.080166098726622,-0.026928834948655198,0.6585669061775233,-1.1703473145181298
1.6922550759477917,10.950083299256661,-0.026704212512445275,0.6422610885220825,-1.2056192679815032
1.6869348396549686,10.823254319078085,-0.02649815041578425,0.626028713263667,-1.2407090196973622
1.6816540935220496,10.699664581289877,-0.026309310913406256,0.6098686646184137,-1.275510781585587
1.6764095279373583,10.57929972113681,-0.026136344933506462,0.5937799369122576,-1.3099166433669285
1.6711981042920088,10.462145563525926,-0.025977891519991747,0.5777616391965882,-1.3438162389739061
1.6660170574464994,10.348188099534145,-0.025832576935100375,0.5618130007212143,-1.3770963932276654
1.6608638984129485,10.237413461726195,-0.025699013400408373,0.5459333773582956,-1.4096407463468326
1.655736417327976,10.129807898081832,-0.025575797449317313,0.5301222590853196,-1.441329353648319
1.6506326867971772,10.025357744308138,-0.025461507858670854,0.5143792786516327,-1.472038257580572
1.6455510656992014,9.924049394285802,-0.02535470312108846,0.4987042215717256,-1.5016390290004415
1.6404902035458089,9.825869268367658,-0.02525391841283415,0.48309703760970646,-1.5299982743714537
1.6354490455040818,9.730803779212344,-0.02515766200443717,0.4675578539434324,-1.5569771053330543
1.630426838198367,9.638839294795616,-0.025064411052709512,0.4520869902238612,-1.5824305668813339
1.6254231364227874,9.549962098195682,-0.024972606703089678,0.4366849757754967,-1.6062070202328367
1.6204378109104614,9.464158343696393,-0.02488064842016955,0.42135256921740044,-1.6281474763451327
1.6154710573232887,9.381414008692559,-0.024786887451557525,0.40609078082095096,-1.6480848760858224
1.6105234066465792,9.30171484081448,-0.0246896193155365,0.39090089795983407,-1.6658433132405834
1.6055957371964453,9.225046299613645,-0.024587075185802644,0.3757845140485242,-1.681237197024391
1.600689288475241,9.15139349206822,-0.024477412026240368,0.3607435614057427,-1.6940703516427091
1.5958056771421942,9.080741101076086,-0.02435870130422776,0.34578034851559825,-1.704135051934235
1.5909469154036768,9.013073306005957,-0.02422891608094605,0.3308976021856835,-1.7112109964903968
1.5861154321716378,8.948373694276455,-0.024085916239444352,0.31609851510933795,-1.7150642232861317
1.5813140973914415,8.886625162834065,-0.023927431562517767,0.301386799314553,-1.7154459783410267
1.5765462500044172,8.827809808312317,-0.023751042307727486,0.28676674590292084,-1.7120915560778176
1.571815730089826,8.771908804590474,-0.023554156838183356,0.2722432913154964,-1.704719142032555
1.5671269158317636,8.718902266453103,-0.02333398574244154,0.25782209005821305,-1.693028706088588
1.5624847660880246,8.668769098117085,-0.023087511694949634,0.24350959330195057,-1.6767010198852494
1.5578948695147705,8.62148682559404,-0.02281145403759065,0.22931313192851452,-1.655396908976942
1.553363501445931,8.577031412275538,-0.02250222665080131,0.2152410012565052,-1.628756903663566
1.5488976900763842,8.535377057889264,-0.022155887044667085,0.20130254260623512,-1.5964015292167248
1.544505294012089,8.496495982258548,-0.021768073598285545,0.18750821370093532,-1.5579325862927091
1.540195094023796,8.46035819737175,-0.021333926284643555,0.17386963516702533,-1.5129359289508038
1.5359769030280872,8.426931274510107,-0.020847983672444413,0.16039959344940094,-1.4609864680710067
1.5318617001704897,8.396180118111651,-0.02030404490353216,0.14711197053516067,-1.4016564322998826
1.5278617978046447,8.368066765331722,-0.019694978754917828,0.13402155726414736,-1.3345283258391982
1.5239910547984417,8.34255024065159,-0.019012451307111097,0.121143689537157,-1.259214537269032
1.520265156984209,8.319586508990103,-0.018246526835214452,0.10849362707772897,-1.1753861356765347
1.51670199731854,8.299128588395188,-0.01738506982147532,0.09608557887140502,-1.0828138849587563
1.5133222069089984,8.28112690204565,-0.016412834273940247,0.08393128462398071,-0.9814245091491274
1.5101499173092257,8.265529961132557,-0.015310061723789176,0.07203812450693234,-0.8713738649357652
1.5072138805946342,8.25228545652526,-0.014050305422126314,0.060406921566016764,-0.7531342793080188
1.5045491490904999,8.24134176033375,-0.012597009619216119,0.049030040349090184,-0.6275835131123576
1.5021996551460575,8.232649632847345,-0.010897929825209252,0.03789123451497041,-0.49606583893207173
1.5002223533270582,8.22616348758909,-0.008875088364781321,0.026970218067561363,-0.3603745101366488
1.498694601809421,8.221840627861138,-0.006402426811593238,0.0162583792119525,-0.22259246729745844
1.497731013651821,8.219633957257852,-0.003233454764405135,0.005808326820915017,-0.08474656535326477
