x,y,v_x,v_y,omega
2.375,32.48,0.0,2.4615384615384617,-7.142857142857143
2.373321150702665,31.92028618859863,-0.014598689542046026,2.4055381593429823,-6.715706234119087
2.3685169000171693,31.373195576938578,-0.027177403375303392,2.3517715072661662,-6.326527062375033
2.3610209816485255,30.83823233568965,-0.0380044954824693,2.300082764463652,-5.970868769623331
2.351209946064638,30.314934577805552,-0.04730885742090014,2.2503325214850194,-5.644909383341751
2.3394114786695206,29.80287087662864,-0.05528651123229536,2.2023953148359543,-5.345352251144147
2.325911346540669,29.301637281830665,-0.06210594206206595,2.1561576834073217,-5.069342042942852
2.3109592319279666,28.81085474262488,-0.06791244587447613,2.111516570556009,-4.814396125686983
2.2947736552120666,28.330166867113718,-0.07283169948117674,2.0683779991062603,-4.578348124899714
2.2775461480346415,27.85923796138339,-0.07697271075730315,2.0266559637661756,-4.359301227346062
2.259444805166705,27.397751303255347,-0.08043027070301266,1.986271498216787,-4.155589328683002
2.2406173187965472,26.945407614337682,-0.08328700208096979,1.9471518836759794,-3.965744542617783
2.2211935794610453,26.501923700826723,-0.08561507909730648,1.9092299729410336,-3.788469901274938
2.2012879124897697,26.067031238858362,-0.08747767717465531,1.8724436093925512,-3.6226163164521563
2.1810010066133874,25.640475684444134,-0.08893020001127984,1.8367351246442043,-3.4671630569920526
2.1604215815914207,25.222015291406564,-0.09002132191886288,1.8020509017694584,-3.3212011421514624
2.1396278338047248,24.811420223443275,-0.09079387622632167,1.7683409935635015,-3.183919164493661
2.1186886923310477,24.40847174864634,-0.09128561484912832,1.735558787279427,-3.054591145747651
2.0976649127694094,24.012961506592504,-0.09152985959990115,1.7036607088408615,-2.9325661006972368
2.0766100317631757,23.624690839586695,-0.09155606219343856,1.6726059607748818,-2.8172590415571186
2.0555712016082306,23.2434701808509,-0.09139028697999525,1.642356289101592,-2.7081432015528515
2.034589921376999,22.869118493454486,-0.09105562807419329,1.6128757752150389,-2.604743293906183
2.013702678527346,22.501462754619613,-0.09057257061843974,1.5841306494360414,-2.506629652953694
1.9929415129070993,22.140337480738506,-0.08995930434022728,1.5560891234431464,-2.4134131291031276
1.972334513337718,21.785584289032464,-0.08923199626308947,1.5287212392181018,-2.3247406298573483
1.9519062555063975,21.437051492285317,-0.08840502835708887,1.501998732496205,-2.240291216073644
1.9316781886675956,21.094593723512716,-0.08749120502379754,1.4758949090046876,-2.1597726766578247
1.9117073363716932,20.758081602042576,-0.08616838015796092,1.450297451605209,-2.07426782912835
1.892044321842655,20.427390741545913,-0.08481435487715448,1.4252752483657876,-1.9931245895443224
1.8726955194374981,20.102391482876644,-0.08343610081986184,1.4008052618017548,-1.9160638768164293
1.853665796481745,19.78295932630956,-0.08203975096929424,1.3768656648685664,-1.8428278754352236
1.8349586951854033,19.468974662463197,-0.08063069508584936,1.3534357598824032,-1.7731781572199843
1.8165765939000034,19.160322521109926,-0.07921366391762856,1.3304959040590725,-1.7068939913618764
1.7985208501370282,18.85689233642497,-0.0777928035865052,1.3080274410275337,-1.6437708216527043
1.780791927468027,18.558577727365844,-0.07637174136132924,1.2860126377474685,-1.5836188924074315
1.7633895081663713,18.265276291997637,-0.0749536438704613,1.2644346263239035,-1.5262620068497692
1.7463125932243462,17.97688941468964,-0.07354126866888842,1.2432773502673475,-1.4715364036881973
1.7295595911823352,17.693322085207306,-0.07213700995729223,1.2225255147964118,-1.419289739309017
1.7131283970351374,17.414482728811144,-0.07074293914877496,1.2021645408224095,-1.36938016449067
1.6970164623305504,17.140283046552895,-0.06936084089111245,1.1821805222928243,-1.3216754858310527
1.6812208574442882,16.870637865029817,-0.06799224507638614,1.1625601866034831,-1.2760524032034963
1.6657383269005497,16.605464994921306,-0.06663845530394907,1.143290857818374,-1.2323958155400825
1.6505653385069667,16.344685097689084,-0.06530057420546817,1.1243604224618096,-1.1905981881022045
1.6356981269843687,16.08822155987387,-0.06397952599103651,1.105757297670497,-1.1505589751541796
1.6211327326942162,15.836000374467723,-0.06267607653202831,1.0874704015133898,-1.1121840926202342
1.6068650359982946,15.587950028883572,-0.06139085125859353,1.069489125305299,-1.0753854358903407
1.5928907877251355,15.344001399081478,-0.06012435111670298,1.051803307756391,-1.0400804384564601
1.579205636164621,15.104087649445866,-0.05887696680081455,1.0344032108141468,-1.0061916675165903
1.5658051509654343,14.8681441380395,-0.05764899145298367,1.017279497067284,-0.9736464530872675
1.5526848442686734,14.636108326888596,-0.056440631997111634,1.0004232085927633,-0.9423765475224019
1.5398401893743807,14.407919696979626,-0.055252019257606255,0.9838257471374171,-0.9123178126532439
1.5272780251493288,14.1836482651074,-0.05398419139501926,0.9663606169688821,-0.9058103934475868
1.5150027467561524,13.96337812090568,-0.0527573598499909,0.9490319413069382,-0.9020938326436821
1.5030049272981496,13.747078368846505,-0.051571505002208515,0.9318354679032916,-0.9010165177419758
1.4912751605443733,13.534719069839063,-0.05042646676976091,0.9147671321614239,-0.9024321447489052
1.4798040917564026,13.326271199146777,-0.04932195747346157,0.8978230477715057,-0.9061993378655283
1.4685824456775856,13.121706606375664,-0.048257573646687466,0.8809994980642694,-0.9121812869980586
1.4576010519179992,12.920997977373556,-0.047232806871453925,0.864292928041009,-0.9202454013867332
1.4468508679505807,12.724118797889066,-0.04624705371479486,0.8476999370415083,-0.930262977746659
1.4363229999175402,12.531043318847448,-0.04529962483338284,0.8312172720160491,-0.9421088813989651
1.4260087214312063,12.341746523107847,-0.04438975330865153,0.8148418213717732,-0.9556612389435377
1.4158994905397275,12.156204093572821,-0.0435166022694257,0.7985706093675979,-0.9708011410864947
1.4059869650155132,11.974392382526446,-0.0426792718541772,0.7824007910356721,-0.9874123542869113
1.3962630161128287,11.796288382082075,-0.04187680556046912,0.7663296476110321,-1.0053810399285585
1.3867197409305128,11.621869695624511,-0.041108196024886086,0.750354582454736,-1.0245954797538843
1.3773494735062854,11.451114510134392,-0.04037239027274289,0.7344731174593422,-1.0449458063193533
1.3681447947605156,11.284001569284708,-0.03966829447308183,0.7186828899292113,-1.0663237372436927
1.35909854139956,11.120510147200694,-0.038994778230880864,0.7029816499317879,-1.0886223120235738
1.3502038138818373,10.960620022774762,-0.038350678444969095,0.6873672581198065,-1.1117356301847343
1.3414539835436277,10.80431145442773,-0.037734802756853744,0.6718376840283162,-1.135558589520343
1.3328426989761548,10.651565155206196,-0.03714593261247477,0.6563910048545905,-1.1599866231423104
1.3243638917408043,10.502362268103575,-0.036582825955790196,0.6410254047334286,-1.1849154340349157
1.3160117815053352,10.356684341488837,-0.03604421957002809,0.6257391745251493,-1.2102407257532155
1.3077808806806521,10.214513304522484,-0.0355288310793896,0.6105307121387776,-1.2358579278507569
1.2996659986351164,10.07583144243338,-0.03503536062092059,0.5953985234186371,-1.2616619145517183
1.291662245561498,9.94062137152292,-0.03456249219315432,0.5803412236288485,-1.2875467151012643
1.2837650360705182,9.80886601375422,-0.0341088946849304,0.5653575395772346,-1.3134052141342254
1.2759700925845363,9.680548570773627,-0.03367322258447734,0.5504463124279256,-1.3391288402958832
1.268273448605304,9.555652497199436,-0.03325411636536907,0.5356065012607085,-1.3646072412295307
1.260671451930924,9.43416147299828,-0.03285020254228399,0.5208371874449816,-1.389727942913778
1.2531607678992218,9.316059374752772,-0.03246009338556063,0.5061375799072514,-1.4143759911889517
1.2457383827377626,9.201330245604325,-0.03208238627930193,0.49150702138358615,-1.4384335731577855
1.2384016071047785,9.089958263632521,-0.031715662703168286,0.47694499576252686,-1.4617796159834024
1.2311480799104253,8.98192770840625,-0.03135848681294691,0.46245113663982645,-1.4842893604413232
1.2239757725141545,8.877222925411882,-0.031009403589409044,0.44802523722424087,-1.5058339064181605
1.216882993401714,8.77582828802943,-0.030666936518767795,0.43366726175359877,-1.526279727397132
1.209868393454528,8.67772815668846,-0.030329584761109894,0.4193773586026645,-1.545488150843397
1.2029309719351355,8.582906834790926,-0.029995819755345838,0.4051558752889365,-1.5633148013206648
1.1960700833252342,8.491348520937617,-0.029664081200317778,0.3910033756094114,-1.5796090031635956
1.1892854451679276,8.403037256937964,-0.02933277234147848,0.37692065917019446,-1.5942131396398824
1.1825771470833792,8.317956871019277,-0.02900025448068032,0.3629087836009949,-1.606961965820906
1.1759456611476475,8.236090915580828,-0.02866484061263971,0.34896908977681124,-1.6176818729249416
1.1693918538485766,8.157422598760789,-0.02832478807493449,0.33510323039743994,-1.6261901028218255
1.1629169998609852,8.081934709000755,-0.027978290078033465,0.3213132022985008,-1.6322939128627183
1.1565227979170136,8.009609531705205,-0.027623465956501458,0.30760138288020816,-1.6357896934640914
1.150211389087748,7.940428757005076,-0.027258349950157062,0.29397057103396007,-1.63646204427333
1.1439853778411038,7.874373377551578,-0.026880878281531677,0.28042403290949053,-1.6340828197599897
1.1378478563012648,7.8114235751975265,-0.0264888742388069,0.2669655527779195,-1.6284101624019494
1.1318024322109639,7.751558595383848,-0.026080030894244054,0.2535994890801399,-1.6191875522507009
1.1258532611959264,7.694756608061361,-0.025651890975646085,0.24033083546322137,-1.606142916959833
1.1200050840605733,7.640994554077324,-0.025201823244816013,0.22716528613711434,-1.5889878683260847
1.1142632700205897,7.590247976195727,-0.024726994494171598,0.21410930413764392,-1.5674171628269553
1.1086338670245715,7.54249083437848,-0.024224335905987084,0.20117018992537145,-1.5411085284884112
1.1031236606703236,7.49769530574811,-0.023690501957037213,0.18835614599088052,-1.5097230641759372
1.0977402437394195,7.455831570951062,-0.023121819181260213,0.17567633050517806,-1.472906507590773
1.0924920991480707,7.41686759068698,-0.022514220743512333,0.1631408891824956,-1.4302917948497025
1.0873887002888627,7.3807688793026145,-0.02186316064090489,0.15076094894240788,-1.3815035100719026
1.0824406345474324,7.347498287024013,-0.021163497980228263,0.13854854913237138,-1.3261650620237233
1.0776597585855427,7.317015809186451,-0.02040933647098572,0.1265164755420826,-1.2639097386039948
1.073059398358867,7.289278450338113,-0.019593795934891155,0.11467794922606266,-1.1943971787176173
1.0686546136682598,7.264240183792996,-0.018708679635606653,0.1030461076879961,-1.1173372294245472
1.0644625576705946,7.241852062818047,-0.017743981213655047,0.0916332051376367,-1.032523504052001
1.0605029782011617,7.222062555923333,-0.01668714460750096,0.08044946351204467,-0.9398789254062937
1.056798932953717,7.204818189027993,-0.015521944500712256,0.06950155296916975,-0.8395144960254902
1.0533778291964337,7.190064566253724,-0.014226783823490859,0.05879081898098434,-0.7317993426673026
1.0502729597578837,7.177747778547253,-0.012772080859552736,0.04831168281440231,-0.6174330988309391
1.0475258143170383,7.167816043463802,-0.011116140365190265,0.038051230954729266,-0.4974996238896878
1.0451896797356948,7.160221068216902,-0.00919807338562283,0.027992032061774683,-0.3734655515924195
1.043335726613187,7.154917920993057,-0.006923258114443571,0.018122291623826628,-0.24707648500858265
1.042065482953297,7.15186034310695,-0.004122338928079645,0.008465342168405643,-0.1201118178815864
