x,y,v_x,v_y,omega
2.375,32.48,0.0,3.230769230769231,-3.4693877551020407
2.374234867658754,31.87334596732384,-0.008054024644692227,3.155062692137677,-3.248081083222279
2.3720529656274927,31.2807856844579,-0.014913365158062429,3.082413969609061,-3.047880059691019
2.3686651772159766,30.701756783897274,-0.02074756548947424,3.0126270889238467,-2.8661753497854385
2.364252646530287,30.13573251355109,-0.025700125938836874,2.945523125246516,-2.700738625577447
2.3589713097512672,29.582218680805852,-0.0298928927876888,2.8809382720717873,-2.549659386185594
2.3529556693253584,29.04075093715273,-0.03342963801135197,2.818722187434751,-2.411293434156968
2.346321949478293,28.510892355356876,-0.03639899195775718,2.758736568311058,-2.2842206453779106
2.3391707438939324,27.992231259494947,-0.038876856298668036,2.7008539144461077,-2.167210191636826
2.331589244792639,27.48437927480564,-0.04092839739915567,2.644956450704494,-2.0591917719180315
2.323653125600832,26.986969569598713,-0.0426096993567076,2.590935183052637,-1.9592317128556571
2.3154281358835465,26.499655265753074,-0.043969139772616274,2.5386890679540666,-1.8665130337834968
2.306971456429237,26.022107997829533,-0.04504853869379867,2.488124278609534,-1.780318754475903
2.298332853733705,25.554016603697377,-0.04588412125916936,2.4391535543605203,-1.7000178665184633
2.2895556661707688,25.0950859319549,-0.04650732677174019,2.391695621876108,-1.6250535015958398
2.280677648508826,24.645035753410255,-0.04694549072239419,2.345674678593789,-1.5549329188244871
2.2717316968614667,24.203599765557293,-0.04722242135507202,2.301019930384772,-1.4892190038659654
2.262746472433576,23.770524680390004,-0.0473588884121955,2.2576651766393256,-1.42752302894349
2.253746939374702,23.34556938709663,-0.04737303852332206,2.215548436975105,-1.369498468119546
2.2447548295469835,22.92850418219649,-0.047280749136873905,2.1746116146053454,-1.3148356986384522
2.2357890449512556,22.519110060559633,-0.047095930818156544,2.134800192098404,-1.2632574486235708
2.226866006848946,22.1171780615053,-0.04683078604825675,2.096062955841997,-1.2145148753676784
2.2179999592027153,21.722508664828837,-0.04649603128048893,2.0583517460154948,-1.1683841779799908
2.209203232882193,21.334911232174967,-0.04610108788290542,2.0216212292884195,-1.1246636641292436
2.2004864760997846,20.95420348967005,-0.04565424666876071,1.985828691815956,-1.083171203739604
2.191858855720682,20.5802110481592,-0.04516280995337236,1.9509338504035219,-1.0437420133025306
2.1833282334028414,20.212766957773646,-0.04463321444495022,1.9168986799707401,-1.0062267233988262
2.174901319943926,19.851711293888012,-0.044071137754155436,1.8836872556675064,-0.9704896894293936
2.1665838107243753,19.49689077182184,-0.04348159087269642,1.8512656081869285,-0.9364075117100585
2.158380504723588,19.148158387900374,-0.04286899860927536,1.8196015909864105,-0.9038677362202752
2.1502954092371707,18.80537308472074,-0.042237269668802285,1.7886647582729158,-0.8727677115893745
2.142331832126917,18.468399438675014,-0.041589857807552665,1.7584262527347005,-0.8430135815046608
2.134492463183186,18.13710736796456,-0.040929815284355076,1.728858702112205,-0.8145193947529566
2.1267794459645155,17.811371859503126,-0.04025983964901454,1.6999361237976107,-0.7872063176589721
2.1191944412958192,17.491072713252276,-0.03958231475831707,1.6716338367376575,-0.7610019358401509
2.1117386834494463,17.176094302663216,-0.03889934678245198,1.6439283799893005,-0.7358396340241308
2.104413029898728,16.866325350016552,-0.038212795856685404,1.616797437343995,-0.7116580442257118
2.0972180054179055,16.561658715556845,-0.03752430394144617,1.5902197674949956,-0.6884005538998871
2.0901538412027465,16.261991199413792,-0.0368353193760177,1.564175139274019,-0.6660148668129877
2.083220509600289,15.967223355387432,-0.036147118544586805,1.5386442715297866,-0.6444526103359728
2.0764177549619696,15.677259315752206,-0.03546082501667079,1.51360877726206,-0.6236689836878461
2.069745121070221,15.392006626304475,-0.034777426475417254,1.489051111661435,-0.6036224423643581
2.0632073336373664,15.111376947063906,-0.03404138860726486,1.4649455119235,-0.5826443388642969
2.0568082527780467,14.835284998937368,-0.03331735728030865,1.441285520987418,-0.5625862417735258
2.0505455728693147,14.563647572700944,-0.03260558912739623,1.418055807817045,-0.5433972216898367
2.0444169462198314,14.296384308340869,-0.03190627034084883,1.3952417117627063,-0.5250297011670438
2.0384199956071183,14.033417571185971,-0.03121952558245106,1.3728292056572686,-0.5074391989723748
2.032552325220519,13.774672334822718,-0.030545425855437906,1.3508048613243586,-0.4905840964595171
2.026811530195444,13.520076070351909,-0.029883995461139033,1.329155817315729,-0.47442542392409087
2.0211952049025927,13.269558641579412,-0.029235218147819684,1.3078697487105453,-0.4589266650349294
2.0157009501366705,13.023052205763666,-0.02859904254609844,1.2869348388236201,-0.4440535776349253
2.010326379332275,12.780491119570584,-0.027975386973856795,1.2663397526825038,-0.4297740293826093
2.005069123919821,12.54181184991197,-0.027364143683553638,1.24607361214502,-0.416057846862929
1.9999268379213517,12.306952889366947,-0.026765182616122617,1.2261259725394196,-0.40287667693534757
1.9948972018746107,12.075854675907404,-0.026178354717993048,1.2064868007189293,-0.3902038592115244
1.9899779261636477,11.84845951666814,-0.025603494871090118,1.18714645443121,-0.3780143086653414
1.985166753825312,11.624711515520612,-0.025040424479812723,1.1680956629111747,-0.3662844074765154
1.980461462893114,11.40455650422583,-0.024488953753849588,1.1493255086128569,-0.354991905296906
1.9758598683329858,11.187941976957362,-0.02394888372118336,1.1308274100026081,-0.34411582720712774
1.971359823619315,10.97481702799963,-0.023420008001667943,1.1125931053419236,-0.3336363887012818
1.9669592219941894,10.765132292439748,-0.022902114368076706,1.0946146373936874,-0.32353491710048893
1.9626559974479694,10.558839889683235,-0.022394986118448396,1.076884338990655,-0.31379377885225607
1.9584481254550359,10.355893369635211,-0.021898403280851242,1.0593948194095886,-0.30439631222328367
1.9543336234947717,10.156247661398925,-0.021412143669298542,1.0421389514986676,-0.29532676493874793
1.9503105513844814,9.959859024353133,-0.020935983807441598,1.0251098595096642,-0.28657023636195184
1.946377011447968,9.766685001478674,-0.020469699734803923,1.0083009075899074,-0.2781126238450188
1.9425311485408376,9.576684374812864,-0.02001306770867409,0.9917056888923187,-0.26994057291444734
1.9387749047618286,9.390018087086474,-0.019526340491421507,0.9732026029644076,-0.3040268845808557
1.9351073236592893,9.20685728780333,-0.019079776377412604,0.9548058105423813,-0.3394797357051492
1.931520878733909,9.02718204184395,-0.018672275468696497,0.9365125679774242,-0.37619596548170753
1.9280082558131018,8.850972925363799,-0.01830270264506298,0.9183202370767907,-0.4140742227905507
1.9245623593372132,8.678211006060867,-0.017969891837976038,0.9002262819014472,-0.4530147424819576
1.9211763178730492,8.508877824017564,-0.0176726498900647,0.882228265922798,-0.4929191241763991
1.917843488930965,8.342955373049108,-0.017409760026610387,0.8643238495346207,-0.5336901126347097
1.9145574631569937,8.180426082491017,-0.017179984962561918,0.8465107879189635,-0.5752313787396399
1.911312067967299,8.021272799358304,-0.016982069665802357,0.8287869292674991,-0.6174473001084888
1.9081013706885552,7.8654787708084335,-0.016814743794660577,0.8111502133627254,-0.6602427403269958
1.9049196812646894,7.713027626838958,-0.016676723824979655,0.7935986705264958,-0.7035228257565623
1.9017615545877735,7.563903363149006,-0.01656671487939757,0.776130420946696,-0.7471927188195483
1.8986217925086912,7.418090324091402,-0.016483412268836303,0.75874367439652,-0.7911573866101451
1.895495445581569,7.275573185639079,-0.01642550275350462,0.7414367303647834,-0.8353213636103124
1.8923778145948291,7.136336938285513,-0.016391665527967236,0.7242079786201354,-0.8795885072105368
1.8892644519411335,7.000366869794089,-0.016380572931986467,0.7070559002369512,-0.9238617446426503
1.8861511628784373,6.867648547705539,-0.016390890885866195,0.6899790691162138,-0.9680428098254159
1.8830340067349212,6.738167801505611,-0.016421279045883544,0.6729761540409239,-1.012031968501735
1.8799092981117185,6.6119107043470216,-0.01647039067203883,0.6560459213126363,-1.0557277299076802
1.8767736081391844,6.488863554210063,-0.016536872196741614,0.6391872380237519,-1.0990265430565822
1.8736237658449768,6.369012854375018,-0.016619362479127885,0.622399076029365,-1.1418224755444468
1.8704568596955455,6.252345293066398,-0.016716491725411346,0.6056805166929596,-1.1840068725844346
1.8672702393767917,6.138847722113798,-0.01682688005094464,0.5890307564922971,-1.2254679937563975
1.8640615178847812,6.02850713445639,-0.016949135654429,0.5724491135856823,-1.2660906247111796
1.860828574003567,5.921310640297548,-0.017081852568878637,0.555935035454743,-1.3057556607975398
1.8575695552545184,5.817245441692318,-0.01722360794742248,0.5394881077582208,-1.3443396592818506
1.8542828814102168,5.716298805322804,-0.017372958834700438,0.5231080645524397,-1.3817143565079633
1.8509672486761164,5.6184580331847656,-0.01752843836635688,0.5067948000584971,-1.417746145999318
1.847621634654981,5.523710430871702,-0.01768855132980394,0.4905483821842574,-1.4522955131426978
1.8442453042228089,5.432043273100263,-0.01785176900884991,0.47436906804141177,-1.4852164217220478
1.8408378164608057,5.3434437660715375,-0.01801652322276069,0.45825732173464945,-1.516355647206435
1.8373990328062662,5.257899006206273,-0.018181199456602598,0.44221383474182585,-1.5455520513619923
1.8339291266063085,5.175395934726932,-0.01834412896400555,0.42623954925121643,-1.5726357924895566
1.8304285942827134,5.095921287484977,-0.018503579705415798,0.41033568487461713,-1.5974274654419205
1.826898268344119,5.019461539346665,-0.018657745963998183,0.3945037692128737,-1.6197371656279536
1.8233393325141276,4.946002842354268,-0.01880473645696357,0.3787456728123726,-1.639363471584784
1.8197533392812368,4.8755309567711755,-0.01894256073136217,0.3630636491149192,-1.6560923415695359
1.8161422302198473,4.8080311739990655,-0.019069113599052338,0.3474603800652019,-1.6696959212467495
1.8125083594821767,4.74348823022407,-0.019182157323796314,0.3319390280926402,-1.6799312623046303
1.8088545209203755,4.6818862095097415,-0.01927930122148078,0.31650329521609777,-1.686538956276666
1.8051839793688726,4.623208434913106,-0.019357978268022807,0.30115749001163683,-1.6892416947871443
1.8015005067023373,4.567437346067049,-0.01941541822182162,0.28590660310475924,-1.687742778071765
1.7978084233897267,4.51455436156521,-0.019448616647763584,0.270756391651452,-1.6817246096992007
1.7941126463974841,4.4645397244345375,-0.019454299060054057,0.25571347288193413,-1.6708472395112512
1.7904187444673036,4.417372329033029,-0.019428879152371296,0.24078542608131656,-1.6547470526943056
1.7867330020256045,4.3730295279418385,-0.019368409707620462,0.2259809011943692,-1.6330357561514046
1.7830624933048504,4.331486917950205,-0.019268524195052737,0.211309730296504,-1.6052998920885333
1.779415168723602,4.292718105240972,-0.01912436613388131,0.19678303506383404,-1.571101224742709
1.7757999562698101,4.256694451651949,-0.01893050180076785,0.18241331850481846,-1.5299785162832003
1.7722268817060327,4.2233848068291415,-0.018680809396889143,0.16821452173524337,-1.4814514554627989
1.7687072131103054,4.192755235806452,-0.018368333716027873,0.1542020153456951,-1.4250278583662876
1.7652536379929744,4.164768758885792,-0.01798508857166874,0.14039247855597167,-1.3602157611024703
1.7618804856759878,4.1393851317413635,-0.017521777922928024,0.1268035966485403,-1.2865427023415217
1.758604014932892,4.116560709629656,-0.016967387793868083,0.11345347821153702,-1.2035853494527298
1.7554427989511057,4.09624846122265,-0.016308569909147475,0.10035966291483524,-1.111013549540956
1.752418259549758,4.078398223762051,-0.01552868694714484,0.08753757351254635,-1.0086535065950497
1.7495554351636873,4.062957315462903,-0.01460630659043938,0.07499830332058191,-0.8965741143891567
1.7468841204049532,4.049871624455832,-0.013512796133078164,0.06274581254332563,-0.7751963955126941
1.7444406039521576,4.0390872325243805,-0.01220842968582451,0.05077410252458707,-0.645414828715481
1.7422703932891528,4.030552421875019,-0.010635893082645698,0.03906600957394636,-0.5086968591524054
1.7404326783904773,4.0242194072347175,-0.008708474271832571,0.027597302429206057,-0.3670937759278041
1.7390084175645057,4.0200440133796,-0.006283744948919358,0.01635421183519604,-0.22306870627735373
1.7381191581790423,4.017978078024878,-0.0030768801612235286,0.0053924761092417305,-0.07906178824065849
