x,y,v_x,v_y,omega
2.375,32.48,0.0,3.0769230769230766,-6.285714285714286
2.37356351447501,31.87190220764091,-0.014364855249899479,3.004054846667776,-5.883066693594752
2.369465968477752,31.278074070888227,-0.026610604722681334,2.934226520859078,-5.519031919602269
2.3631011626311396,30.697928586389768,-0.0370374537434416,2.8672283241255014,-5.1887922139480045
2.354807498673114,30.130918616365072,-0.04589918583681489,2.8028713761214683,-4.888244770495499
2.3448764651935687,29.576532996260138,-0.053411148958638584,2.740984824927847,-4.613879941634073
2.33355967954265,29.034293164826444,-0.05975670755055002,2.681413489409109,-4.362682863791193
2.3210747598077814,28.503750225754843,-0.06509248979813259,2.6240159013068967,-4.132053465797093
2.3076102427729963,27.984482369159544,-0.06955268054971808,2.5686626646460757,-3.919741029665565
2.293329719474948,27.476092595736972,-0.0732525524307686,2.5152350695796377,-3.723790356830624
2.2783753257701562,26.97820669755739,-0.07629138461714648,2.4636239122162062,-3.5424972523124323
2.262870698676612,26.490471458064242,-0.0787548863182978,2.413728482715263,-3.3743715366901315
2.2469234883081772,26.012553040591055,-0.08071721736604988,2.3654556920166288,-3.218106174564062
2.2306274986349726,25.54413554001855,-0.08224267936599369,2.318719313708372,-3.072551399219248
2.214064517079211,25.08491967642359,-0.08338713619162384,2.273439322241266,-2.93669293860531
2.1973058823464666,24.634621612965994,-0.08419921113581857,2.2295413123346863,-2.8096336236239834
2.1804138313317183,24.192971883007075,-0.08472129901166821,2.1869559872545032,-2.6905777978899255
2.163442658995836,23.75971441369436,-0.0849904243471542,2.1456187058726197,-2.5788180573760924
2.146439719448972,23.3346056350887,-0.08503897112148474,2.1054690801839957,-2.4737239352387035
2.1294462918443173,22.917413665433596,-0.08489530492506052,2.0664506163670575,-2.3747322165964153
2.112498330877144,22.50791756443615,-0.08458430474667326,2.0285103936074376,-2.2813386238860085
2.0956271185410804,22.105906647493057,-0.08412781861396225,1.9915987758234635,-2.193090658523764
2.0788598311904694,21.711179854692634,-0.08354505489214803,1.9556691521807672,-2.1095814211987993
2.0622200337943113,21.323545169184754,-0.08285291906943616,1.9206777028980546,-2.0304442629444517
2.0457281114636268,20.94281908015958,-0.08206630423740785,1.8865831873536751,-1.9553481435297542
2.029401646825683,20.56882608623178,-0.08119834214203193,1.8533467519243065,-1.8839935937482948
2.0132557505533906,20.20139823550542,-0.08026062058089178,1.8209317553393258,-1.8161091946958356
1.9973033512941756,19.840374699008457,-0.079263372011256,1.7893036096303065,-1.7514485007871654
1.9815554503453594,19.48560137454494,-0.07821563747690564,1.7584296350048358,-1.6897873445978884
1.966021345664549,19.136930518325887,-0.07712540933119923,1.7282789271857102,-1.630921471053502
1.9507088291607129,18.794220402013607,-0.07599975570716141,1.698822235937105,-1.574664456368132
1.9356243606655792,18.457334993054513,-0.07484492924417512,1.6700318536538274,-1.5208458737347377
1.9207732215201305,18.126143656386873,-0.07366646221031226,1.641881513022548,-1.4693096733111368
1.9061596503143619,17.800520875796774,-0.07246924984737318,1.61434629287846,-1.4199127487137546
1.8917869629793813,17.480345993360928,-0.07125762350243366,1.5874025314800102,-1.3725236661719802
1.8776576591404366,17.165502965561874,-0.0700354148870131,1.561027746510524,-1.3270215358319628
1.8637735163901143,16.855880134791754,-0.06880601261620736,1.535200561190685,-1.283295007529388
1.8501356739265171,16.55137001507753,-0.06757241201976559,1.5099006359515263,-1.2412413757584604
1.8367447068164826,16.25186909096486,-0.06633725908058097,1.4851086051752092,-1.2007657806169012
1.8236148455825307,15.95728109113006,-0.06496135325893557,1.460771393172772,-1.1577063145835964
1.810758264735973,15.66751313511158,-0.06360445520664255,1.4369081670120276,-1.1166091674992196
1.7981710676396137,15.38247211856309,-0.062267515756950796,1.4135019984728598,-1.0773616891537194
1.785849186006969,15.10206824518789,-0.0609513005694957,1.3905367352791331,-1.0398589233882833
1.773788414669463,14.8262148760383,-0.05965641280556562,1.3679969562167802,-1.0040029989913728
1.7619844420727313,14.554828387481052,-0.05838331316174939,1.3458679293557032,-0.9697025752578464
1.750432876998841,14.287828037233027,-0.05713233757715197,1.324135573124543,-0.936872336737864
1.739129271952128,14.02513583791951,-0.05590371288997805,1.3027864200106347,-0.9054325323061206
1.7280691435946216,13.766676437650617,-0.054697570685088966,1.2818075826782915,-0.8753085542131233
1.7172479905716713,13.512377007151066,-0.053513959544411696,1.2611867223172282,-0.8464305532481724
1.7066613090286098,13.262167133014373,-0.05235285588620464,1.240912019049696,-0.8187330865565908
1.6963046060843259,13.015978716685403,-0.05121417355663531,1.220972144239984,-0.7921547950185609
1.6861734114969171,12.773745878805052,-0.05009777231745003,1.2013562345635154,-0.766638107419751
1.6762632877295394,12.535404868578198,-0.04900346535632832,1.182053867705022,-0.7421289689299637
1.6665698386007581,12.30089397785106,-0.04793102593148368,1.1630550395663377,-0.7185765916598532
1.6570887166827184,12.070153459606992,-0.04688019324891278,1.1443501428743597,-0.6959332252912712
1.647815629591911,11.843125450610678,-0.04585067765916149,1.1259299470887885,-0.6741539459774266
1.6387463453009592,11.619753897950051,-0.044842165250357224,1.10778557951747,-0.6531964618877539
1.6298766965853866,11.399984489242843,-0.04385432190537034,1.0899085075546235,-0.6330209339317756
1.621202584706534,11.18376458629098,-0.042886796883155075,1.072290521964017,-0.613589810338566
1.6127199824204737,10.971043161981047,-0.041939225977446246,1.0549237211353208,-0.594867673895672
1.6044249363927356,10.761770740242767,-0.041011234299933745,1.0378004962474852,-0.5768211007652289
1.5963135690897725,10.555899338890207,-0.04010243872969945,1.0209135172781165,-0.559418529897066
1.588382080210203,10.353382415182146,-0.0392124500659925,1.0042557198025004,-0.5426301421501439
1.5806267477118778,10.154174813948877,-0.038340874917260515,0.9878202925301933,-0.5264277483158776
1.5730515153748028,9.958415553164347,-0.03741144845349015,0.9697723153151189,-0.547365952579028
1.5656575372935388,9.766254553994031,-0.03652833235915133,0.9518376763880345,-0.5700718674793643
1.558435661034682,9.577669456812473,-0.03569043022941626,0.9340132954275616,-0.5944307174779153
1.5513769582336203,9.392638505715652,-0.03489659778120102,0.9162962155406396,-0.6203304436298392
1.5444727336125479,9.211140524295203,-0.03414564842952384,0.8986835986638649,-0.6476614487860304
1.5377145329341597,9.033154892289883,-0.03343635835435628,0.8811727213893522,-0.6763163491687242
1.5310941499893223,8.858661523030726,-0.03276747109401826,0.8637609712022087,-0.7061897312738229
1.5246036327101387,8.687640841598554,-0.03213770169781835,0.8464458431195043,-0.7371779130678552
1.5182352884936097,8.520073763614263,-0.0315457404674717,0.8292249367234172,-0.7691787084550823
1.5119816888154811,8.355941674583512,-0.03099025631381369,0.8120959535840825,-0.8020911939901999
1.5058356732088554,8.195226409718046,-0.030469899752443335,0.7950566950705933,-0.8358154768042146
1.499790352677696,8.037910234155824,-0.02998330555915236,0.7781050605516454,-0.8702524626951549
1.4938391126114507,7.883975823501608,-0.029529095103299128,0.7612390459905127,-0.9053036233110053
1.487975615263656,7.733406244608311,-0.02910587837464745,0.744456742942444,-0.9408707613192301
1.4821938018545329,7.586184936517444,-0.02871225571658354,0.7277563379662246,-0.9768557724149821
1.4764878943552722,7.442295691474261,-0.028346819276024476,0.7111361124656098,-1.0131604029680266
1.4708523970098986,7.301722635929632,-0.02800815417771205,0.694594442980673,-1.0496860020458665
1.4652820976493355,7.164450211436176,-0.027694839427918595,0.6781298019538942,-1.0863332664768235
1.4597720688515587,7.030463155340673,-0.027405448549846317,0.6617407590011202,-1.1230019775310611
1.4543176690015596,6.899746481168215,-0.02713854995014688,0.6454259827234566,-1.1595907276988913
1.448914543305246,6.772285458585589,-0.026892707012988515,0.6291842431028057,-1.1959966359332281
1.4435586248124557,6.6480655928221815,-0.026666477914915616,0.6130144145312647,-1.2321150495958375
1.4382461355059302,6.527072603415746,-0.0264584151503389,0.5969154795330908,-1.2678392312041686
1.4329735875155145,6.40929240213768,-0.026267064753816058,0.5808865332475703,-1.303060027916292
1.427737784520005,6.294711069937716,-0.026090965201281884,0.5649267887520915,-1.3376655215152364
1.4225358234030763,6.183314832730787,-0.025928645968004826,0.5490355833172015,-1.371540656460681
1.4173650962346538,6.075090035829099,-0.025778625716218303,0.5332123856996728,-1.4045668433659635
1.4122232926550295,5.970023116799549,-0.02563941008002556,0.5174568045958413,-1.4366215350331446
1.407108402746105,5.868100576500364,-0.02550948900922071,0.5017685983959975,-1.4675777719412455
1.402018720482482,5.769308948020594,-0.02538733362700744,0.48614768640168804,-1.4973036938377295
1.3969528478648698,5.673634763211254,-0.02527139254911501,0.4705941616917164,-1.5256620138388008
1.3919096998496212,5.581064516457115,-0.025160087603371434,0.4551083058496863,-1.5525094512125992
1.386888510201361,5.491584625292511,-0.025051808879230187,0.4396906057963441,-1.5776961188196452
1.3818888384108525,5.40518138741249,-0.024944909025854615,0.42434177300386605,-1.6010648610448148
1.3769105778377786,5.321840933571448,-0.02483769670488341,0.4090627654065457,-1.622450538015578
1.371953965258331,5.241549175794525,-0.024728429089593062,0.39385481236268494,-1.641679252021694
1.3670195920208332,5.164291750251756,-0.02461530328538466,0.3787194430649913,-1.6585675124180512
1.3621084170396223,5.090053954061286,-0.024496446526725477,0.3636585188397122,-1.6729213360289095
1.357221781888752,5.018820675195805,-0.02436990498197679,0.34867426981509547,-1.684535281356931
1.3523614282936907,4.950576314567041,-0.02423363096863536,0.3337693364725574,-1.6931914169906868
1.347529518362281,4.885304699258672,-0.024085468345459757,0.3189468166111194,-1.698658227868764
1.342728657947557,4.8229889857731045,-0.023923135801780477,0.3042103182445465,-1.7006894680279485
1.337961923597037,4.763611552059505,-0.023744207703419857,0.28956401889143596,-1.6990229759014561
1.3332328936195064,4.707153877012271,-0.023546092071887414,0.27501273158089184,-1.693379479242157
1.3285456838965695,4.653596406090777,-0.023326005157480775,0.26056197763403244,-1.6834614329131323
1.3239049891908807,4.602918401744947,-0.023080941899407573,0.2462180658242587,-1.668951956402931
1.3193161308691665,4.55509777748637,-0.022807641317733277,0.2319881767615259,-1.6495139722805572
1.3147851121868568,4.5101109147971385,-0.022502545505363562,0.21788045013080004,-1.6247896966306359
1.3103186826057103,4.4679324627329216,-0.022161750306100646,0.20390407051137113,-1.5944007045291138
1.305924413090011,4.428535121224037,-0.021780944850891618,0.1900693445774631,-1.5579488972866413
1.3016107850376806,4.391889410960207,-0.02135533567241222,0.1763877580608529,-1.5150188464840257
1.2973872965913322,4.357963435723242,-0.02087954879107089,0.1628719943088046,-1.4651821998791386
1.2932645917707368,4.326722647611547,-0.020347499414883938,0.149535886808156,-1.408005126999244
1.2892546205456532,4.298129632445512,-0.019752212835952607,0.13639426485219203,-1.3430601791595664
1.2853708422293466,4.272143942543455,-0.019085570327114297,0.12346263416840113,-1.2699444515062774
1.2816284913823541,4.248722017743393,-0.01833793814280979,0.1107566138322148,-1.1883065387550629
1.2780449362917559,4.227817253146284,-0.01749761276317345,0.09829103213886223,-1.0978853496004226
1.2746401773837022,4.209380291794922,-0.016549976317363865,0.08607858137475057,-0.998564043203273
1.2714375602417765,4.193359635923631,-0.015476195101893282,0.07412797733816599,-0.8904413854449467
1.268464820987035,4.179702665202299,-0.014251197445521356,0.062441729875151376,-0.7739191548084622
1.2657556514132713,4.168357090284946,-0.012840498292116507,0.051014019298370815,-0.6497954497264427
1.2633520950735875,4.159272692993582,-0.011195065104721796,0.0398299536152559,-0.5193375483890472
1.2613083579063418,4.1524028088432345,-0.009242306567734624,0.028868887888211604,-0.3842858147397503
1.2596974270388173,4.1477041803052686,-0.006867002107510414,0.018117397491455776,-0.24672335733605394
1.2586252788759376,4.145131523581011,-0.0038544795212857703,0.007609169751126639,-0.10875621845676212
