x,y,v_x,v_y,omega
2.375,32.48,0.0,2.871794871794872,-4.6938775510204085
2.3741035247289957,31.940267548688734,-0.009436581800045531,2.809599352534221,-4.423999448226998
2.3715345272649495,31.412136789643622,-0.017605496768859488,2.749671795309062,-4.177085517658154
2.3675184847124733,30.89518972599571,-0.0246686353624691,2.6918762430900096,-3.950577655924507
2.3622522504048478,30.389033105354535,-0.030765409980957475,2.63608818471183,-3.742256954491962
2.3559079966174874,29.89329636901329,-0.03601620883336218,2.582193250459175,-3.5501921998990884
2.3486365569059697,29.407629830661314,-0.040525261814193574,2.5300861006142625,-3.3726971600271884
2.340570269257954,28.931703051279733,-0.04438302921755177,2.4796694718234296,-3.2082949904520737
2.3318254023865923,28.465203382863578,-0.047668201007306205,2.430853353609781,-3.0556884434693257
2.322504232516364,28.007834658330754,-0.05044937657404576,2.383554273051525,-2.913734830948063
2.312696826037815,27.55931600873887,-0.05278648109489108,2.337694670020906,-2.781424900755712
2.302482573773147,27.119380791953752,-0.05473196379635081,2.2932023487698467,-2.657864949701294
2.2919315147979744,26.687775619362288,-0.056331814889676285,2.2500099942981846,-2.5422616245144316
2.2811054814218914,26.264259469221393,-0.05762643117435602,2.208054744027016,-2.4339089643035017
2.270059091745458,25.84860287687807,-0.05865135489336058,2.167277806955343,-2.3321773192157953
2.258840611953451,25.440587193456167,-0.059437906075135015,2.1276241238015134,-2.236503845192774
2.2474927069932513,25.040003905738892,-0.060013725084863544,2.0890420626961306,-2.1463843272347947
2.2360530953808064,24.64665401092641,-0.06040323925666151,2.051483145856298,-2.061366126120163
2.2245551214617896,24.260347440749417,-0.060628065154040865,2.014901803375236,-1.981042078118785
2.2130282564423673,23.880902530099032,-0.06070735610303535,1.979255150839331,-1.9050452055010445
2.2014985378201444,23.5081455259129,-0.06065810307826272,1.9445027879620307,-1.8330441188205508
2.1899889554331815,23.14191013255356,-0.06049539573187015,1.9106066158205475,-1.76473901103138
2.1785197911563756,22.782037090342417,-0.06023264928714214,1.877530670612515,-1.699858159266925
2.167108918271614,22.42837378428208,-0.059881802131400326,1.8452409721278697,-1.6381548631793246
2.155772065689777,22.08077388032017,-0.059453488203727915,1.8137053853659333,-1.5794047596117256
2.1445230514831515,21.739096986787366,-0.058957187655485986,1.7828934939267105,-1.5234034624484594
2.1333739895751886,21.403208338886706,-0.05840135874412041,1.7527764839749747,-1.4699644840814419
2.1223354729133272,21.07297850432561,-0.05779355348600132,1.7233270377207885,-1.4189174013043244
2.111416736005513,20.748283108371083,-0.05714051922783286,1.6945192354847425,-1.370106233809955
2.1006257993201083,20.429002576775282,-0.056448287986952124,1.666328465523693,-1.3233880079933806
2.089969597722182,20.11502189516638,-0.05572225514911681,1.6387313408858484,-1.2786314825924638
2.0794540948384315,19.806230383630957,-0.05496724889036156,1.611705622644893,-1.2357160159464922
2.069084385001276,19.50252148533103,-0.05418759150074797,1.5852301489333112,-1.1945305574148337
2.058864784214138,19.203792568102976,-0.053387153627018846,1.5592847692566936,-1.15497274785108
2.048798911399753,18.909944738079233,-0.052569402313877585,1.5338502836248447,-1.1169481160380745
2.038889761037348,18.620882664456985,-0.05173744360617522,1.5089083860830406,-1.0803693597096116
2.0291397681592658,18.336514414613568,-0.050894060373637195,1.4844416122687003,-1.0451557012602328
2.0195579928201886,18.05675347257568,-0.04996673266928284,1.460410409182761,-1.0088665924342444
2.010151958622898,17.78151629575222,-0.04904415361798245,1.4368230310641554,-0.9741689046369014
2.000920635739802,17.510720010970022,-0.048127666204081106,1.4136641771695044,-0.9409745196472823
1.9918627562735054,17.24428458834768,-0.04721843344114701,1.390919218855175,-0.9092011205875669
1.9829768465863324,16.982132717140125,-0.046317458002779276,1.3685741622769905,-0.8787717490804865
1.9742612561024464,16.724189688435647,-0.04542559972233749,1.3466156135595972,-0.8496144007310601
1.965714182964591,16.470383284254254,-0.04454359120245552,1.325030746244531,-0.8216616552314826
1.9573336968844441,16.220643672630946,-0.043672051746459904,1.3038072708429185,-0.7948503377819518
1.9491177594876532,15.97490330829914,-0.04281149979870671,1.2829334063339772,-0.7691212088683819
1.9410642424211815,15.733096838618316,-0.041962364058890825,1.262397853464178,-0.7444186797461211
1.9331709434610524,15.495161014416357,-0.04112499341615225,1.2421897697143143,-0.7206905512519365
1.925435600832483,15.26103460544127,-0.04029966583194373,1.2222987458129058,-0.6978877738089572
1.9178559059312952,15.030658320139018,-0.039486596285825584,1.2027147836844854,-0.6759642267047252
1.9104295146150336,14.803974729494595,-0.0386859438853488,1.1834282757304893,-0.654876514914233
1.9031540572140995,14.580928194692063,-0.03789781822974722,1.164429985348791,-0.6345837819106581
1.8960271473971004,14.36146479836641,-0.03712228510708448,1.1457110286054792,-0.6150475370589082
1.8890463900103436,14.145532279235852,-0.03635937159561938,1.1272628569793506,-0.5962314963232139
1.8822093879986899,13.93307996991776,-0.03560907063231509,1.1090772411058458,-0.5781014351417302
1.875513748503693,13.72405873774468,-0.034871345104493426,1.0911462554528668,-0.5606250524300913
1.8689570882248874,13.518420928409377,-0.03414613151451343,1.0734622638661064,-0.5437718447735379
1.8625370381211248,13.3161203122791,-0.03343334326193458,1.0560179059262844,-0.5275129899548815
1.8562512475208726,13.117112033229926,-0.03273287358282509,1.0388060840650226,-0.511821239044298
1.8500973877032505,12.921352559861692,-0.03204459818161938,1.0218199513900739,-0.49667081634773536
1.8440731550052172,12.728799638963082,-0.03136837758715206,1.0050529001742576,-0.4820373265744433
1.8381762735046294,12.539412251104778,-0.03070405926114058,0.988498550965799,-0.46789766864155563
1.8324099047656572,12.353358079957683,-0.029994559043830877,0.9699664084773083,-0.4976858879249047
1.8267741966041955,12.170814731059213,-0.029328684761028668,0.9515425272960596,-0.5289334343560812
1.821260975990507,11.991761901979189,-0.028705216435692522,0.9332240945989451,-0.5615319693450528
1.8158623049109592,11.816179814139812,-0.02812290019112439,0.9150084089734352,-0.5953751448707272
1.8105704864013086,11.644049191973629,-0.027580452542041133,0.8968928769863918,-0.630358366023866
1.805378069804659,11.475351242696679,-0.02707656426479626,0.8788750101393832,-0.6663785567670989
1.8002778553314758,11.310067636623902,-0.026609903873974595,0.8609524222056404,-0.7033339279074845
1.795262897994132,11.148180487954438,-0.02617912072964472,0.8431228269466036,-0.7411237462682558
1.7903265109841269,10.989672335954662,-0.02578284779672481,0.8253840362089301,-0.7796481040296788
1.7854622685562966,10.834526126466251,-0.02541970407517282,0.8077339584059062,-0.8188076871839911
1.7806640084810377,10.682725193665597,-0.025088296717026677,0.790170597390467,-0.8585035420157479
1.7759258341227717,10.534253241999103,-0.024787222843668865,0.7726920517305311,-0.8986368384760527
1.7712421162005887,10.389094328216594,-0.024515071074046775,0.755296514401157,-0.9391086292664788
1.766607494285222,10.247232843421827,-0.024270422771917686,0.7379822729121784,-0.9798196033852656
1.7620168780852294,10.108653495055187,-0.024051853017476893,0.7207477098945598,-1.0206698328137933
1.757465448574505,9.973341288718693,-0.02385793130593838,0.703591304173792,-1.0615585109344714
1.7529486590130308,9.84128150974757,-0.02368722197273661,0.6865116323643333,-1.1023836811710253
1.7484622359131339,9.712459704425537,-0.023538284341969657,0.6695073710254786,-1.1430419542276122
1.7440021800044572,9.586861660732623,-0.023409672591468644,0.6525772994262412,-1.1834282121731037
1.7395647672524484,9.464473388504505,-0.02329993532441332,0.6357203029749887,-1.2234352974700284
1.7351465499874306,9.345281098870892,-0.023207614833670242,0.6189353773788513,-1.2629536848829022
1.730744358204341,9.229271182827095,-0.023131246040955487,0.602221633608488,-1.3018711340169002
1.7263553010970467,9.116430188777482,-0.02306935508845778,0.5855783037558744,-1.340072320034175
1.721976768895858,9.006744798871448,-0.023020457555633197,0.5690047478865846,-1.3774384398711033
1.7176064350825726,8.900201803931857,-0.022983056268422713,0.5525004620038586,-1.4138467910354862
1.7132422590641767,8.796788076751803,-0.02295563866206189,0.5360650872598554,-1.4491703197993713
1.7088824893943553,8.696490543507945,-0.022936673651848313,0.5196984205702271,-1.4832771353233225
1.7045256676413634,8.599296153006648,-0.022924607958591837,0.5034004268118515,-1.516029985956532
1.7001706330117454,8.505191843442518,-0.022917861826860852,0.48717125281058427,-1.5472856936623225
1.695816527852076,8.414164506306633,-0.02291482406439573,0.47101124335660505,-1.5768945422333316
1.6914628041655586,8.326200947033392,-0.02291384631999726,0.45492095951962097,-1.6046996147049968
1.687109231297224,8.241287841919394,-0.022913236504578636,0.43890119957508444,-1.6305360751799398
1.682755904960957,8.159411690784673,-0.02291125124559992,0.42295302289568143,-1.6542303901840694
1.6784032578040269,8.080558764774697,-0.022906087248402516,0.407077777209338,-1.675599484753166
1.674052071730669,8.004715048620685,-0.022895871418520657,0.3912771296749903,-1.6944498287919
1.6697034922361738,7.931866176585096,-0.02287864957616835,0.3755531022785702,-1.7105764499944731
1.6653590450375924,7.86199736121905,-0.02285237356679381,0.3599081121008459,-1.7237618709685125
1.6610206553275977,7.795093313949678,-0.02281488653841324,0.34434501705042203,-1.7337749704528165
1.6566906700255024,7.731138156400252,-0.022763906115219567,0.3288671676803727,-1.7403697720866709
1.6523718834558383,7.6701153212289945,-0.022697005144402198,0.3134784657012838,-1.7432841696845351
1.6480675669528342,7.6120074411616585,-0.022611589624064263,0.2981834297443505,-1.7422386062803221
1.643781502972535,7.556796224801797,-0.022504873326454358,0.28298726878052466,-1.7369347366150538
1.6395180243990741,7.5044623177530525,-0.022373848499447065,0.2678959633115133,-1.7270541211159802
1.6352820598668893,7.45498514761481,-0.022215251839338906,0.25291635393315565,-1.7122570264632258
1.631079186100834,7.408342751570569,-0.022025524645456523,0.23805623600621745,-1.6921814474900017
1.6269156885241012,7.364511585662214,-0.02180076563593895,0.22332445776594217,-1.6664425230908688
1.6227986317366065,7.323466315561284,-0.021536674232425182,0.20873101698069843,-1.634632603164226
1.6187359419840708,7.285179589904786,-0.02122848105742547,0.1942871478245559,-1.5963223459262497
1.6147365045189508,7.2496217993453165,-0.020870860680679927,0.18000538438040178,-1.5510634011740467
1.6108102799602688,7.2167608277904804,-0.020457818884394543,0.1658995793546969,-1.4983934864645563
1.606968445656553,7.186561807459352,-0.019982542207351506,0.15198484518349822,-1.4378450157649134
1.603223571082105,7.158986897137456,-0.01943719015525735,0.13827736873118798,-1.3689589206421444
1.5995898411671092,7.133995114283117,-0.018812598423647707,0.12479402973554554,-1.2913059261493047
1.596083349334907,7.111542267249387,-0.0180978419153222,0.11155172851422811,-1.2045182719489946
1.5927224947425396,7.091581053870648,-0.01727957484643968,0.0985663070514461,-1.108335537009351
1.5895285386915479,7.074061414574313,-0.016341015163999717,0.08585094869944923,-1.0026683642818128
1.58652640792195,7.058931243487578,-0.01526036135808032,0.07341401010829109,-0.8876824159757362
1.5837458849773598,7.046137548417327,-0.014008301216554593,0.06125646431538335,-0.7638997494497088
1.581223412900064,7.035628065770876,-0.012544036439191004,0.049369668805171664,-0.6323028694184198
1.5790049042175447,7.02735310006279,-0.010808686534697307,0.03773523338520729,-0.49440548553688823
1.577150332095591,7.021266835630438,-0.008713125275340277,0.02633070800795989,-0.3522271211689233
1.5757421577999373,7.017326222090055,-0.006109762047330736,0.015149434522378786,-0.2080933356563113
1.5749058591595455,7.015481637509218,-0.002693381535742072,0.00426724527590344,-0.0642108106043752
