x,y,v_x,v_y,omega
2.375,32.48,0.0,3.948717948717949,-2.4897959183673475
2.3739790034917143,31.586415384373808,-0.008878230506831888,3.821583056727161,-2.260903441962549
2.371130230869712,30.721208541326355,-0.015893705336666446,3.701954708902884,-2.064037816761679
2.3668386643934576,29.882730360640466,-0.021424264022069185,3.5891599057570165,-1.8935155487191673
2.3614118587994577,29.069477353856897,-0.02576534983879966,3.482605370621855,-1.744827457933537
2.3550966476779704,28.28007467610931,-0.0291495294784808,3.3817657402266983,-1.6143664996414977
2.3480919356260226,27.51326162003723,-0.03176101010367223,3.2861738777914056,-1.4992249007758287
2.340558568295613,26.76787914584486,-0.03374653189989085,3.195412854316166,-1.3970414754118918
2.3326270021330915,26.042859102965636,-0.03522360864377273,3.109109257677069,-1.3058856553672724
2.324403303978825,25.337214867756593,-0.03628681008898132,3.026927570227664,-1.2241686523192687
2.315973873414617,24.650033174512707,-0.0370125861215213,2.948565414501758,-1.1505748557511324
2.307409181434066,23.98046695817642,-0.037462996318055185,2.8737495101615904,-1.084008455096817
2.2987667465119914,23.327729059431835,-0.03768861169998161,2.802232218052217,-1.0235516094668027
2.290093515773431,22.691086668558633,-0.0377307860266346,2.7337885721495634,-0.9684314439178854
2.281427779352165,22.069856405028283,-0.037623443723504096,2.6682137194186946,-0.9179938417168126
2.272800716412289,21.463399946496406,-0.037394494884107815,2.6053207025976164,-0.8716825054324564
2.2642376490049734,20.871120134432942,-0.0370669608316837,2.5449385327368557,-0.829022129756631
2.2557590630265736,20.292457494781026,-0.03665987376309501,2.48691050771456,-0.7896048031686641
2.2473814426465926,19.726887121239983,-0.03618899910630698,2.4310927404684306,-0.7530789602778506
2.2391179546745934,19.173915876409332,-0.03566741804151025,2.3773528667546007,-0.7191403606052391
2.2309790116933135,18.63307987240772,-0.03510599918701368,2.3255689071724905,-0.6875246860899061
2.2229727368535688,18.103942197927363,-0.03451378202815604,2.275628262221903,-0.6580014383851684
2.2151053485983105,17.586090863188087,-0.03389828975669894,2.227426822467456,-0.6303688850708341
2.2073814799538165,17.079136938063264,-0.0332657854128129,2.180868178617968,-0.6044498563926445
2.1998044441663778,16.582712861883678,-0.03262148230404792,2.135862918595816,-0.580088234843069
2.192376456199331,16.09647090618063,-0.03196971740940036,2.0923280005611193,-0.5571460116347425
2.185098817805853,15.620081773985806,-0.031314094707801624,2.050186192437362,-0.5355008089929025
2.177972072456358,15.15323332132688,-0.03065760398345814,2.0093655698141735,-0.515043786787422
2.1709961352479192,14.695629388297494,-0.030002719568182273,1.9697990652239574,-0.4956778675337844
2.164170401996633,14.24698872858189,-0.029351482616917456,1.9314240627378325,-0.4773162261243073
2.1574938409656355,13.807044027614353,-0.02870556982653683,1.89418203263204,-0.45988100050056663
2.150965070075076,13.375541000681995,-0.028066350960937105,1.8580182015623736,-0.4433021873788224
2.1445824219471925,12.952237563261189,-0.02743493710761758,1.8228812542707082,-0.4275166935041893
2.138343998737304,12.536903066734766,-0.0268122212392404,1.788723063350356,-0.41246751805584597
2.1322477183722213,12.129317593386148,-0.026198912370172668,1.75549844402894,-0.39810304600374885
2.126291353547249,11.729271305223353,-0.02559556436871535,1.7231649312996944,-0.38437643562202817
2.120472564610386,11.336563841762718,-0.025002600299660286,1.6916825770536386,-0.37124508614873863
2.1147889272785836,10.951003762410043,-0.02442033302035918,1.6610137651435508,-0.3586701738668923
2.1092379559788124,10.572408029525011,-0.02384898262982649,1.6311230425523853,-0.34661624676361164
2.103817123480432,10.20060152865084,-0.02328869126913497,1.6019769650491003,-0.3350508694790993
2.0985238773803374,9.835416622741892,-0.02273953568820708,1.573543955898261,-0.32394431154588554
2.0933556539147458,9.476692737533337,-0.022201537925633532,1.5457941763500358,-0.3132692729903288
2.0883098894982615,9.124275975473665,-0.02167467439162052,1.5186994067775443,-0.3030006422619265
2.0833840303295266,8.77801875588731,-0.021158883597378383,1.492232937451633,-0.2931152822033673
2.0785837942209993,8.437779806583976,-0.020582299955034834,1.4663666217078055,-0.2814906441465641
2.073914219666887,8.103423498294962,-0.02002269616767844,1.4410795373270864,-0.2704582478288125
2.0693714490457333,7.774819226425038,-0.019479657059744897,1.4163489137157188,-0.25998029469344247
2.0649517217711297,7.451841490841012,-0.018952754023764548,1.3921531348410219,-0.25002185561254725
2.0606513768445667,7.134369638719836,-0.018441549685481163,1.368471666212695,-0.2405506188575686
2.056466854424186,6.822287623561092,-0.01794560179608854,1.3452849873415837,-0.23153666312738952
2.0523946965738364,6.515483779158682,-0.01746446646782001,1.3225745292010995,-0.22295225285921177
2.0484315473321013,6.213850607430306,-0.01699770085161594,1.3003226162630477,-0.21477165338536808
2.044574152219973,5.917284579097128,-0.016544865340806236,1.278512412721096,-0.20697096379231303
2.040819357287973,5.625685946290709,-0.016105525372237205,1.2571278725521169,-0.1995279655927544
2.0371641077883127,5.338958566240866,-0.015679252885678802,1.2361536930986927,-0.1924219855436531
2.0336054465447226,5.057009735267666,-0.015265627493364381,1.2155752718856538,-0.18563377113623908
2.030140512081539,4.7797500323636655,-0.014864237403886545,1.1953786664100132,-0.17914537745317186
2.0267665365642005,4.507093171709759,-0.014474680138187314,1.1755505566674354,-0.17294006423585503
2.0234808435952747,4.238955863520033,-0.014096563069861116,1.1560782101997362,-0.16700220213453762
2.020280845903253,3.975257682658345,-0.01372950381728626,1.1369494494671175,-0.16131718722763766
2.0171640429554896,3.7159209445125185,-0.013373130511089711,1.1181526213661432,-0.15587136299679097
2.014128018521656,3.4608705876514563,-0.013027081957026091,1.0996765687300631,-0.15065194903225054
2.011170438209784,3.210034062826349,-0.012691007711426498,1.0815106036621778,-0.14564697582098124
2.0082890469933248,2.9633412279101456,-0.012364568083871335,1.0636444825656672,-0.14084522503843833
2.0054816667445254,2.7207242483994385,-0.012047434079600924,1.0460683827448285,-0.13623617482572978
2.0027461937867517,2.482117503130528,-0.011739287292344915,1.0287728804631022,-0.13180994958763517
2.000080596476114,2.2474574948867065,-0.011439819756681204,1.0117489303527338,-0.12755727389464358
1.9974829128208111,2.0166827655969968,-0.011148733767689125,0.9949878460795107,-0.12346943011452352
1.9949535733128005,1.789825926207378,-0.010845522823708676,0.9776803225258797,-0.1354721360483679
1.9924915293883951,1.566935312460366,-0.010563554779815772,0.960498927448124,-0.1497238417667166
1.9900918207646776,1.3479823443304007,-0.010303476730771905,0.9434399258559121,-0.1661019097191063
1.9877493561249697,1.132939283599228,-0.01006578100581895,0.926499732676034,-0.18448759228959577
1.9854589472053548,0.9217792001846838,-0.009850818295180636,0.9096749057113037,-0.20476575268308572
1.9832153399818442,0.7144759400297325,-0.009658809735345627,0.8929621391143531,-0.2268245966788269
1.9810132431886416,0.5110040944364798,-0.009489858031634638,0.8763582573487029,-0.2505554141488553
1.9788473543806466,0.31133897073593886,-0.009343957690059669,0.8598602096125072,-0.2758523292827864
1.9767123837374743,0.11545656418962835,-0.009221004424482978,0.8434650647032451,-0.3026120584968061
1.9746030757917132,-0.07666646897624929,-0.009120803799525169,0.8271700063044042,-0.3307336750340026
1.9725142292508493,-0.26505283749921205,-0.009043079164508454,0.8109723286778895,-0.36011837928551227
1.9704407150701064,-0.44972464006325197,-0.008987478928909255,0.794869432748532,-0.3906692738773422
1.968377492922373,-0.6307033894248448,-0.00895358322529326,0.7788588225696881,-0.42229114257614797
1.9663196262012943,-0.8080100357689375,-0.008940910001478,0.7629381021615464,-0.45489023206858015
1.9642622956844615,-0.981664989379901,-0.008948920579676875,0.7471049727164242,-0.48837403566286663
1.9622008119753909,-1.1516881427116203,-0.008977024716590093,0.7313572301680719,-0.5226510779477992
1.9601306268355823,-1.3180988919403092,-0.009024585194788588,0.7156927631248553,-0.5576306994228707
1.9580473435113723,-1.4809161580841774,-0.009090921972254248,0.7001095511696797,-0.5932228400834995
1.9559467261545036,-1.6401584077749547,-0.009175315913560848,0.6846056635327149,-0.6293378209065177
1.9538247084303138,-1.7958436737680543,-0.009277012122872406,0.6691792581464209,-0.6658861221327101
1.951677401403182,-1.9479895752809426,-0.009395222895665531,0.6538285810961104,-0.7027781571843755
1.9495011007853567,-2.096613338252588,-0.009529130302815098,0.6385519664833982,-0.7399240409857178
1.947292293632534,-2.241731815621492,-0.00967788841738166,0.6233478367244342,-0.7772333513713089
1.9450476645675625,-2.3833615077254393,-0.009840625191065695,0.6082147033099007,-0.8146148821716783
1.9427641016124522,-2.521518582932913,-0.010016443983806264,0.5931511680594586,-0.8519763864539486
1.9404387017084836,-2.656218898624374,-0.010204424746354655,0.5781559249097817,-0.8892243082678211
1.9380687760046964,-2.7874780226515057,-0.010403624851797359,0.563227762282647,-0.9262635011015031
1.9356518549964332,-2.9153112554141174,-0.01061307956788231,0.5483655660879138,-0.9629969310865534
1.9331856935980076,-3.0397336527081933,-0.01083180215755652,0.5335683234258071,-0.9993253628032481
1.930668276237006,-3.160760049514515,-0.01105878359028353,0.5188351270639309,-1.0351470253270159
1.9280978220623626,-3.278405084916237,-0.011292991841398337,0.5041651807771214,-1.0703572559198713
1.9254727903642497,-3.3926832283556863,-0.011533370750888283,0.48955780565289614,-1.104848118506937
1.9227918863111544,-3.5036088074662217,-0.011778838406461692,0.475012447482187,-1.138507993785792
1.9200540671184374,-3.6111960377447545,-0.012028285008468576,0.4605286853746375,-1.1712211374950119
1.9172585487733689,-3.71545905436529,-0.012280570166039681,0.44610624176042674,-1.2028672030185683
1.9144048134543499,-3.8164119464739272,-0.012534519564561858,0.43174499396682503,-1.233320724127417
1.9114926177969997,-3.9140687943527297,-0.012788920934135558,0.41744498758800375,-1.262450553264324
1.9085220021773466,-4.008443709894031,-0.013042519236760529,0.403206451901572,-1.2901192503730912
1.90549330120283,-4.0995508808896375,-0.013294010976427593,0.38902981762543437,-1.3161824168760532
1.9024071556256525,-4.187404619712311,-0.013542037520767339,0.3749157373543629,-1.3404879690415454
1.899264525920682,-4.272019417050828,-0.013785177305064377,0.36086510906751346,-1.36287534469866
1.896066707802183,-4.353410001456538,-0.01402193676883996,0.3468791031560687,-1.3831746371151306
1.8928153499908722,-4.431591405570124,-0.014250739851253715,0.3329591934838094,-1.4012056499537402
1.889512474585976,-4.506579040022821,-0.014469915843495794,0.3191071930613597,-1.4167768677099946
1.8861605004472237,-4.578388776148067,-0.014677685363045088,0.3053252949842508,-1.429684337127462
1.882762270050396,-4.647037038796562,-0.014872144174586594,0.2916161193504888,-1.4397104571115844
1.8793210803490048,-4.7125409107183245,-0.015051244533164436,0.27798276692569446,-1.4466226780991969
1.8758407182564245,-4.774918250154741,-0.015212773663185516,0.26442888034751727,-1.4501721174033677
1.8723255014609128,-4.8341878234621944,-0.015354328906481347,0.25095871363033934,-1.4500921058013831
1.868780325405739,-4.890369454749269,-0.015473288964595357,0.237577210605062,-1.446096694143088
1.8652107174161912,-4.943484194622606,-0.015566780509733084,0.22429009264134273,-1.4378791693715127
1.8616228991472277,-4.993554510152812,-0.01563163922038554,0.2111039554473881,-1.4251106605582373
1.8580238587803881,-5.040604498012023,-0.01566436396952359,0.1980263737631624,-1.4074389625570276
1.8544214347496921,-5.084660122271892,-0.015661062384354107,0.18506601110527798,-1.3844877753825766
1.85082441327914,-5.1257494773840975,-0.0156173851856639,0.17223272900087544,-1.3558566628054989
1.8472426427624904,-5.163903075084335,-0.015528445393899174,0.15953768578381877,-1.3211221905107062
1.8436871691675885,-5.199154150889072,-0.015388716300900886,0.14699340817041645,-1.2798409361526597
1.8401703984729019,-5.231538980782787,-0.015191898435503485,0.13461380829665637,-1.2315554031316263
1.8367062951054862,-5.261097190601056,-0.014930739542022538,0.12241410316654133,-1.1758043577289707
1.8333106302382194,-5.287872028124944,-0.01459678104290607,0.11041057095421251,-1.1121397877969819
1.830001301966019,-5.31191054938445,-0.014179986541444443,0.09862004869367756,-1.0401535696012731
1.8267987630851943,-5.333263644782761,-0.013668177639640879,0.08705904172643758,-0.959517954308062
1.8237266152181504,-5.351985798005977,-0.013046151639004182,0.07574229064937363,-0.8700448145355181
1.8208124665451733,-5.3681344379791724,-0.012294271604273627,0.06468066563927045,-0.771768280256794
1.8180892147246208,-5.381768733145719,-0.011386179009226005,0.053878422765510366,-0.6650517757694174
1.8155970258438576,-5.392947741349239,-0.01028502864958562,0.04333034422163573,-0.550709528002591
1.813386481684799,-5.401728076111198,-0.008937094472663032,0.03302039283884993,-0.43010927287401424
1.8115238269616059,-5.408161876807512,-0.007259903120320352,0.022925700172574177,-0.30518685375235455
1.8101007234842563,-5.412297315763169,-0.005114909726196769,0.013034638572249886,-0.1782718687642746
1.8092582381407887,-5.414188641971236,-0.002211049782219582,0.0034116762804926645,-0.05163905689636866
