x,y,v_x,v_y,omega
2.375,32.48,0.0,3.948717948717949,-2.979591836734694
2.3742634615460028,31.778507223979624,-0.00818376059996748,3.8456462292861957,-2.762536885711405
2.3721777103076116,31.095136628193956,-0.014991253159937431,3.747360390554565,-2.569377164686611
2.368970406485273,30.429057719042994,-0.020645455977157494,3.653516377789469,-2.39673586279266
2.3648325850576963,29.77949896367697,-0.025330337662581894,3.5638031262774144,-2.241796212625953
2.359925006615699,29.14574221285501,-0.029198311692945338,3.4779385495221864,-2.102196597533787
2.354383305887894,28.52711779174509,-0.032376140838218416,3.395666129476888,-1.9759473841577058
2.3483221856008973,27.923000160148657,-0.03496964012841184,3.316751999372392,-1.8613645704905812
2.341838848150092,27.332804061207,-0.037067442658314464,3.240982433312709,-1.757016539142657
2.335015815608356,26.755981091501564,-0.038744030027646204,3.16816167452545,-1.6616810903522004
2.3279232564783183,26.192016636507038,-0.04006218252832557,3.0981100476359416,-1.5743105876508436
2.3206209128359836,25.640427124254895,-0.04107496905316915,3.030662310721201,-1.4940035428727172
2.3131597023150277,25.100757557300113,-0.04182737006856573,2.9656662109986227,-1.4199813402840613
2.305583054408,24.57257928901545,-0.04235760667618842,2.9029812143865037,-1.351569083469879
2.297928028819747,24.055488015137897,-0.04269823319329001,2.842477384253004,-1.288179766000924
2.2902262543546676,23.549101955567686,-0.0428770386409203,2.7840343887492995,-1.2293011344137086
2.282504719490496,23.05306020483194,-0.042917793183211865,2.7275406194256773,-1.17448474186784
2.274786439959857,22.567021232496465,-0.04284086826832708,2.672892406524061,-1.1233367920330908
2.267091024000396,22.09066151723942,-0.04266375350346336,2.6199933185541955,-1.075510452039895
2.2594351521938463,21.623674300366368,-0.04240148879153529,2.5687535355908566,-1.030699375757774
2.2518329858002946,21.165768446310572,-0.0420670266923746,2.5190892872512958,-0.9886322280652441
2.2442965150555385,20.716667399175357,-0.04167153713824594,2.470922347584404,-0.9490680400429263
2.236835856919554,20.276108225677284,-0.04122466437269239,2.424179580171993,-0.9117922563749412
2.2294595101506696,19.843840735973778,-0.04073474417047095,2.378792527644754,-0.8766133613841146
2.222174574260753,19.419626674833534,-0.040208987939712074,2.334697040580154,-0.8433599903677635
2.214986937824324,19.003238976455297,-0.03965363913171893,2.2918329414002607,-0.8118784492618663
2.207901440723635,18.59446107697938,-0.039074106431491236,2.2501437194432787,-0.782030578936365
2.200922014176277,18.193086279382175,-0.038475077428048045,2.209576253858982,-0.7536919112348315
2.194051801782829,17.79891716600996,-0.037860615832479586,2.170080561387847,-0.7267500727064676
2.187293264326322,17.41176505450572,-0.037234244795377375,2.1316095664370227,-0.701103399223231
2.1806482706340873,17.031449493320917,-0.03659901845167693,2.094118891171924,-0.676659730635595
2.174118176460926,16.657797793390785,-0.03595758347233561,2.057566663607345,-0.653335359540403
2.1677038930581056,16.29064459289399,-0.03531223211455733,2.021913341912573,-0.6310541123078007
2.1614059468456204,15.929831452320716,-0.03466494802416778,1.987121553346015,-0.6097465438971277
2.155224531397291,15.575206477342626,-0.03401744584615676,1.9531559464105268,-0.5893492308092015
2.1491595527729856,15.226623967217972,-0.033371205535015394,1.9199830549745187,-0.5698041488757943
2.14321066908409,14.883944086678756,-0.032727502119381795,1.8875711732389953,-0.5510581245581605
2.137377325052868,14.547032559437792,-0.03208743156086409,1.8558902405495044,-0.5330623500817606
2.131658782219816,14.215760381624232,-0.03145193325082432,1.8249117351566984,-0.5157719541280451
2.1260541453625046,13.890003553609176,-0.030821809608190667,1.7946085761216948,-0.49914562098062004
2.1205623856121605,13.569642828820243,-0.03019774317340853,1.7649550326442458,-0.48314525201862724
2.1151823606882867,13.254563478267478,-0.02958031153630181,1.7359266401642455,-0.46773566429458996
2.1099128326151777,12.944655069614061,-0.02897000038713334,1.7075001226514885,-0.4528843216519062
2.104752483235819,12.639811259725402,-0.02836721493907569,1.6796533205558553,-0.43856109444895147
2.099699927797113,12.339929599720676,-0.02777228993543019,1.652365123941095,-0.4247380444792357
2.09475372684465,12.0449113516326,-0.027185498425268413,1.6256154103708904,-0.4113892321242436
2.089912396634446,11.754661315855131,-0.02660705946589107,1.5993849871565315,-0.39849054315913546
2.0851744182425134,11.46908766862597,-0.02603714488891639,1.5736555376119143,-0.3860195329611291
2.0805382455301595,11.188101808851421,-0.025475885248350576,1.5484095709941728,-0.373955286154269
2.0760023121030216,10.911618213636569,-0.024923375053177422,1.5236303758375072,-0.36227828996924927
2.071565037384627,10.639554301933927,-0.024379677373430986,1.4993019764140525,-0.350970319808734
2.0672278458139934,10.371830629099811,-0.023811340078051555,1.4754054995205703,-0.3391589471377597
2.0629917463235214,10.108370422942148,-0.02325643203830641,1.4519301244534706,-0.3278454393963799
2.058854344368219,9.849099146545232,-0.022714700798386736,1.4288618355122722,-0.31700324388955886
2.0548132917823625,9.593944732771341,-0.022185883488906225,1.4061872064198584,-0.3066074912708625
2.050866288431359,9.342837480976705,-0.021669709300024403,1.3838933690761108,-0.29663487175436787
2.0470110834484414,9.095709959175156,-0.021165901621282752,1.3619679842744166,-0.28706352164799304
2.0432454761124506,8.852496911309029,-0.020674179889724947,1.3403992142381311,-0.2778729192479679
2.039567316415938,8.61313516931147,-0.020194261182640828,1.3191756968458737,-0.269043789232589
2.0359745053666947,8.377563569667071,-0.019725861586724038,1.2982865214252333,-0.2605580147808258
2.032464995060457,8.145722874198423,-0.019268697371472875,1.2777212060042002,-0.25239855671910094
2.0290367885578156,7.917555694825381,-0.018822485991212792,1.257469675918484,-0.24454937906880472
2.0256879395942664,7.693006422061433,-0.01838694693710902,1.237522243680945,-0.23699538042884086
2.0224165521487145,7.4720211570277435,-0.01796180245790992,1.2178695900267134,-0.22972233068260856
2.0192207798925748,7.2545476467804555,-0.017546778165865636,1.198502746054277,-0.22271681256807943
2.016098825538844,7.0405352227605675,-0.01714160354225849,1.1794130763889414,-0.21596616769369636
2.01304894010807,6.829934742188502,-0.01674601235522406,1.1605922633006693,-0.20945844662229945
2.01006942212601,6.622698532237234,-0.016359743001002385,1.142032291713425,-0.20318236268068418
2.007158616765863,6.418780336828718,-0.01598253877840924,1.1237254350478432,-0.1971272491841804
2.004314914946344,6.218135265908511,-0.015614148105133592,1.1056642418433469,-0.1912830197942014
2.0015367523953733,6.020719747062731,-0.015254324683428156,1.0878415231097749,-0.18564013175240965
1.9988226086878986,5.826491479350253,-0.014902827621847234,1.0702503403622128,-0.18018955175828666
1.9961710062652327,5.635409389231011,-0.014559421518883682,1.0528839942960435,-0.1749227242777551
1.9935805094423047,5.447433588478759,-0.014223876513651352,1.0357360140622975,-0.1698315420893263
1.9910497234083435,5.262525333973596,-0.013895968308138534,1.0188001471061998,-0.16490831889124932
1.9885772932257602,5.080646989275941,-0.013575478165011439,1.0020703495344068,-0.16014576380850976
1.9861619028313071,4.901761987889749,-0.013262192884465406,0.9855407769788186,-0.1555369576524382
1.9838049799070077,4.726055618602828,-0.012925839607750782,0.9667522150980733,-0.1995896117991243
1.9815048857725441,4.553722295829655,-0.012630761886289612,0.9480624823816401,-0.24465518080767648
1.9792543165231438,4.384744447776235,-0.01237556310704736,0.9294691626563734,-0.2906385941897882
1.9770462205954913,4.2191049293048195,-0.012158836089092137,0.9109699314704656,-0.33744585519118747
1.974873800455842,4.056787005607383,-0.011979165462567611,0.892562554056609,-0.38498383307386613
1.9727305138862765,3.897774336216461,-0.011835129754826618,0.8742448836202917,-0.43316005495838267
1.9706100749204534,3.742050959294506,-0.011725303198763302,0.856014859956994,-0.481882496281098
1.9685064544777275,3.5896012761419414,-0.011648257275968606,0.8378705084048288,-0.5310593688843974
1.9664138807424463,3.440410035862712,-0.011602562004933202,0.8198099391421658,-0.5805989057124474
1.9643268393336126,3.294462320124044,-0.011586786982108306,0.801831346843042,-0.6304091410301176
1.9622400733089165,3.1517435279445642,-0.011599502181181403,0.7839330107067439,-0.6803976850175177
1.9601485830464038,3.0122393604415834,-0.011639278513402353,0.7661132948819135,-0.7304714915162067
1.9580476260467718,2.875935805464316,-0.011704688149174778,0.7483706493099511,-0.7805366176144097
1.9559327166994924,2.742819122034849,-0.011794304598374343,0.7307036110174522,-0.8304979736562945
1.9537996260566848,2.6128758245129085,-0.011906702543932782,0.7131108058930075,-0.8802590621431018
1.9516443816599225,2.486092666393432,-0.012040457420093265,0.6955909509900462,-0.9297217038601409
1.9494632674670123,2.362456623637911,-0.012194144723353501,0.6781428574046233,-0.978785749411629
1.947252823928273,2.2419548774308176,-0.01236633904041692,0.6607654337853088,-1.0273487741732104
1.9450098482650284,2.124574796241376,-0.012555612773411974,0.6434576905418024,-1.0753057544777294
1.9427313950069878,2.010303917057932,-0.012760534538150528,0.6262187448297766,-1.1225487226313826
1.9404147768499957,1.899129925647074,-0.012979667206205166,0.60904782640199,-1.168966398112608
1.9380575659013966,1.7910406356721786,-0.01321156555600886,0.5919442844301792,-1.2144437920329931
1.9356575953870825,1.686023966485756,-0.013454773491924202,0.5749075954189715,-1.258861781636325
1.9332129619023228,1.5840679193863316,-0.013707820783185071,0.5579373723524096,-1.302096651277444
1.9307220282978368,1.4851605521033662,-0.01396921926665728,0.541033375236088,-1.3440195959564925
1.928183427303486,1.3892899512419739,-0.0142374584483541,0.524195523223829,-1.384496183087655
1.9255960660045768,1.2964442023825278,-0.014511000428412904,0.5074239085478129,-1.4233857677581152
1.9229591313003858,1.2066113574877129,-0.014788274062599296,0.49071881250569543,-1.460540856289876
1.92027209649134,1.11977939922037,-0.015067668260130816,0.4740807237980983,-1.495806412466886
1.917534729160709,1.0359362017185418,-0.015347524302437356,0.4575103595555435,-1.5290191003533176
1.9147471005389824,0.9550694873084069,-0.015626127050079413,0.4410086894459477,-1.5600064572385526
1.9119095965648223,0.8771667785601416,-0.015901694885033592,0.4245769633125576,-1.5885859899508485
1.9090229308860507,0.802215345004818,-0.016172368212429903,0.4082167428577008,-1.6145641876611865
1.9060881600782273,0.7302021437312831,-0.016436196318939215,0.39192993795934283,-1.6377354444659669
1.9031067013977088,0.6611137529694275,-0.016691122353489577,0.3757188482835065,-1.6578808856626224
1.900080353431619,0.5949362976399684,-0.016934966158617278,0.3595862109326895,-1.6747670929687826
1.8970113200601246,0.5316553657112273,-0.017165404635766986,0.3435352549422186,-1.6881447263575982
1.8939022382083714,0.4712559140521364,-0.017379949272600403,0.327569763492138,-1.6977470442423996
1.8907562099386674,0.4137221623127161,-0.017575920390777565,0.3116941447236413,-1.7032883302609456
1.8875768395210908,0.35903747320698187,-0.017750417582297222,0.2959135120067214,-1.704462245093397
1.8843682762273994,0.30718421743466706,-0.017900285680939678,0.28023377435233415,-1.7009401373918884
1.8811352637260068,0.25814362138389413,-0.01802207544564371,0.26466173732294374,-1.6923693716624115
1.877883197126108,0.2118955957511517,-0.01811199788656503,0.24920521415200547,-1.6783717667678217
1.874618188944781,0.16841854336877304,-0.018165870794847695,0.2338731456521815,-1.6585422924662228
1.8713471455814896,0.12768914495692485,-0.018179055463946082,0.21867572559055123,-1.632448251716568
1.8680778563287244,0.08968212239435047,-0.018146380677887205,0.20362452510472306,-1.5996292960923557
1.86481909760748,0.0543699807048057,-0.018062049558160514,0.18873260477913872,-1.5595987990091589
1.8615807561304913,0.02172273270198133,-0.01791952240838224,0.17401459525225327,-1.5118473727963608
1.8583739763003853,-0.008292385254073054,-0.017711364592796486,0.15948671537055906,-1.4558496965867436
1.855211339746155,-0.03571119077235352,-0.017429041565319613,0.14516667927701354,-1.3910763672145467
1.8521070891746882,-0.06057279959043882,-0.017062631450976393,0.13107341870171843,-1.317013240729307
1.84907741582623,-0.08291979348432932,-0.016600405754114325,0.11722651345258107,-1.233191717512557
1.8461408417244964,-0.10279824635851753,-0.01602819537625698,0.10364518514953598,-1.1392345577824665
1.843318747833481,-0.12025751436515009,-0.015328403412805329,0.09034668159086007,-1.0349227341587643
1.8406361324518552,-0.13534966707670293,-0.01447843416081216,0.07734390409305933,-0.9202885137619428
1.8381227394234676,-0.1481284260075313,-0.013448155043496654,0.06464230624951232,-0.7957360846158479
1.835814789033274,-0.15864752887389244,-0.012195738180874159,0.05223661448783631,-0.6621792797320905
1.8337577143550345,-0.1669586438213102,-0.010660647132898953,0.04010910715016329,-0.5211607609429605
1.8320106838713452,-0.17310947991236247,-0.008750802685870576,0.028233516083782224,-0.3748776489279406
1.83065486114468,-0.17714392503757637,-0.006313894277075499,0.01659365197411126,-0.22600259213877325
1.8298128299580592,-0.17910968158261653,-0.0030420077964916003,0.005248087415261397,-0.0772005109726174
