x,y,v_x,v_y,omega
2.375,32.48,0.0,2.769230769230769,-3.959183673469388
2.374187599700427,31.93220977933639,-0.008124002995727343,2.708671437405309,-3.7285210556369544
2.37186107655139,31.396308654748946,-0.015141228494642871,2.6503398084691145,-3.5177619681725467
2.368227450742805,30.871864423174706,-0.021195029591211514,2.594102507273281,-3.324661696147619
2.3634670868784258,30.35847044966265,-0.02640860905257981,2.539837227847278,-3.147276275459346
2.357737411575834,29.85574357632327,-0.030888143973334246,2.487431505546534,-2.983916472383698
2.3511760595770856,29.363322259257853,-0.03472537601415008,2.436781665107622,-2.833109649460265
2.3439035451919046,28.880864901402294,-0.03799976783766146,2.3877919134479875,-2.693568021592887
2.336025537854546,28.408048354802702,-0.040780305535924696,2.3403735525479465,-2.5641621181068404
2.3276348062257033,27.944566570275644,-0.04312701075250083,2.2944442927226265,-2.443898507337472
2.318812883784122,27.490129375960834,-0.045092213663313854,2.2499276504254433,-2.331901027719335
2.3096314996040723,27.044461369147484,-0.04672162813718516,2.206752417708085,-2.227394916175102
2.300153810528611,26.607300908096374,-0.04805526261742804,2.1648521928029982,-2.129693340393562
2.2904354648589402,26.178399192501445,-0.0491281940792769,2.1241649631463,-2.038185933445339
2.2805255227040107,25.75751942282327,-0.04997122747001799,2.0846327336354635,-1.9523290024663873
2.2704672540509434,25.34443603004951,-0.050611459060654146,2.0462011941020983,-1.8716371419051425
2.2602988322524697,24.93893396854534,-0.0510727589240856,2.008819420939626,-1.7956760291851634
2.2500539378454048,24.540808065590646,-0.051376185146562246,1.972439608607323,-1.7240562189720072
2.2397622853054,24.14986242199259,-0.05154034025348463,1.937016827373205,-1.6564277834032302
2.2294500834209154,23.76590985883655,-0.05158167859136162,1.9025088041872171,-1.5924756710875025
2.219140438363847,23.38877140601629,-0.05151477197932644,1.868875724015367,-1.531915678534437
2.2088537071892755,23.01827582868154,-0.0513525397663844,1.8360800493321405,-1.4744909448325079
2.198607808366926,22.654259188170684,-0.05110644845711527,1.8040863557764097,-1.4199688945544393
2.1884184949951075,22.29656443436946,-0.05078668526106412,1.772861182235832,-1.368138565599414
2.17829959554408,21.945041026761373,-0.05040230924921484,1.7423728938450507,-1.3188082684283213
2.1682632262951227,21.599544581719798,-0.04996138324035742,1.7125915565706973,-1.271803531272277
2.1583199790639744,21.25993654384105,-0.04947108907112369,1.6834888222167939,-1.2269652926860755
2.148479087305863,20.926083879337156,-0.04893782850999209,1.6550378228221403,-1.184148308511837
2.1387485732803997,20.597858789700915,-0.04836731174464107,1.627213073540298,-1.143219745104467
2.129135378596631,20.2751384440273,-0.04776463509304126,1.5999903831958242,-1.104057934704851
2.1196454801520357,19.957804728527726,-0.047134349352915925,1.5733467717999319,-1.0665512722558466
2.1102839932162922,19.645744011909052,-0.04648052000451816,1.5472603943867844,-1.0305972358441016
2.101055263184622,19.33884692541039,-0.045806780312180426,1.5217104705998552,-0.9961015154030461
2.0919629473308126,19.03700815639864,-0.04511637822591769,1.496677219517612,-0.9629772363996406
2.083019915237032,18.74012813405098,-0.044313942711885136,1.4721230039590187,-0.9282696402977993
2.074237294850079,18.4481108555557,-0.043512261157648044,1.448049780993776,-0.8951543991249152
2.065614770426466,18.160861842709856,-0.04271298307848285,1.42444034746467,-0.8635395602552068
2.057151717674124,17.878289979079256,-0.04191754444493743,1.4012782888413202,-0.8333394862526523
2.0488472440877192,17.60030735682347,-0.04112719141911061,1.3785479337165345,-0.8044743523754255
2.0407002248023707,17.326829132308415,-0.04034300143437112,1.356234311434028,-0.7768696893892109
2.032709334465988,17.057773389905385,-0.03956590192945798,1.334323112596267,-0.7504559671328024
2.024873075572102,16.793061013423333,-0.03879668700940165,1.3128006522242452,-0.7251682147841456
2.017189803643936,16.53261556466474,-0.03803603227225993,1.2916538353616698,-0.7009456742187464
2.0096577496155525,16.27636316863512,-0.037284508011570766,1.2708701249345704,-0.6777314832431328
2.002275039716487,16.024232404972256,-0.03654259097908463,1.2504375116940392,-0.6554723858306531
1.995039713131555,15.77615420519437,-0.03581067487023944,1.230344486084825,-0.6341184667912374
1.9879497376769766,15.532061755396281,-0.03508907967554234,1.2105800118960532,-0.6136229085759177
1.9810030237070075,15.291890404050417,-0.03437806002414923,1.1911335015625775,-0.5939417681553064
1.9741974364414765,15.055577574594505,-0.0336778126311615,1.1719947929965295,-0.5750337721226594
1.9675308068836388,14.823062682510987,-0.03298848294721428,1.1531541278386483,-0.5568601283599262
1.9610009414791603,14.594287056624317,-0.032310171097571394,1.134602131028048,-0.5393843527721528
1.9546056306506066,14.36919386436178,-0.03164293718796464,1.1163297915973247,-0.5225721097442707
1.9483426563272461,14.14772804074131,-0.03098680604564102,1.0983284446073824,-0.506391065106833
1.9422097985770461,13.929836220866253,-0.030341771456358,1.0805897541431777,-0.49081075051555123
1.9362048414362842,13.715466675722158,-0.029707799951260622,1.0631056972977735,-0.4758024382551933
1.9303255780220012,13.504569251084607,-0.02908483419157081,1.0458685490777537,-0.4613390255729754
1.9245698150034722,13.29709530936001,-0.0284727959937181,1.0288708681682026,-0.4473949277312907
1.9189353765008148,13.092997674193171,-0.02787158903285612,1.0121054835001717,-0.4339459790455735
1.9134201074716728,12.89223057768637,-0.027281101258564547,0.9955654815678605,-0.42096934124128266
1.9080265859158776,12.694924796958716,-0.02665411429938567,0.9774923257086859,-0.44333637223871813
1.9027547488789784,12.501222301633959,-0.026064256069607356,0.9595326275388948,-0.4674510043281017
1.8975972367755298,12.311100708259954,-0.02551086496487853,0.9416833062011668,-0.49320135801923665
1.8925468290773317,12.124538237456228,-0.024993212017101345,0.923941401836083,-0.5204781727341415
1.887596457125547,11.9415136901662,-0.02451050750074577,0.9063040710641996,-0.5491745638943758
1.8827392156781573,11.762006424772466,-0.02406190697315221,0.8887685828731311,-0.579185785798967
1.8779683733020183,11.585996334995418,-0.02364651678823888,0.8713323148973536,-0.6104089993190314
1.8732773817112482,11.413463828497576,-0.02326339911946091,0.8539927500810435,-0.6427430434458897
1.8686598841468525,11.244389806117784,-0.022911576524495363,0.8367474737168765,-0.6760882097331918
1.8641097228863106,11.078755641660457,-0.02259003608092289,0.8195941708563742,-0.7103460186701519
1.8596209459663067,10.916543162165809,-0.02229773311911675,0.8025306240901192,-0.7454189970122608
1.8551878131968342,10.757734628586896,-0.022033594575607607,0.7855547116990126,-0.7812104550775079
1.8508048015405394,10.60231271679892,-0.021796521987342325,0.7686644061807457,-0.8176242629898505
1.846466609927358,10.45026049886496,-0.021585394144471488,0.751857773158856,-0.8545646248169708
1.842168163571255,10.301561424480557,-0.021399069416557507,0.7351329706851721,-0.8919358495057239
1.8379046178531626,10.15619930251702,-0.021236387764366316,0.7184882489501858,-0.9296421174654866
1.8336713618320597,10.014158282580002,-0.021096172446662897,0.7019219504199792,-0.9675872415861333
1.829464021444529,9.87542283649572,-0.020977231428645063,0.6854325104228459,-1.0056744214027944
1.8252784624520855,9.739977739632057,-0.02087835849578986,0.6690184582137652,-1.0438059890329663
1.8211107931951145,9.60780805195563,-0.02079833407391904,0.6526784185504967,-1.0818831454119582
1.8169573672124049,9.478899098718443,-0.02073592575317822,0.6364111138213775,-1.119805685238989
1.8128147857860542,9.353236450659104,-0.020689888510328606,0.6202153667720236,-1.1574717089173663
1.8086799004729985,9.230805903593279,-0.020658964620226993,0.6040901038862235,-1.194777319626925
1.8045498156866189,9.111593457256106,-0.020641883243570667,0.5880343594854993,-1.2316163035041605
1.8004218913948762,8.995585293245327,-0.02063735967385469,0.5720472806222935,-1.267879790724238
1.796293746005294,8.882767751897727,-0.020644094221969517,0.5561281328537165,-1.3034558950785364
1.792163259511908,8.773127307912706,-0.020660770711888668,0.5402763069964959,-1.338229329421222
1.788028576985181,8.666650544515111,-0.020686054555381913,0.5244913269794594,-1.3720809941188732
1.7838881124928876,8.563324125924378,-0.020718590367551547,0.508772858927865,-1.4048875353797559
1.77974055354832,8.463134767868148,-0.020756999078126122,0.49312072163445375,-1.4365208700669712
1.7755848661919331,8.36606920584514,-0.02079987448574142,0.4775348985956172,-1.4668476733176974
1.7714203008239835,8.272114160803792,-0.020845779193755094,0.46201555181785164,-1.495728825007986
1.7672463989189762,8.181256301858998,-0.02089323985631761,0.44656303763007843,-1.5230188108329543
1.7630630007681183,8.09348220561882,-0.020940741652262004,0.4311779247717022,-1.5485650735370504
1.7588702544137282,8.008778311635186,-0.020986721891637857,0.4158610150646321,-1.5722073096602378
1.754668625960055,7.927130873426737,-0.02102956264509618,0.40061336701985417,-1.5937767071106472
1.7504589114686016,7.848525904447243,-0.021067582269435902,0.38543632277509643,-1.6130951190016747
1.7462422506733661,7.772949118288867,-0.02109902568291941,0.3703315388086431,-1.6299741696025036
1.7420201427830022,7.70038586231566,-0.021122053220719614,0.35530102092342186,-1.644214289092073
1.7377944646736274,7.630821043819164,-0.021134727873028343,0.340347164041537,-1.6556036752898717
1.7335674918188846,7.564239047676363,-0.02113500067439924,0.32547279738647134,-1.6639171829700248
1.729341922354394,7.500623644372865,-0.021120693970509315,0.3106812356484896,-1.6689151451931101
1.7251209047339273,7.439957887136732,-0.02108948223415567,0.2959763367128602,-1.6703421369581248
1.72090806950747,7.382223996819835,-0.021038870030418568,0.28136256645609,-1.66792570032066
1.7167075658411541,7.32740323307975,-0.020966166632740486,0.26684507094477694,-1.661375063301062
1.712524103512568,7.275475750380565,-0.020868456653120527,0.25242975604705414,-1.650379904391359
1.7083630012624629,7.226420437385897,-0.02074256584793181,0.23812337389961905,-1.6346092431275294
1.70423024258178,7.180214738522896,-0.020585020958898043,0.22393361473040135,-1.6137105791781703
1.7001325402873326,7.136834456948083,-0.02039200198557231,0.20986920101773868,-1.5873094637077165
1.6960774116326993,7.096253538988787,-0.020159284560761645,0.19593997857521722,-1.5550097759852293
1.6920732662818723,7.05844384158555,-0.019882168947507665,0.1821569954571662,-1.516395107432597
1.688129510355112,7.02337488664201,-0.019555390320096514,0.16853255397824723,-1.471031841162005
1.6842566711254596,6.991013609961765,-0.019173001976426518,0.15508021282420523,-1.418474779297984
1.6804665491074136,6.961324118256773,-0.018728218204034443,0.14181470422572084,-1.3582765388964215
1.6767724077409305,6.934267476378576,-0.01821319546079711,0.1287517145562552,-1.2900024344038274
1.6731892164588582,6.909801559389866,-0.017618717359925484,0.11590745533084457,-1.2132531959130415
1.669733971967164,6.887881021079348,-0.01693372755701392,0.10329792777434965,-1.1276985813683142
1.6664261371872704,6.86845745162622,-0.016144620241922,0.09093776675692275,-1.0331255112544084
1.6632882608380744,6.851479818703027,-0.015234143250037925,0.07883856247500198,-0.9295042159994277
1.6603468783250004,6.836895297123434,-0.014179681880704172,0.0670066533209153,-0.8170737888513234
1.657633855447506,6.824650565568742,-0.01295054689423835,0.055440662225981874,-0.6964421910812546
1.6551884398869054,6.8146935317476505,-0.011503608711768469,0.044129675984948796,-0.5686820417024105
1.6530604899004064,6.806975146983255,-0.009775891153220424,0.033054171658994325,-0.4353808937496589
1.651315879848063,6.80145032406713,-0.0076702093702161,0.022194057502276217,-0.29857954155486416
1.650047000112418,6.798075454951551,-0.005018587986234882,0.011554633653512024,-0.16052436440290133
1.6494021864691724,6.796793452113619,-0.001429548446222108,0.001265394725797453,-0.023216733352625113
