x,y,v_x,v_y,omega
2.375,32.48,0.0,3.5384615384615383,-2.7346938775510203
2.3742535613410714,31.78154035277304,-0.007464386589287334,3.4461349338080343,-2.536062779555349
2.3721394923803554,31.101119066175364,-0.013676303017872211,3.358077932168715,-2.359205564045512
2.368888059039829,30.43791284668842,-0.018838030387391756,3.273984262700746,-2.20105587293562
2.3646925987143153,29.791156722478824,-0.02311657286774562,3.1935769793952016,-2.0590543326899686
2.359715903565878,29.160138534984142,-0.02665037861662401,3.116604895551603,-1.9310538677801712
2.3540953989993034,28.544194090027457,-0.029554667049125613,3.042839554015256,-1.8152445749529258
2.3479473647809357,27.942702871071823,-0.031925675134550295,2.9720726355410885,-1.710093747907611
2.341370391277145,27.35508423464036,-0.03384405990335962,2.904113728773554,-1.614297717280428
2.3344482214483184,26.78079402164576,-0.03537763838490146,2.8387884011724185,-1.5267429645574548
2.3272520971729755,26.219321529302974,-0.03658360436852818,2.7759365222554733,-1.4464745594726187
2.3198427037482174,25.670186797097443,-0.03751032987905167,2.7154107997998316,-1.3726704139138406
2.31227178722376,25.13293816743094,-0.03819883536552351,2.657075496865177,-1.3046201806374929
2.304583504250915,24.607150087425513,-0.038683994362930525,2.6008053031891065,-1.2417078803377168
2.2968155523769527,24.092421123203867,-0.038995524376687504,2.546484339027342,-1.183397536208236
2.289000119447608,23.58837216198701,-0.03915880491676089,2.494005273141219,-1.129221245938032
2.2811646834357906,23.094644780715676,-0.03919555520141206,2.4432685395721276,-1.078769238033799
2.2733326881669758,22.61089976273469,-0.039124397486737676,2.394181640237713,-1.0316815505637302
2.2655241157354844,22.136815746475783,-0.038961326828174166,2.3466585223513587,-0.9876410419139087
2.2577559726506196,21.67208799211147,-0.03872010402047664,2.3006190212917845,-0.9463674994800684
2.25004270372375,21.216427253892224,-0.03841258524821588,2.2559883609006683,-0.9076126568140662
2.2423965452566583,20.769558747370617,-0.03804899942270211,2.2126967043154053,-0.8711559652133808
2.234827827100361,20.331221201999814,-0.03763818214027109,2.1706787493926214,-0.8368009940761578
2.227345231530253,19.901165990702705,-0.03718777356080981,2.129873363578471,-0.8043723570750221
2.2199560155552764,19.47915632896885,-0.036704386188956405,2.0902232537600933,-0.7737130795127001
2.212666202188653,19.064966536871857,-0.03619374747728035,2.051674667209806,-0.7446823370292236
2.205480745310007,18.65838135812822,-0.03566082130917579,2.0141771202265764,-0.7171535078497145
2.198403672007229,18.25919533095538,-0.03510991171860595,1.9776831515018332,-0.6910124905539258
2.1914382056721404,17.8672122060452,-0.03454475163227975,1.9421480975999772,-0.6661562473546472
2.184586872613704,17.48224440745947,-0.03396857895208448,1.9075298882573364,-0.6424915394399794
2.177851594527333,17.104112532686294,-0.03338420191162165,1.8737888594743852,-0.6199338263404063
2.1712337688037153,16.732644888477736,-0.032794055324560215,1.8408875826112185,-0.5984063057453723
2.164734338363109,16.367677059426534,-0.03220024908150298,1.808790707900796,-0.5778390738913045
2.1583538524513632,16.009051506539173,-0.0316046100359522,1.7774648209728083,-0.5581683897145402
2.1520925196237126,15.656617193328206,-0.031008718240554983,1.7468783111368782,-0.5393360285217629
2.1459502539651085,15.310229237183485,-0.030413938345486436,1.7170012503103456,-0.5212887130688112
2.1399267154459367,14.969748583992875,-0.029821446846232353,1.6878052815957445,-0.503977611730235
2.134021345184932,14.635041704171446,-0.029232255763815367,1.6592635166185297,-0.48735789494696774
2.128233396283237,14.305980308426737,-0.02864723325312923,1.631350440828557,-0.4713883424070632
2.1225619608017627,13.982441081738788,-0.028067121561616847,1.6040418260509142,-0.4560309944847658
2.1170059933757326,13.664305434169261,-0.02749255269868359,1.577314649644336,-0.4412508423691479
2.1115643318934607,13.351459267235846,-0.02692406212403811,1.5511470196898236,-0.427015552082245
2.1062357156091567,13.04379275469794,-0.0263621007190012,1.5255181056892575,-0.41329521824035287
2.1010188010105164,12.741200136698549,-0.02580704526740238,1.500408074304644,-0.40006214396938444
2.0959121757196857,12.443579526296691,-0.025259207640904748,1.4757980297139348,-0.3872906438612117
2.0909196671767414,12.150833155665755,-0.024665877788538376,1.4516656765954337,-0.37347652254373315
2.086044482276462,11.862866749587713,-0.024085971214251347,1.4279983841849897,-0.3602870049665572
2.0812839493286064,11.57958893792215,-0.02351935826430724,1.4047797324706481,-0.34768651782970295
2.0766354255168635,11.300911560566611,-0.022965879853121627,1.3819940410847267,-0.33564189735497196
2.072096302291348,11.026749523708723,-0.022425352402033298,1.3596263274941385,-0.32412220017267634
2.067664009838002,10.757020664159889,-0.021897572131424396,1.3376622679942154,-0.3130985310275677
2.063336020746,10.491645621231633,-0.021382318788597185,1.3160881612883284,-0.3025438856359909
2.0591098529788363,10.230547715657323,-0.02087935888303934,1.294890894454763,-0.2924330072083946
2.054983072241392,9.973652835099887,-0.02038844849140461,1.2740579111195809,-0.28274225531177266
2.0509532938236026,9.720889325820949,-0.019909335686490767,1.2535771816697983,-0.27344948588817364
2.0470181839912,9.472187890118438,-0.01944176263753284,1.2334371753553084,-0.2645339413704975
2.0431754609851374,9.227481489168834,-0.01898546742309458,1.2136268341407381,-0.2559761499474773
2.0394228956835674,8.986705250936762,-0.018540185592604917,1.1941355481799867,-0.24775783312780592
2.035758311973503,8.749796382839094,-0.01810565150803841,1.1749531327966811,-0.23986182084037652
2.0321795868733705,8.516694088873095,-0.017681599493284503,1.1560698068633048,-0.23227197338489863
2.0286846504425116,8.287339490938724,-0.017267764815308926,1.1374761724804086,-0.22497310961591052
2.025271485509159,8.061675554104163,-0.016863884518212337,1.1191631958651882,-0.2179509408044458
2.0219381272444705,7.839647015581054,-0.016469698128676814,1.101122189365885,-0.21119200967622215
2.018682662606702,7.621200317191967,-0.016084948249008826,1.0833447945250032,-0.204683634173975
2.0155032296766016,7.406283541127436,-0.015709381051993866,1.0658229661203091,-0.19841385553514118
2.0123980169023987,7.194846348803605,-0.015342746690034985,1.0485489571180218,-0.19237139031509776
2.009365262270443,6.9868399226440445,-0.014984799629522524,1.0315153044775947,-0.1865455860211029
2.006403252415486,6.782216910621081,-0.014635298920046795,1.0147148157520436,-0.18092638005342485
2.003510321682792,6.580931373402681,-0.014294008406895287,0.9981405564319564,-0.17550426167828262
2.0006876454394193,6.383105722425778,-0.013932754026827353,0.9801159533370765,-0.20337079043555484
1.9979339282149184,6.188873925034525,-0.013604418218182191,0.9622020205754639,-0.23285107664981514
1.995242639511195,5.998214144159544,-0.013308468819052732,0.9443957881743558,-0.2638401392122153
1.9926073620612168,5.811105125448567,-0.01304430568073074,0.9266943989354125,-0.2962353414891973
1.9900218047752,5.627526175124288,-0.012811267179435848,0.9090951043073903,-0.32993616742934573
1.9874798144397319,5.447457138630899,-0.012608636175247,0.8915952606265124,-0.3648440023706206
1.9849753862765687,5.270878379996827,-0.01243564545638469,0.8741923257142045,-0.40086191766161716
1.9825026734605806,5.097770761842984,-0.012291482703495286,0.8568838558242103,-0.43789445821389317
1.9800559956897033,4.928115625967216,-0.012175295005277958,0.8396675029334881,-0.47584743209930985
1.9776298468938114,4.761894774436495,-0.012086192953642988,0.8225410123737208,-0.5146277012965338
1.9752189021640898,4.599090451118844,-0.012023254343571363,0.8055022208028052,-0.5541429726740513
1.9728180239797393,4.43968532358673,-0.011985527499933427,0.7885490545183297,-0.5943015882729001
1.9704222678046768,4.283662465323111,-0.011972034250693042,0.7716795281178599,-0.6350123139203552
1.9680268871232927,4.131005338159941,-0.011981772563146816,0.7548917435138579,-0.6761841251654844
1.965627337981268,3.981697774877123,-0.01201371885709862,0.7381838893143186,-0.7177259894781649
1.9632192830949462,3.8357239618873145,-0.012066830006119784,0.7215542405837614,-0.7595466435940629
1.9607985955908078,3.6930684219286256,-0.012140045035265595,0.7050011590031354,-0.8015543648183838
1.9583613624352034,3.5537159966831595,-0.012232286520777942,0.6885230934515422,-0.8436567350198856
1.955903887613689,3.417651829234252,-0.012342461694368263,0.6721185810375452,-0.8857603959526249
1.9534226951190912,3.2848613462691674,-0.012469463251608274,0.6557862486132947,-0.9277707944349156
1.9509145318078585,3.1553302399267515,-0.01261216986071817,0.6395248148108751,-0.9695919157916659
1.9483763701853278,3.0290444491809367,-0.012769446364589357,0.6233330926472909,-1.0111260038261134
1.9458054111823526,2.9059901406409594,-0.012940143665162348,0.6072099927524988,-1.0522732654284124
1.9431990869883118,2.786153688637306,-0.013123098275246037,0.5911545272840298,-1.092931557749858
1.940555064008942,2.6695216544486797,-0.01331713151845096,0.575165814602224,-1.1329960556710639
1.9378712460217922,2.556080764509243,-0.013521048353047663,0.5592430847921432,-1.172358897068513
1.93514577760747,2.445817887416819,-0.013733635790174222,0.5433856861320944,-1.2109088031351278
1.932377047941371,2.3387200095411416,-0.013953660870815888,0.5275930926246842,-1.2485306707358195
1.929563695038363,2.234774209006197,-0.01417986815926427,0.5118649127247707,-1.2851051334780192
1.9267046105521148,2.1339676277917228,-0.01441097670321815,0.49620089941996265,-1.3205080878507494
1.923798945241575,2.0362874416653405,-0.014645676402180468,0.48060096184386786,-1.3546101804364084
1.9208461152297387,1.941720827617896,-0.014882623716182798,0.46506517863056385,-1.3872762518323878
1.9178458091945252,1.8502549284297132,-0.015120436635950358,0.44959381325124925,-1.418364732544236
1.9147979966486106,1.7618768139434664,-0.01535768882319575,0.4341873316112192,-1.447726985743706
1.9117029374847365,1.6765734385595827,-0.015592902815544244,0.41884642222763463,-1.475206591447948
1.9085611929857484,1.5943315944011829,-0.015824542174337184,0.4035720193563551,-1.500638566407629
1.9053736385248303,1.5151378595165994,-0.01605100243484506,0.3883653294894627,-1.523848513848308
1.902141478211671,1.4389785403972866,-0.016270600696747347,0.37322786170367755,-1.5446516972751765
1.8988662617752525,1.3658396079866613,-0.01648156366743721,0.3581614624025607,-1.5628520329512419
1.895549904014422,1.2957066262404169,-0.016682013940868594,0.34316835505988813,-1.5782409965775261
1.8921947071944378,1.2285646721710748,-0.01686995425897328,0.32825118563354255,-1.5905964414121911
1.8888033868226195,1.1643982461706024,-0.017043249459208695,0.3134130743711887,-1.599681327962549
1.885379101300936,1.1031911712576488,-0.017199605757628137,0.2986576747583496,-1.6052423700559204
1.8819254860304289,1.0449264797472253,-0.017336546947441585,0.283989240345886,-1.607008609404505
1.878446692635572,0.9895862857021704,-0.017451387001127458,0.26941270010467466,-1.6046899419953162
1.8749474340916508,0.9371516414178096,-0.017541198438086616,0.2549337427389218,-1.5979756366299296
1.8714330366837935,0.8876023761473846,-0.017602775640486866,0.240558909965322,-1.586532911470266
1.8679094999161743,0.8409169153500642,-0.017632592035705153,0.22629569800787297,-1.57000567258636
1.8643835657464183,0.797072079021806,-0.017626749661852136,0.21215266527471738,-1.548013575242635
1.860862798879779,0.756042858286321,-0.01758091900454155,0.1981395420801151,-1.5201516527826737
1.8573556803804827,0.7178021705872659,-0.01749026598842022,0.18426733491042144,-1.4859908822309482
1.8538717176444695,0.6823205958502498,-0.01734936137171353,0.1705484124597535,-1.4450802383278454
1.850421574997882,0.6495660993482275,-0.017152065094159508,0.1569965525604702,-1.3969510538475391
1.8470172311249573,0.6195037523937188,-0.016891373635089538,0.1436269169846235,-1.3411248866141374
1.8436721726703533,0.5920954703481129,-0.016559210910950365,0.13045590347141942,-1.2771266306172562
1.8404016385182915,0.5672997999906002,-0.016146130609668678,0.1175008001037153,-1.2045053309315148
1.8372229377857998,0.5450718062872717,-0.015640876715246776,0.10477913692955293,-1.1228660573816083
1.8341558787310372,0.5253631326348192,-0.01502971383237917,0.09230759959497742,-1.0319171135523602
1.8312233692371165,0.5081223367080518,-0.014295381106828854,0.08010035967271308,-0.9315373229229819
1.8284522882206362,0.493295627060359,-0.013415429057974368,0.06816673680420147,-0.8218669328256966
1.825874791216075,0.48082811867254804,-0.012359540987639084,0.056508347073923215,-0.7034202944970827
1.823530322317757,0.47066563325723365,-0.011085147995540483,0.04511650707923629,-0.57720479636486
1.8214688127683063,0.46275678738984993,-0.009529947498967135,0.03397195159457833,-0.4448046392935795
1.8197560559153914,0.457054453043348,-0.0075976210301807925,0.023051391870468063,-0.30835349802963263
1.8184840136427414,0.4535141453899527,-0.005122801696320399,0.012351684663511253,-0.17029890210931772
1.8177984463543155,0.4520809619459101,-0.0017328711879371923,0.001980149776885416,-0.032903215577907596
