x,y,v_x,v_y,omega
2.375,32.48,0.0,3.435897435897436,-4.448979591836735
2.3737109199232376,31.768040881928904,-0.012276953112021175,3.344665593351079,-4.119894903869548
2.3700622116644046,31.07478377733464,-0.02247264935305906,3.2577830218323793,-3.8275950674939554
2.3644552281621625,30.39934962768475,-0.03092719352543383,3.174923165309431,-3.566800167300118
2.357226213483541,29.740924409815296,-0.03792056531858307,3.095793195352018,-3.333121380124061
2.3486577054618345,29.098752536208032,-0.04368427298338284,3.020129410431467,-3.122890542736405
2.3389877507516763,28.472131137093847,-0.048410533780028873,2.947693438275068,-2.933025955587904
2.328417391519217,27.86040507384913,-0.052259554148154676,2.8782690688174664,-2.7609259579313643
2.3171167778403308,27.262962564796567,-0.055365338031712744,2.811659588825984,-2.604383965265903
2.3052301809242097,26.679231328326228,-0.057840346883726246,2.74768552041533,-2.461520220667207
2.2928801224315944,26.108675166414255,-0.059779257807846126,2.6861826882701387,-2.3307266543248653
2.280170789408991,25.55079092565736,-0.06126200907409203,2.6270005570336203,-2.2106220910353405
2.2671908691235285,25.005105783931548,-0.062356279358886615,2.570000792736011,-2.100015676737637
2.2540159107537407,24.47117481948479,-0.0631195146390899,2.515056011518834,-1.9978768706982046
2.240710299559658,23.948578826236137,-0.06360059197122374,2.4620486860874107,-1.9033107109447123
2.227328912406724,23.43692234467996,-0.06384119043767297,2.4108701858761603,-1.8155373366054932
2.213918510295405,22.9358318823814,-0.06387692490822032,2.3614199312529744,-1.7338749633544965
2.2005189130559057,22.444954301820392,-0.0637382868965343,2.3136046455185375,-1.6577256728447027
2.187163993001306,21.963955356465885,-0.06345142790917872,2.2673376911910537,-1.5865635053746703
2.1738825176314034,21.492518358567843,-0.06303881370893823,2.2225384792664955,-1.5199244456463115
2.160698866089068,21.030342964342392,-0.06251977240854495,2.1791319419282793,-1.4573979707543943
2.1476336397169273,20.57714406407295,-0.06191095494517481,2.137048060637824,-1.3986198923365356
2.134704183531737,20.132650766218617,-0.0612267230090171,2.096221442736788,-1.3432662747760444
2.1219250325603696,19.69660546595932,-0.06047947671829203,2.0565909406850835,-1.2910482512896908
2.109308294634446,19.268762989754315,-0.0596799321000271,2.01809930888641,-1.2417075917984215
2.096863979317172,18.848889808477857,-0.05883735663591687,1.9806928937464872,-1.195012902330801
2.0846002810543807,18.43676331254919,-0.05795976967638276,1.9443213531932135,-1.1507563566341341
2.072523823337269,18.032171143213766,-0.057054113343729215,1.908937402382223,-1.1087508776706967
2.0606398695850388,17.634910574776832,-0.0561263985822721,1.874496582731458,-1.0688277005426858
2.0489525055601376,17.244787943152392,-0.055181830226309306,1.8409570517870155,-1.0308342597381288
2.0374647973836537,16.861618116583124,-0.054224914311631726,1.8082793917298472,-0.9946323529100365
2.0261789285967255,16.485224004818782,-0.053259550325780905,1.7764264345972005,-0.9600965410805041
2.015096319193765,16.115436103421395,-0.05228911065479478,1.7453631025207859,-0.9271127515093274
2.0042177291171575,15.752092070201197,-0.051316509122418655,1.715056261481115,-0.8955770547301353
1.9935433483364364,15.395036331084544,-0.050344260217782225,1.6854745872489194,-0.8653945916343995
1.9830728753259637,15.04411971297835,-0.04937453035814893,1.6565884423338728,-0.8364786301347013
1.9728055854941835,14.699199101429716,-0.04840918232547354,1.6283697628911988,-0.8087497339924338
1.962740390896618,14.3601371210878,-0.047449813841817616,1.6007919546508713,-0.7821350289563597
1.9528758923773908,14.026801837160864,-0.04649779110320127,1.5738297970342365,-0.7565675535122884
1.9432104251247733,13.699066476227618,-0.04555427796934822,1.547459354710952,-0.7319856833600603
1.9337420984905684,13.376809164910657,-0.044620261404030595,1.521657895926752,-0.7083326202688789
1.9244688308073667,13.059912685053234,-0.04369657367407953,1.4964038170010987,-0.6855559372624984
1.9154010910517631,12.748265615880157,-0.042662852569764174,1.4716635084567669,-0.6601531827971336
1.906548030807605,12.44176065447473,-0.04165200689840932,1.4474313620711006,-0.6359540412609062
1.8979048533546736,12.14029304887665,-0.04066396884379515,1.4236886912439446,-0.6128868863850278
1.8894667841402768,11.8437618785007,-0.039698595102841544,1.4004176932889216,-0.5908851635048421
1.8812290853823752,11.552069874014858,-0.03875567878193524,1.3776013970524188,-0.5698869736846717
1.8731870683390868,11.265123247830857,-0.037834959725572194,1.3552236142237906,-0.549834696474925
1.8653361035523552,10.982831534463681,-0.03693613348139384,1.3332688940350386,-0.5306746473011161
1.8576716293335878,10.705107440076993,-0.03605885907829705,1.3117224810762589,-0.5123567659403618
1.8501891587244381,10.43186670058627,-0.035202765770746616,1.2905702759782605,-0.4948343329402227
1.8428842851358842,10.163027947741242,-0.034367458882147844,1.2697987987362855,-0.4780637111850467
1.8357526868426788,9.898512582654686,-0.03355252486266589,1.2493951544690132,-0.4620041101227473
1.8287901304876097,9.638244656285789,-0.03275753566180196,1.2293470014252394,-0.4466173704357908
1.8219924737303044,9.3821507564241,-0.031982052503010075,1.2096425210670423,-0.43186776717886
1.8153556671581694,9.13015990075439,-0.03122562913636983,1.1902703900730414,-0.4177218296163327
1.8088757555621156,8.882203435614251,-0.030487814635571868,1.1712197541187364,-0.40414817617892024
1.8025488786666943,8.638214940084968,-0.02976815579701215,1.1524802033030028,-0.3911173631236211
1.796371271392906,8.398130135082571,-0.029066199191447796,1.1340417491007668,-0.37860174562721977
1.790339263722014,8.161886797140149,-0.028381492912287483,1.1158948027318125,-0.3665753501732006
1.7844492802200245,7.929424676594618,-0.02771358805904083,1.098030154844676,-0.35501375720715395
1.778697839274915,7.700685419911537,-0.027062039989621194,1.0804389564227646,-0.3438939931382606
1.773081552092051,7.4756124959002825,-0.026426409370987794,1.0631127008272796,-0.33319443085576855
1.7675971214874333,7.254151125589097,-0.02580626305394287,1.0460432068982952,-0.32289469801083853
1.7622413405133264,7.036248215545417,-0.02520117479469614,1.0292226030415181,-0.3129755923868877
1.7570110909463672,6.8218522944414985,-0.024610725843010425,1.0126433122338843,-0.3034190037466107
1.7519033416643501,6.610913452678879,-0.02403450541429599,0.9962980378862913,-0.29420784160208396
1.7469198852697603,6.403518159394643,-0.023426984057988876,0.9788952314873732,-0.31101357433187665
1.7420604285562251,6.199765332886685,-0.022853556070917685,0.9616078781122482,-0.32975891566095245
1.7373178438218462,5.999631066583927,-0.022313917589832463,0.9444327533425952,-0.3503320953093697
1.7326850763789818,5.803092117840148,-0.02180767710411342,0.9273667585029187,-0.3726244178806236
1.728155162112036,5.610125882083366,-0.02133436353346646,0.9104069153712062,-0.3965300212458048
1.7237212434081393,5.420710368032655,-0.020893433646504218,0.8935503613022218,-0.4219456427110083
1.7193765835941313,5.234824173897643,-0.020484278867857062,0.8767943447455276,-0.4487703920329397
1.715114580003672,5.052446464479374,-0.020106231517470194,0.8601362211427526,-0.4769055303739537
1.710928775789526,4.873556949094329,-0.019758570522015816,0.8435734491909931,-0.5062542543078085
1.7068128705880543,4.698135860245809,-0.019440526634854648,0.8271035874615712,-0.5367214840012783
1.7027607301356371,4.526163932968945,-0.019151287197691404,0.8107242913656988,-0.5682136547044414
1.698766394930114,4.357622384777148,-0.018890000473958408,0.794433310460945,-0.6006385106838706
1.6948240880243426,4.192492896138795,-0.01865577958100538,0.7782284860947942,-0.6339049007279712
1.6909282220335755,4.030757591413515,-0.018447706045347585,0.7621077493840464,-0.6679225743421234
1.687073405433551,3.8723990201773937,-0.01826483300250513,0.746069119531386,-0.7026019777328202
1.6832544482219534,3.717400138865866,-0.018106188060329913,0.7301107024831563,-0.7378540486542958
1.679466367012194,3.5657442926619325,-0.017970775842139936,0.7142306899352697,-0.77359000915778
1.675704389625308,3.4174151975555134,-0.017857580223439203,0.6984273586973019,-0.8097211552419805
1.6719639592431328,3.272396922497336,-0.017765566273470798,0.6826990704282044,-0.8461586423530946
1.6682407381838362,3.1306738715674918,-0.017693681910304827,0.667044271760785,-0.8828132656228764
1.6645306113593188,2.992230766074808,-0.017640859275574843,0.6514614948362113,-0.9195952336632874
1.6608296894729904,2.8570526264981986,-0.017606015832316864,0.6359493582743604,-0.9564139346551235
1.6571343120160038,2.7251247541752406,-0.017588055186603196,0.620506568610947,-0.9931776933748205
1.65344105012018,2.596432712636087,-0.017585867630764866,0.605131922238117,-1.0297935176973134
1.6497467093266427,2.4709623084724583,-0.017598330402924578,0.5898243078916922,-1.0661668329922747
1.6460483323306367,2.348699571621591,-0.017624307654275924,0.5745827097356278,-1.1022012026951324
1.6423432017651778,2.229630734933572,-0.017662650111998433,0.5594062111026391,-1.1377980331818156
1.6386288430891245,2.1137422128770424,-0.017712194421841812,0.5442939989595358,-1.1728562609061348
1.6349030276490613,2.0010205792227325,-0.017771762150189233,0.5292453691767569,-1.207272019570179
1.6311637759891122,1.891452543526288,-0.01784015842075529,0.5142597326941514,-1.240938284890505
1.6274093614885616,1.7850249262110118,-0.01791617015591664,0.49933662268943135,-1.273744494296218
1.6236383144140627,1.6817246320270378,-0.017998563886930247,0.4844757028722241,-1.3055761386500768
1.6198494264813936,1.5815386216356728,-0.01808608309087136,0.4696767770455544,-1.3363143228227088
1.6160417560313363,1.4844538810355736,-0.018177445004911925,0.4549398000982357,-1.3658352916769905
1.612214633935475,1.3904573885105407,-0.018271336860433716,0.440264890616369,-1.394009917741745
1.60836767036075,1.2995360787361427,-0.01836641147027965,0.42565234533028623,-1.4207031465824846
1.6045007625367091,1.2116768036337255,-0.01846128209201305,0.41110265564512943,-1.445773395629598
1.600614103686841,1.1268662895043882,-0.018554516478159935,0.3966165265390465,-1.469071902027808
1.5967081933055023,1.0450910899117467,-0.01864463001078188,0.3821948981527691,-1.4904420149645619
1.5927838489851585,0.96633753370973,-0.018730077802016926,0.3678389704378697,-1.5097184279777525
1.5888422200254295,0.8905916675296126,-0.018809245623971703,0.3535502312775426,-1.5267263470203671
1.5848848030863711,0.8178391919485861,-0.018880439509917947,0.33933048854177,-1.5412805906959293
1.5809134601842882,0.7480653904602335,-0.018941873843251023,0.3251819065853918,-1.5531846202550468
1.5769304393701664,0.6812550502562722,-0.01899165771981427,0.3111070477380416,-1.5622294989226995
1.5729383984798255,0.6173923737108566,-0.019027779331051927,0.29710891936114914,-1.5681927832892377
1.5689404324030216,0.556460879338065,-0.01904808806708026,0.2831910270464011,-1.570837354398505
1.5649401043885425,0.4984432908775922,-0.019050273975578288,0.2693574344819151,-1.5699102036074335
1.5609414819877558,0.44332141306653483,-0.01903184412715103,0.2556128303852907,-1.5651411994409588
1.5569491783459197,0.39107599259806136,-0.01899009531890783,0.24196260264777417,-1.5562418782237981
1.5529683996878854,0.3416865627855543,-0.018922082376655804,0.22841291937609504,-1.5429043257098343
1.5490050000268578,0.29513127059792765,-0.018824581061704378,0.21497081574414734,-1.5248002528456528
1.5450655443743275,0.2513866850928892,-0.018694044200487724,0.20164428430383244,-1.5015804214058694
1.5411573820829314,0.21042758697928576,-0.018526549050904218,0.18844236439713283,-1.4728746520202303
1.5372887324717266,0.17222674028316476,-0.01831773296057074,0.17537522318495646,-1.4382927587311918
1.5334687856637246,0.13675464916584446,-0.018062712829923763,0.16245421602758509,-1.3974269154920376
1.529707822771016,0.10397930627038221,-0.017755981386350372,0.14969190678634825,-1.3498561907439088
1.5260173614622807,0.073865944152395,-0.017391269173031507,0.13710201814689377,-1.2951543109384769
1.5224103359851093,0.046376809178006795,-0.016961354419076542,0.12469926732349151,-1.2329021582613182
1.5189013256218988,0.021470988697068094,-0.016457791897215034,0.11249902297113826,-1.1627070862725193
1.5155068535239138,-0.000895661801862957,-0.01587051379787979,0.10051669606633085,-1.084231820098922
1.5122457908077271,-0.020770424382874353,-0.015187226356278517,0.08876675708618802,-0.9972363451457285
1.509139921742575,-0.03820336740738384,-0.01439247902612264,0.07726127171866817,-0.9016363502680876
1.506214759589379,-0.05324663139743535,-0.013466208147173041,0.06600790913898248,-0.7975804824645032
1.5035007571224375,-0.06595325825063014,-0.012381434395128451,0.05500758470094925,-0.6855439518368138
1.5010351469833076,-0.07637555637123938,-0.011100566929915965,0.04425239740005859,-0.5664249450719492
1.498864818581667,-0.08456323770489149,-0.009569227371423454,0.03372552006328924,-0.4416104384421412
1.4970510500123542,-0.09056210494311046,-0.007704759002984672,0.023406548872146833,-0.3129526661048607
1.4956782803213273,-0.09441527363930646,-0.005369238054413963,0.013290295853544517,-0.18258286394469356
1.4948758957119854,-0.09617313860567833,-0.0022725201297952567,0.003451275254744649,-0.05251606290505101
