x,y,v_x,v_y,omega
2.375,32.48,0.0,3.5897435897435894,-3.7142857142857144
2.374177113289694,31.841688263386526,-0.00914318567006541,3.5026090392949683,-3.4663413097594074
2.371835657094965,31.21872771346301,-0.01687299427137115,3.4191748487440767,-3.2432612220188277
2.368211164603539,30.610474558570996,-0.023399144522250212,3.3391935389450005,-3.0418254169330723
2.3635044495216913,30.0163275353371,-0.028897689720503175,3.2624400525427144,-2.859305314492384
2.3578871327909363,29.435724109974327,-0.03351694062121777,3.188709118154763,-2.693378740372415
2.351506205706491,28.86813711878394,-0.03738224920594946,3.117813006182864,-2.542061228153124
2.344487813020572,28.313071783811466,-0.04059989174870346,3.049579604622422,-2.4036502239197177
2.336940401568814,27.77006305110112,-0.043260235493054265,2.983850758825867,-2.276679535985971
2.3289573504556103,27.238673208028068,-0.04544033243143216,2.9204808308747032,-2.159881967317614
2.320619175801789,26.718489743370156,-0.04720605261102866,2.859335443102083,-2.052158519248662
2.311995384965476,26.209123419548696,-0.04861384557022931,2.800290377136402,-1.952552899656328
2.3031460408534814,25.710206531143736,-0.049712200118596166,2.743230605140922,-1.8602303338686363
2.2941230855882258,25.221391327613176,-0.05054285838424418,2.688049434087496,-1.7744598818870692
2.284971463734008,24.742348581297172,-0.05114182888484125,2.6346477472014356,-1.6945996254781879
2.2757300780201306,24.27276628440731,-0.05154023460268632,2.582933329352588,-1.6200842140511824
2.2664326046457375,23.812348460889005,-0.0517650251127922,2.5328202652952325,-1.5504143570118045
2.257108190517533,23.360814080887444,-0.05183957631170502,2.4842284013888176,-1.485147928504834
2.2477820509276727,22.917896067106142,-0.051784196908964526,2.4370828628478494,-1.4238924127035302
2.2384759830460323,22.4833403836735,-0.05161655733148252,2.3913136197370513,-1.3662984675663161
2.229208808038082,22.05690519926643,-0.051352053867966325,2.346855095897023,-1.3120544249367438
2.2199967525157818,21.638360117214184,-0.051004118602035006,2.303645815794649,-1.2608815770794264
2.2108537782962725,21.227485466145218,-0.050584483836957725,2.261628084971614,-1.212530125825263
2.2017918680116435,20.824071645467413,-0.05010340821447534,2.220747700337351,-1.1667756916937708
2.1928212729267815,20.427918520603583,-0.04956987050621129,2.180953687038531,-1.1234162976476565
2.183950728336317,20.03883486345554,-0.048991736054508864,2.142198059050835,-1.0822697562852648
2.175187641089863,19.656637834051644,-0.048375900017197236,2.1044356009924594,-1.0431714008990103
2.166538253107889,19.281152499755706,-0.04772841089363103,2.0676236689624323,-1.0059721104054595
2.1580077841749525,18.91221138878693,-0.04705457725010558,2.031722008468382,-0.9705365860702933
2.1496005568134806,18.54965407512867,-0.0463590600995834,1.9966925877345176,-0.9367418445168011
2.141320105633976,18.193326792193663,-0.0456459530060224,1.9624994448766693,-0.9044758969669567
2.1331692732137353,17.8430820728706,-0.04491885166331705,1.9291085476017797,-0.8736365892185706
2.125150294265202,17.49877841380502,-0.04418091443149568,1.8964876642380193,-0.8441305806714338
2.1172648696083516,17.160279961970737,-0.043434915089066134,1.8646062450317968,-0.8158724439102581
2.1095142312517927,16.827456221769292,-0.04268328887270185,1.8334353127620204,-0.788783869038759
2.1018991997086625,16.50018178105671,-0.0419281727176356,1.8029473618222318,-0.7627929592240739
2.094420234520954,16.17833605464185,-0.041171440479122544,1.7731162650095542,-0.7378336058247879
2.087077478835563,15.861803043930628,-0.040414733802998745,1.7439171873373753,-0.7138449330973755
2.0798707987636478,15.550471111507076,-0.03965948921828092,1.7153265062576561,-0.6907708038528001
2.072799818159033,15.244232769547295,-0.038906961944109926,1.6873217377399061,-0.6685593786069096
2.0658639493689304,14.942984481056971,-0.03815824683480479,1.6598814677081561,-0.6471627217678761
2.059062420439239,14.646626473008535,-0.03741429682843326,1.6329852883855704,-0.6265364492584309
2.052394299195374,14.355062560531287,-0.03667593921451366,1.6066137391393915,-0.6066394127026439
2.045858514566616,14.068199981377582,-0.035943889993903834,1.5807482514573432,-0.5874334159353546
2.0394538754760907,13.785949239951531,-0.035218766567489956,1.5553710977209814,-0.5688829601328261
2.0331790875787044,13.508223960244138,-0.03450109895902699,1.5304653434722622,-0.5509550143289794
2.027032768094836,13.234940747070887,-0.03379133975062066,1.506014802897192,-0.5336188084837584
2.0210134589575204,12.96601905505537,-0.03308987288622046,1.48200399727522,-0.5168456466181064
2.0151231741954176,12.701381717688427,-0.032357735581586805,1.4584108623574585,-0.49955682161795584
2.009363323905439,12.440954140178192,-0.03164060097373277,1.4352288877562822,-0.48299151008034136
2.0037312179952975,12.184663538262537,-0.030938353583394206,1.4124444668620937,-0.4671113727061718
1.9982241899460462,11.932439525718753,-0.03025084696384107,1.3900445614021646,-0.45188048475569725
1.9928396019635615,11.684214014760016,-0.029577908397100745,1.3680166714726956,-0.437265159636344
1.9875748493357537,11.439921121657449,-0.028919343022985728,1.346348807444717,-0.42323378710521414
1.9824273640915746,11.199497077262716,-0.028274937467891906,1.3250294636078555,-0.40975668473517163
1.977394618046566,10.962880142129563,-0.027644463032205052,1.3040475934271882,-0.3968059614310487
1.9724741253097424,10.730010525954246,-0.027027678488055856,1.2833925862985724,-0.3843553919048335
1.9676634443178511,10.500830311074637,-0.02642433253296006,1.263054245697082,-0.3723803011275776
1.962960179455334,10.275283379785957,-0.025834165939452022,1.2430227686215853,-0.360857457872791
1.9583619823115375,10.05331534524786,-0.025256913436065575,1.2232887262461596,-0.3497649765526655
1.953866552620715,9.834873485773066,-0.024692305350847696,1.2038430456960127,-0.3390822266258059
1.949471638925095,9.619906682301949,-0.024140069044932454,1.184676992871959,-0.3287897489243153
1.945175038996607,9.408365358880673,-0.02359993016048962,1.1657821562533108,-0.31886917831001227
1.9409746000487544,9.20020142597258,-0.023071613704537506,1.1471504316143706,-0.3093031721250723
1.93686821876646,8.995368226443773,-0.022554844987624105,1.1287740075945731,-0.3000753439522013
1.9328538411784966,8.79382048407425,-0.02204935043419163,1.1106453520667936,-0.291170202244202
1.9289294623942634,8.59551425445552,-0.021554858279510397,1.0927571992524205,-0.28257309342303677
1.9250931262241344,8.4004068781446,-0.021071099166366406,1.0751025375355472,-0.27427014908472114
1.9213429247003748,8.208456935952515,-0.0205978066531849,1.0576745979320794,-0.2662482369790247
1.9176769975136332,8.019624206253084,-0.020134717643945404,1.0404668431727242,-0.25849491546240777
1.9140935313782617,7.833869624204983,-0.019681572749070984,1.0234729573617392,-0.25099839114920636
1.910590759338156,7.6511552427865865,-0.019238116585436876,1.006686836175998,-0.24374747951011094
1.9071669600234213,7.471444195549321,-0.01880409802272563,0.9901025775714053,-0.23673156818871918
1.9038241252270547,7.294920837280674,-0.01833851082579427,0.9712680698580058,-0.27844655233055926
1.900561170793728,7.121778646454427,-0.01791653843338992,0.9525340504336456,-0.32124408853231506
1.8973703778875615,6.951999757669057,-0.01753671607957082,0.9338980471815642,-0.36502643523939765
1.8942442922410712,6.785566741957076,-0.017197568881432816,0.9153576829515496,-0.4096970606997177
1.8911757257562516,6.622462589890343,-0.016897614283228356,0.8969106733454836,-0.4551604294597066
1.8881577576926292,6.462670695053735,-0.016635364201466978,0.8785548248390601,-0.5013217889706547
1.8851837354946608,6.306174837826404,-0.016409326887069992,0.8602880332423728,-0.5480869553477673
1.882247275308184,6.152959169409154,-0.016218008518226995,0.8421082825048654,-0.595362097292113
1.8793422622333755,6.0030081960351325,-0.016059914535200955,0.824013643873144,-0.6430535171448873
1.876462850359874,5.856306763299344,-0.015933550725927635,0.806002275413401,-0.691067427993494
1.873603462628346,5.7128400405398985,-0.015837424068828265,0.7880724219137525,-0.7393097256890971
1.8707587905618417,5.572593505200945,-0.01577004333677437,0.770222415185714,-0.7876857545646617
1.8679237939098097,5.435552927103277,-0.01572991946358149,0.7524506747883829,-0.8361000655600588
1.8650937002476315,5.301704352543986,-0.015715565671732153,0.7347557092037608,-0.8844561653654646
1.8622640045750272,5.171034088140907,-0.015725497357203626,0.7171361174971129,-0.9326562550847446
1.859430468957695,5.043528684330948,-0.015758231724264358,0.6995905915024373,-0.980600956795397
1.8565891222581237,4.9191749184235185,-0.015812287159862475,0.6821179185801232,-1.028189026239388
1.853736260003702,4.797959777101138,-0.01588618233371324,0.6647169850018669,-1.0753170497181976
1.8508684444430965,4.679870438248535,-0.015978435006347252,0.6473867800270396,-1.1218791230838463
1.847982504845442,4.564894251979037,-0.016087560523148296,0.6301264007451662,-1.1677665105137767
1.8450755381012636,4.4530187207125635,-0.016212069967722193,0.6129350577712015,-1.2128672805294485
1.8421449096893237,4.344231478142685,-0.016350467942720194,0.5958120818941277,-1.2570659164646976
1.8391882550798424,4.238520266910633,-0.016501249940406484,0.5787569317953553,-1.300242898308976
1.8362034816519217,4.1358729147815865,-0.016662899258711266,0.5617692029718161,-1.3422742525417524
1.8331887712116355,4.036277309092334,-0.0168338834111368,0.5448486380198858,-1.3830310662377965
1.8301425832072833,3.9397213692090745,-0.01701264997055504,0.5279951384607862,-1.4223789613605065
1.827063658749958,3.8461930166991287,-0.017197621777503634,0.5112087783163751,-1.460177524775938
1.8239510255610234,3.755680142879747,-0.017387191432879343,0.49448981967674305,-1.4962796891213892
1.8208040039836175,3.668170573360392,-0.017579714982741374,0.4778387305383175,-1.530531059262227
1.817622214213158,3.5836520291409073,-0.017773504689030085,0.4612562052337464,-1.5627691786899212
1.8144055849223775,3.502112083765791,-0.01796682076408658,0.4447431878231001,-1.5928227298852617
1.811154363480039,3.4235381159633995,-0.018157861928563692,0.42830089887015105,-1.6205106624426993
1.8078691279896613,3.3479172571172064,-0.018344754631188745,0.41193086608754803,-1.6456412426983975
1.80455080140587,3.2752363328233365,-0.018525540744269525,0.3956349593998793,-1.6680110188356585
1.801200668022085,3.20548179768355,-0.018698163520008994,0.37941543104217385,-1.6874036961189447
1.7978203926650227,3.138639662365563,-0.018860451558460927,0.36327496137989246,-1.703588918270495
1.794412042980063,3.0746954118334813,-0.019010100496646875,0.34721671119879494,-1.71632095340233
1.7909781152483935,3.013633913512294,-0.019144652077459686,0.3312443812588523,-1.7253372868665582
1.7875215642440838,2.9554393140063304,-0.019261470192644462,0.3153622799185299,-1.7303571296454843
1.7840458377198183,2.900094922850851,-0.019357713410305556,0.2995753995867804,-1.731079860583495
1.780554916208303,2.847583081653479,-0.019430303384311322,0.2838895026062564,-1.7271834355042668
1.7770533589490793,2.7978850169029634,-0.01947588838483869,0.2683112168438979,-1.7183228184751524
1.7735463569080359,2.7509806747278667,-0.019490800960089375,0.2528481406571775,-1.704128523736871
1.7700397940660162,2.7068485360421697,-0.019471008395685913,0.23750895585056908,-1.6842054063565564
1.7665403184406792,2.665465410922046,-0.01941205410805714,0.2223035454841547,-1.6581319131898504
1.7630554247167076,2.626806211877909,-0.019308987269405498,0.2072431105618229,-1.6254601144938214
1.7595935509676925,2.590843707164648,-0.019156276608540034,0.19234027514107666,-1.5857169967151403
1.7561641928826153,2.557548257781736,-0.018947702114538226,0.17760916244681857,-1.5384077314054696
1.7527780403696445,2.5268875459014204,-0.018676214696250023,0.16306541400112332,-1.4830219747227187
1.7494471437523627,2.498826308906665,-0.018333747717992753,0.14872610816282736,-1.419044734964012
1.7461851205924943,2.4733261030631546,-0.017910954058321323,0.13460951232063292,-1.3459740115627006
1.7430074204648425,2.450345135323623,-0.017396825137813265,0.12073457367417481,-1.2633482761621828
1.7399316754287768,2.4298382219138155,-0.016778119707358687,0.10712001976812176,-1.1707878709898802
1.736978181193911,2.4117569579078406,-0.0160384829022641,0.0937829136316016,-1.0680552527058869
1.7341705824338813,2.3960502085943034,-0.01515705887584092,0.08073652318549071,-0.955138896808895
1.7315368824517727,2.382665046603286,-0.014106274258699616,0.06798749893693382,-0.8323627347138446
1.729110974980279,2.371548222964954,-0.012848253202343517,0.05553276371118765,-0.7005137132241458
1.726935032697488,2.3626481027063733,-0.011328883273112735,0.04335746138415611,-0.5609596554939185
1.7250633737980556,2.3559165867789282,-0.009467326720580059,0.03143716003188106,-0.4156962052606852
1.7235692423699855,2.3513096332633054,-0.0071341335913104025,0.019751212363928877,-0.26722706005274416
1.722559308759224,2.348782571131636,-0.0040873509727094165,0.008327255765711222,-0.11817937810912815
