x,y,v_x,v_y,omega
2.375,32.48,0.0,2.717948717948718,-4.326530612244898
2.37430876945395,31.995687631448863,-0.007680339400555318,2.6632998215083106,-4.10048854676494
2.3723204313368655,31.521051439992373,-0.0144123063448264,2.61043563911936,-3.8917300047746703
2.369195762383117,31.055778901087656,-0.02030623758571337,2.559259237599719,-3.698511961081281
2.3650769343692,30.59957427605805,-0.025458518124478368,2.5096810405070062,-3.5193014228006407
2.360089849580391,30.152157355750624,-0.029953535084511845,2.461618074019984,-3.3527463951643472
2.3543461518812294,29.713262330900143,-0.03386532823950137,2.4149933132075523,-3.1976513630028496
2.347944963297398,29.282636772616357,-0.03725898935862713,2.3697351121678545,-3.052956506559634
2.3409743875206632,28.860040709097472,-0.04019185260509424,2.3257767047086495,-2.9177200196026476
2.3335128148515496,28.445245786847426,-0.04271451038505521,2.2830557647363046,-2.7911030157792385
2.3256300574641116,28.03803450644716,-0.04487168280870084,2.2415140174888637,-2.672356602988836
2.3173883392573376,27.638199524385158,-0.04670296393323265,2.2010968943111626,-2.56081078061733
2.3088431607490585,27.245543013654462,-0.04824346393653252,2.1617532249188107,-2.4558648748756746
2.3000440563145443,26.85987607682254,-0.0495243631136279,2.1234349621025186,-2.356979276334364
2.2910352584500155,26.481018206115934,-0.050573390936690346,2.086096934637573,-2.2636682834470356
2.2818562815531704,26.108796785764238,-0.05141524125047687,2.0496966248257213,-2.175493888271739
2.2725424358802444,25.743046632442365,-0.05207193289314598,2.0141939676395064,-2.092060367178825
2.263125280799263,25.383609570155038,-0.052563123562205515,1.979551168886358,-2.013009561218892
2.2536330251611676,25.030334036339035,-0.0529063835277411,1.9457325401803531,-1.9380167489116664
2.244090881513201,24.68307471632916,-0.053117434782998796,1.912704348818276,-1.8667870292201703
2.234521379948684,24.341692203653153,-0.05321036037830141,1.8804346809151107,-1.7990521449628911
2.224944646596614,24.006052683897348,-0.053197787978031964,1.848893316371608,-1.7345676873455689
2.2153786510806963,23.676027640125163,-0.05309105108771951,1.8180516144304701,-1.6731106310305517
2.2058394267018526,23.35149357804037,-0.05290033089943147,1.7878824087338867,-1.614477156501951
2.1963412666054607,23.032331769270762,-0.05263478128270312,1.7583599109283856,-1.558480722669758
2.1868968987717334,22.71842801130927,-0.05230263909204556,1.7294596219770992,-1.504950357881765
2.1775176423040534,22.40967240279194,-0.05191132165995265,1.7011582504376928,-1.4537291419389315
2.1682135471767863,22.10595913291814,-0.05146751308746113,1.6734336370489449,-1.404672855469353
2.158993519333626,21.807186283929923,-0.05097724072543115,1.6462646850423912,-1.3576487762165552
2.1498654327935864,21.51325564566677,-0.05044594305278599,1.6196312956592802,-1.3125346045289563
2.140836230219018,21.224072541300643,-0.04987852999797748,1.593514308408781,-1.2692175026731232
2.131912013224051,20.93954566343516,-0.049279436612765314,1.5678954456521186,-1.2275932345954996
2.1230981235488438,20.659586919823866,-0.04865267088953531,1.5427572611400826,-1.1875653944769158
2.114399216091712,20.384111288026048,-0.04800185641192482,1.5180830921690178,-1.1490447139042652
2.1058193246749464,20.11303667837601,-0.04733027044102872,1.4938570150536286,-1.1119484387601624
2.0973654518708496,19.846285798985924,-0.04660164960449483,1.4700416448362157,-1.0745394105213564
2.089043212652296,19.58378393555898,-0.045867675046097685,1.4466457265742634,-1.0387121591758028
2.0808534059481127,19.32545684758422,-0.045130177222606885,1.423655250923077,-1.0043820433385005
2.0727965193151476,19.0712327628206,-0.04439078536589634,1.4010568020060383,-0.9714698046955201
2.0648727633516915,18.821042273340527,-0.0436509475613915,1.3788375255503058,-0.9399011708390985
2.057082102681117,18.574818237125143,-0.042911948778328955,1.3569850990650525,-0.9096064913350835
2.049424283854607,18.33249568485748,-0.042174927071778556,1.3354877039089907,-0.880520403918087
2.0418988604845305,18.09401173158603,-0.04144088815129217,1.3143339991071346,-0.8525815280295459
2.034505215886904,17.859305492955407,-0.04071071848900175,1.2935130967886532,-0.8257321831977584
2.0272425834820402,17.62831800572287,-0.03998519712059867,1.273014539128432,-0.7999181300112198
2.020110065176387,17.40099215229969,-0.039265006275548055,1.252828276684692,-0.775088331661063
2.0131066479253827,17.177272589075024,-0.03855074095783313,1.2329446480338442,-0.7511947342284139
2.0062312186565068,16.95710567829692,-0.037842917585231645,1.2133543606117592,-0.7281920640708969
1.9994825777133318,16.74043942330085,-0.03714198178337946,1.1940484726779077,-0.7060376408218944
1.992859450964984,16.527223406890545,-0.03644831542048493,1.1750183763254367,-0.684691204658681
1.9863605007107985,16.31740873268929,-0.035762242959355255,1.1562557814662748,-0.6641147566231473
1.979984335496885,16.110947969292,-0.03508403719523907,1.1377527007258488,-0.6442724108931915
1.9737295189496458,15.907795097059843,-0.03441392444075132,1.1195014351870016,-0.6251302580054844
1.9675945777208335,15.707905457409556,-0.03375208921271825,1.1014945609272857,-0.606656238122493
1.961578008629383,15.511235704459281,-0.03309867847006533,1.0837249162979874,-0.5888200235195522
1.9556782850768664,15.317743758901727,-0.03245380544678597,1.066185589897072,-0.5715929095423944
1.9498938628059006,15.127388763983731,-0.03181755311949978,1.048869909191755,-0.5549477133527996
1.9442231850640892,14.940131043479006,-0.031189977345072423,1.0317714297496194,-0.5388586798406818
1.9386646872300175,14.755932061547927,-0.030571109700167354,1.0148839250401627,-0.5233013941357024
1.933216800952378,14.574754384384889,-0.02996096005138389,0.9982013767713733,-0.5082527002009981
1.9278824722020351,14.396783416128073,-0.02930935939686958,0.9792538260821447,-0.54254783024814
1.9226615459814662,14.222213537892994,-0.02870093194278478,0.9604114876409559,-0.5781208121899705
1.917546371536451,14.051026048464635,-0.028134339668496742,0.9416717282297021,-0.6148662762235854
1.912529541088018,13.883202711189067,-0.02760822086964518,0.9230320192765937,-0.6526804006486857
1.90760389379265,13.71872573537906,-0.027121193523332695,0.9044899341679524,-0.6914606831913173
1.9027625191289106,13.557577758170385,-0.026671858295995828,0.886043145928434,-0.7311057136701207
1.8979987597729409,13.399741826762533,-0.026258801214779144,0.8676894252699282,-0.7715149470150717
1.893306214021755,13.245201380977136,-0.02588059602061897,0.8494266390122777,-0.8125884756262611
1.8886787378202174,13.09394023606665,-0.025535806218686792,0.8312527488820176,-0.8542268000296864
1.8841104464449967,12.945942565704392,-0.025222986839321157,0.8131658106986108,-0.896330596747827
1.8795957158966519,12.801192885085008,-0.0249406859200668,0.7951639739611982,-0.938800482254375
1.8751291840493236,12.659676034061754,-0.024687445716915647,0.7772454818527444,-0.9815367718242375
1.870705751606276,12.521377160243564,-0.024461803650279328,0.7594086716827089,-1.0244392320210505
1.8663205829087777,12.386281701970653,-0.02426229298858887,0.7416519757940736,-1.0674068254840936
1.8619691066455333,12.254375371082265,-0.02408744326968353,0.7239739229658032,-1.1103374465837277
1.8576470165101062,12.12564413538405,-0.023935780457284606,0.7063731403476855,-1.1531276464082498
1.8533502718545372,12.000074200715357,-0.023805826826815108,0.6888483559711185,-1.195672345424263
1.8490750983886812,11.877651992508135,-0.023696100571583074,0.6713984018868884,-1.2378645320161377
1.8448179889767222,11.758364136719262,-0.023605115116851025,0.6540222179894719,-1.2795949449567117
1.840575704584909,11.642197440006473,-0.023531378125517716,0.6367188565970554,-1.3207517376899196
1.8363452754378637,11.529138869004665,-0.0234733901749866,0.6194874878674784,-1.361220122115549
1.8321240024448944,11.419175528543732,-0.023429643080226756,0.6023274061428985,-1.4008819893560756
1.827909458962706,11.312294638631137,-0.023398617832977465,0.5852380373303708,-1.4396155047552401
1.8236994929668096,11.20848351000162,-0.02337878212142836,0.5682189474420195,-1.4772946741081852
1.819492229710922,11.10772951801248,-0.023368587388434073,0.5512698524373348,-1.513788877855123
1.8152860749618265,11.010020074635268,-0.023366465379292035,0.5343906295317051,-1.5489623696880153
1.8110797189066918,10.915342598263024,-0.023370824122206094,0.5175813301599099,-1.5826737357284055
1.8068721408408859,10.823684481015611,-0.023380043275636656,0.50084219481133,-1.6147753101439122
1.8026626147570814,10.735033053183905,-0.02339246876663486,0.48417366998539646,-1.6451125427958564
1.7984507159711347,10.649375544405576,-0.023406406632773248,0.4675764275515808,-1.673523314273725
1.7942363289371397,10.566699041110496,-0.02342011596717119,0.4510513868381736,-1.6998371935074277
1.7900196564234991,10.486990439711427,-0.023431800851056946,0.4345997398181339,-1.7238746331054173
1.785801230244223,10.41023639494508,-0.02343960114090156,0.41822297980794393,-1.7454460977184485
1.7815819237654247,10.336423262689266,-0.02344158195685458,0.4019229341455634,-1.7643511211808163
1.7773629664367356,10.265537036493395,-0.023435721695248653,0.3857018013641037,-1.7803772890864618
1.773145960631832,10.197563276962377,-0.02341989835923383,0.3695621934249733,-1.7932991450377118
1.7689329011225103,10.132487033029076,-0.023391873966561755,0.3535071836117006,-1.8028770213793337
1.7647261975580406,10.070292754040729,-0.023349276749770897,0.33754036070326404,-1.808855799261825
1.760528700377854,10.010964191474965,-0.02328958080785673,0.3216658900274521,-1.8109636090328884
1.7563437306536671,9.95448428900011,-0.023210082794219832,0.3058885819153912,-1.8089104912004907
1.7521751144410076,9.900835059516808,-0.023107875124218677,0.2902139678990608,-1.8023870519430205
1.7480272223259994,9.849997447786958,-0.022979815042539205,0.2746483846548148,-1.7910631673875617
1.7439050149907478,9.801951177308386,-0.022822488682478537,0.259199065107099,-1.774586820570074
1.7398140958048898,9.756674580286948,-0.022632168938166244,0.24387423513108572,-1.7525831983727518
1.7357607717059373,9.714144409979749,-0.022404765494638674,0.22868321272668504,-1.7246542389095822
1.7317521239958396,9.674335635467312,-0.02213576461755797,0.21363650407816476,-1.6903789115177643
1.7277960912189052,9.637221220258798,-0.021820155126158317,0.19874588712753047,-1.6493146439712776
1.723901567100138,9.602771888336573,-0.02145233508236664,0.18402446756384372,-1.6010005015659674
1.7200785177825304,9.57095588472745,-0.02102599066882875,0.16948668364861708,-1.544962992296697
1.7163381245849707,9.54173874303251,-0.020533933748500207,0.15514822407294374,-1.4807257476180893
1.7126929616645903,9.515083080313875,-0.019967876477948548,0.14102580613412763,-1.4078248341175488
1.709157223050007,9.490948451188526,-0.01931810812853456,0.12713673970310363,-1.3258320947088822
1.7057470217090516,9.469291308602159,-0.01857301788208088,0.11349817792318302,-1.2343896456207408
1.7024807965200128,9.450065138276784,-0.01771837310723843,0.10012593680320858,-1.1332592605726255
1.69937988418668,9.43322085417564,-0.016736208374236845,0.08703277543172724,-1.022390307215568
1.696469346903033,9.418707553849494,-0.015603094777397707,0.07422611708100371,-0.9020079538455321
1.693779200714622,9.40647371216751,-0.014287418427167808,0.06170545716326851,-0.7727173001801926
1.6913462803276862,9.396468793320036,-0.012745030316564892,0.04946030780868911,-0.635605764610514
1.6892171507976959,9.388645003189978,-0.01091196446110567,0.03747069363638317,-0.4923035804106536
1.687452911596869,9.382958348583166,-0.008690693325855963,0.025714357550437675,-0.3449360032697871
1.6861382356495271,9.379366919719633,-0.005916817200164839,0.014190407599932644,-0.19588995273437967
1.6854047700966897,9.377819558490273,-0.0022328000535846446,0.0030024949485013084,-0.04735887277014708
