x,y,v_x,v_y,omega
2.375,32.48,0.0,2.6153846153846154,-7.020408163265306
2.3736805473535076,31.96249849496878,-0.013194526464923759,2.559630434927559,-6.630213939287466
2.369893060155225,31.45594458599666,-0.024680345517900514,2.5059086547936276,-6.27206463709993
2.3639581669578797,30.959944681310937,-0.03466858645555414,2.4540903920636206,-5.9424815701476845
2.356157148068426,30.47412974837685,-0.04334160243898321,2.4040589372772336,-5.638441155035279
2.346737246980055,29.998153039673856,-0.05085740844472735,2.3557081497527133,-5.357305639049117
2.3359161722005264,29.531688112332432,-0.0573533393505569,2.3089411236615427,-5.096765900613045
2.323885929826771,29.07442709290131,-0.06294908438700145,2.2636690706496467,-4.854793938575205
2.31081609951516,28.62607914813242,-0.06774921872910553,2.219810377039262,-4.629603194455861
2.296856644987519,28.186369130142612,-0.0718453265473068,2.177289802858814,-4.419615250146555
2.2821403333460974,27.755036370162713,-0.07531778986690685,2.136037796940171,-4.223431747046422
2.266784824124555,27.33183359970156,-0.07823730234851582,2.095989907671366,-4.039810606036558
2.2508944783538856,26.91652598162287,-0.08066615535817896,2.057086273115561,-3.867645808789784
2.2345619293620933,26.508890236570544,-0.08265933455974227,2.0192711774076706,-3.705950142564768
2.217869450096865,26.10871385254557,-0.08426545809254196,1.9824926628420947,-3.5538404222719375
2.2008901461150123,25.715794367357965,-0.08552758172598515,1.9467021890339276,-3.4105247922030455
2.1836889987561565,25.32993871524504,-0.0864838918625727,1.9118543320953623,-3.2752917806003574
2.1663237792065244,24.95096263023434,-0.08716830363374947,1.8779065180116123,-3.1475008371346798
2.148845851002778,24.578690099893496,-0.0876109784037142,1.8448187853968387,-3.0265741293504353
2.1313008759007332,24.21295286399243,-0.08783877261673309,1.812553573613804,-2.911989411508557
2.113729435841072,23.853589953341817,-0.08787562797988012,1.7810755328923074,-2.8032738097798067
2.0961675819053274,23.50044726469134,-0.08774291137756582,1.7503513536124986,-2.699998392784443
2.078647319607747,23.153377168094643,-0.08745971159823898,1.7203496123544721,-2.601773417112501
2.0611970385615703,22.812238143591777,-0.08704309886352729,1.6910406326741774,-2.508244154537271
2.043841893450878,22.476894444438088,-0.08650835224339405,1.662396358862684,-2.419087221822011
2.0266041422981482,22.147215784432525,-0.0858691592839067,1.6343902411929636,-2.3340073458491317
2.009503447215759,21.82307704717673,-0.08513779153998152,1.606997131364974,-2.2527345066983493
1.9925571421445292,21.504358015336898,-0.08432525917231878,1.5801931870333767,-2.1750214096085267
1.9757804714954808,21.190943118188695,-0.08344144731816586,1.5539557844486365,-2.1006412437540103
1.9591868031071313,20.8827211959072,-0.08249523656532784,1.528263438366305,-2.0293856916751243
1.9427878184969591,20.579585279222087,-0.08149460953639417,1.503095728484853,-1.9610631582072229
1.9265936830117227,20.28143238319734,-0.08044674531597074,1.4784332317625861,-1.8954971920032067
1.9106296370657603,19.988169958568825,-0.07919371414365298,1.454191014522591,-1.8275944716213894
1.8949175058394077,19.699708686721245,-0.07792759811987247,1.4304217039532001,-1.7627872793948902
1.8794595128568004,19.41595568913344,-0.07665233170620075,1.407108271924846,-1.7008977512648547
1.8642571397383152,19.136821413614186,-0.07537139947865173,1.384234483267684,-1.6417601881765023
1.8493112114575974,18.86221948041682,-0.07408788332852662,1.3617848487059974,-1.5852200908454632
1.8346219726658366,18.59206653742865,-0.07280450458908046,1.339744581175716,-1.5311332814624552
1.820189156040608,18.326282123787422,-0.07152366166320541,1.31809955523653,-1.479365103581289
1.8060120435084965,18.0647885413319,-0.07024746365791004,1.296836269318715,-1.4297896924095783
1.792089521095615,17.80751073334301,-0.06897776047090742,1.2759418105701763,-1.382289308577107
1.778420128076337,17.554376170076814,-0.06771616972187128,1.2554038220917567,-1.3367537292093647
1.765002101016667,17.30531474063075,-0.06646410087482951,1.2352104723689152,-1.29307969079677
1.7518334132434001,17.06025865072128,-0.06522277685783816,1.2153504267257704,-1.2511703789351574
1.7389118102125414,16.819142325984355,-0.06399325345074812,1.1958128206434815,-1.2109349605301587
1.7262348411993784,16.581902320440083,-0.0627764366808823,1.1765872347992419,-1.1722881545157726
1.7137998876873688,16.34847722979066,-0.06157309843921506,1.157663671694981,-1.1351498375430673
1.701604188792877,16.118807609245522,-0.06038389050570194,1.139032533756388,-1.0994446814550547
1.6896448640271744,15.892835895590562,-0.05920935715132453,1.1206846027932298,-1.065101819683839
1.677918933665459,15.67050633323911,-0.05804994646583015,1.1026110207212692,-1.0320545399910277
1.6664233369645016,15.451764904021534,-0.05690602054374419,1.0848032714545126,-1.0002400012262809
1.6551549484454529,15.23655926048767,-0.055777864646742774,1.0672531638841303,-0.969598972005448
1.6441105924360127,15.02483866251253,-0.05466569544765787,1.0499528158672777,-0.9400755894121573
1.633287056046243,14.816553917010271,-0.053569668450042025,1.0328946391552951,-0.9116171360078099
1.622681100734522,14.611657320575098,-0.05248988466716563,1.0160713251964233,-0.8841738335971042
1.6122894726042651,14.410102604880123,-0.051426396635401384,0.9994758317533265,-0.8576986523416285
1.602108911557822,14.21184488467675,-0.05037921382903257,0.9831013702803937,-0.8321471339445897
1.5921453833103063,14.017034260048199,-0.04925606864612342,0.9650048760051124,-0.8460239240565539
1.5824018594273452,13.825831249824514,-0.048179170183486414,0.9470252262317231,-0.861832351042739
1.5728691920465043,13.638212806939723,-0.04714750362492229,0.9291592026161767,-0.8794493100645381
1.563538442102102,13.454156514616887,-0.04615999581910215,0.9114037206121707,-0.8987547298068062
1.5544008903647213,13.273640560115748,-0.045215521554706116,0.8937558243992111,-0.9196312958711691
1.5454480472812655,13.096643709447783,-0.04431290927985224,0.8762126822804568,-0.9419641817671874
1.5366716617227716,12.923145282966221,-0.04345094630508625,0.8587715825351517,-0.9656407863564677
1.528063728739696,12.753125131741353,-0.04262838352566975,0.8414299297135326,-0.9905504766284384
1.519616496417572,12.586563614633484,-0.041843939695570743,0.8241852413651736,-1.0165843347019934
1.5113224719197749,12.423441575977481,-0.04109630528239941,0.8070351451948359,-1.0436349079545926
1.5031744267985832,12.26374032379369,-0.04038414592951907,0.789977376643055,-1.0715959611796593
1.4951654016507638,12.107441608440187,-0.039706105548672606,0.7730097768919773,-1.1003622296641085
1.4872887101895291,11.954527601620953,-0.03906080906367413,0.7561302913003745,-1.1298291720603897
1.4795379428008615,11.804980875663379,-0.03844686482300072,0.739336968275381,-1.1598927219012642
1.471906969648916,11.658784382976606,-0.03786286669645513,0.7226279585923558,-1.1904490365703295
1.464389943392427,11.515921435599527,-0.037307395868433194,0.7060015151784281,-1.221394242496647
1.4569813015718145,11.376375684743703,-0.03677902233769372,0.6894559933798033,-1.2526241752872653
1.4496757687249582,11.240131100231935,-0.03627630613086787,0.6729898517378623,-1.2840341134464552
1.4424683582884483,11.107171949727693,-0.03579779823423103,0.6566016533045419,-1.315518504254548
1.4353543743404789,10.977482777643882,-0.035342041245464334,0.6402900675335542,-1.3469706802918464
1.42832941324151,10.851048383611452,-0.03490756974422258,0.624053872790756,-1.3782825649936568
1.4213893652293612,10.72785380037892,-0.0344929103772664,0.6078919595345585,-1.4093443655106384
1.4145304160265675,10.607884271002888,-0.034096581650671684,0.591803334225775,-1.4400442510241167
1.4077490485196846,10.49112522517672,-0.033717093418156326,0.5757871240358945,-1.470268014528761
1.4010420445727871,10.37756225452977,-0.0333529460508178,0.5598425824335959,-1.499898715945514
1.394406487040755,10.267181086712256,-0.03300262926950254,0.5439690957415464,-1.5288163042669345
1.3878397620521477,10.159967558061165,-0.03266462061657114,0.528166190769351,-1.556897216267171
1.381339561636599,10.055907584619817,-0.03233738353891477,0.5124335436441261,-1.5840139491329874
1.3749038867778438,9.954987131257628,-0.032019365048639295,0.49677098997776,-1.6100346041959124
1.3685310509808026,9.857192178606883,-0.0317089929217731,0.4811785365296817,-1.634822398776773
1.3622196844497692,9.76250868749931,-0.03140467238856167,0.46565637454604625,-1.6582351430046074
1.3559687389847879,9.670922560546629,-0.031104782261251317,0.45020489498076316,-1.680124678359799
1.349777493715006,9.582419600465478,-0.030807670436567482,0.43482470583072963,-1.7003362746416117
1.3436455618013352,9.496985464697726,-0.030511648700141274,0.4195166518468013,-1.7187079821095146
1.3375728982564565,9.414605615821749,-0.0302149867486447,0.40428183691295433,-1.7350699357476025
1.3315598090483949,9.335265267188671,-0.029915905331970784,0.38912164941783234,-1.749243609025726
1.3256069616750081,9.258949323149508,-0.029612568401897812,0.37403779097378576,-1.7610410152840092
1.3197153974213647,9.185642313165541,-0.02930307413453609,0.35903230886588405,-1.7702638560970276
1.3138865455408761,9.115328319015664,-0.028985444670348852,0.34410763263288086,-1.7767026178891887
1.3081222396352408,9.047990894233678,-0.028657614386005677,0.32926661518696504,-1.7801356209698358
1.3024247365492134,8.983612974829086,-0.028317416474268105,0.31451257885894807,-1.780328029454616
1.2967967381460148,8.922176780273738,-0.027962567557719007,0.2998493666945343,-1.7770308368331555
1.2912414163908859,8.863663703684107,-0.027590649993570995,0.2852813992017537,-1.7699798510752618
1.2857624422484362,8.80805419011153,-0.027199091430926334,0.27081373652402474,-1.7588947163350361
1.2803640190008962,8.755327601895623,-0.026785141044473135,0.25645214563504326,-1.7434780272108013
1.2750509207297216,8.705462070177795,-0.02634584166727301,0.24220317154323198,-1.723414618549286
1.269828536888539,8.658434331969307,-0.02587799674455437,0.2280742105416646,-1.6983711523283662
1.2647029241566898,8.614219552707056,-0.025378130573936116,0.21407358208083876,-1.6679961779458743
1.2596808671397393,8.572791135134512,-0.024842439595568703,0.20021059364459365,-1.6319209198147628
1.2547699500396474,8.53412051679473,-0.024266731405350093,0.18649558975321667,-1.58976115533585
1.2499786422532968,8.498176960671689,-0.02364634645815713,0.17293997147717374,-1.54112069854255
1.2453164021329444,8.464927346914273,-0.022976054745366847,0.15955616609699044,-1.4855972138369273
1.2407938051079124,8.434335978580457,-0.022249915504952127,0.14635751724115836,-1.4227913646153785
1.2364227054200543,8.406364421493027,-0.021461081373629055,0.1333580536331363,-1.3523206621933759
1.2322164454845674,8.380971408136148,-0.02060151798123966,0.12057207993564942,-1.2738398102209767
1.2281901343027672,8.358112848275354,-0.019661593836762914,0.10801351867228702,-1.1870697750096102
1.2243610278581503,8.33774200388353,-0.01862947060940745,0.09569492524593873,-1.0918380704136081
1.2207490621513837,8.319809899765914,-0.017490186458259244,0.08362611593022005,-0.9881324066654651
1.2173776166765793,8.304266045524315,-0.01622426828978432,0.0718124264857593,-0.8761680807738312
1.2142746280418641,8.291059520960594,-0.014805618057367336,0.06025281915144118,-0.7564648833759968
1.211474241525133,8.280140391816293,-0.013198247109944822,0.04893847229158117,-0.6299201325587029
1.209019315986633,8.271461220458615,-0.011351008275056449,0.03785324128519995,-0.49785008046961166
1.2069654038810729,8.264978026520573,-0.009188112780543458,0.026978698095227155,-0.361956182669168
1.205387807134538,8.260649195744694,-0.006587854684804541,0.0163096096635744,-0.22416683233076745
1.2043976764354571,8.25842809683748,-0.0033134523060056446,0.005901379408547685,-0.08632548917990596
