x,y,v_x,v_y,omega
2.375,32.48,0.0,3.948717948717949,-7.510204081632653
2.371993503622707,31.586550120065024,-0.026143446759069263,3.8204114420209363,-6.818599524477895
2.36359657590989,30.72170993934274,-0.04687331596108199,3.699937955564155,-6.2239753297761045
2.3509293154371376,29.883765511050182,-0.06327677510632891,3.586535333936356,-5.709032864003069
2.334888958119067,29.071166031357727,-0.0762045928768931,3.47954709817192,-5.260089743578759
2.3161977494205823,28.282501820241663,-0.08632765667514568,3.378402563706894,-4.866223051301933
2.2954395287085347,27.516486324436066,-0.09417861038613956,3.282601747646154,-4.518638706526932
2.2730879523707648,26.771941200176457,-0.10018292298577015,3.1917036806982484,-4.210201173858744
2.2495284486072995,26.047783799560456,-0.10468232713131932,3.1053171942235167,-3.935078652178089
2.225075423612819,25.343016564658676,-0.10795267282068842,3.0230935440527986,-3.688472590746348
2.1999858371916536,24.656717958415506,-0.11021764388509636,2.944720423279111,-3.466409540365011
2.174469979731192,23.98803464973057,-0.11165937751022012,2.869917043546447,-3.2655795898597346
2.148700075780092,23.33617473384108,-0.11242674380369722,2.798430051144762,-3.083209963650593
2.1228171883465956,22.70040181594166,-0.11264184257452982,2.730030104502358,-2.9169653983321786
2.096936786326976,22.080029820959645,-0.11240513150911786,2.664508982297771,-2.764869084296972
2.071153254116981,21.47441841895638,-0.11179949640388237,2.601677122078465,-2.625239522104483
2.0455435597193805,20.882968976073116,-0.11089349835786308,2.541361511689037,-2.4966397832361094
2.0201702500690053,20.30512095689756,-0.10974397686278833,2.483403872446244,-2.377836504094987
1.995083905936767,19.740348716731553,-0.10839814602623912,2.4276590855190188,-2.2677665655250916
1.9703251608114545,19.188158632306916,-0.10689528984604571,2.373993822521317,-2.165509877091611
1.9459263665211417,18.648086527616556,-0.10526813876537029,2.322285348699192,-2.0702670378548604
1.9219129715176133,18.1196953581382,-0.10354399170009368,2.2724204728517456,-1.9813409133701394
1.8983046645724753,17.60257312215322,-0.10174563390980261,2.224294622669796,-1.8981213737885299
1.8751163262730337,17.09633097234955,-0.0998920904331681,2.1778110277969263,-1.8200725959632835
1.852358822519291,16.60060150463265,-0.09799924655589912,2.132879995828286,-1.746722454936875
1.8300396677248991,16.115037204197918,-0.09608036035185522,2.089418268821544,-1.677653625638712
1.8081635802441052,15.639309031554077,-0.09414648730722366,2.0473484498205408,-1.6124960904263153
1.7867329483993437,15.173105133420002,-0.0922068330820069,2.0065984904757794,-1.5509208070251084
1.7657482221509369,14.716129665317347,-0.0902690473389219,1.9671012321560204,-1.4926343380646816
1.745208242761386,14.268101714305324,-0.08833946909195428,1.9287939940354772,-1.4373742805063205
1.7251105206296486,13.828754311697626,-0.08642333205358976,1.8916182025531947,-1.3849053628952157
1.7054514697020218,13.397833526802085,-0.08452493688229597,1.8555190574080365,-1.335016102153721
1.6862266054244583,12.975097633761614,-0.08264779596608023,1.820445229900403,-1.2875159307961743
1.6674307120221108,12.560316344475229,-0.08079475535868094,1.7863485899811906,-1.2422327209504154
1.6490579839248076,12.153270101361208,-0.07896809766134656,1.7531839588363662,-1.1990106441638404
1.6311021453615755,11.75374942440795,-0.07716962897545504,1.7209088842354434,-1.1577083162378794
1.613556551490956,11.36155430755613,-0.07540075250819349,1.6894834362151716,-1.1181971847344039
1.5964142738909037,10.976493659980417,-0.07366253097052067,1.658870020964938,-1.0803601236941704
1.5796681727817137,10.5983847883004,-0.07195573954417553,1.6290332110351884,-1.0440902057891615
1.5633109579809688,10.227052916157117,-0.07028091089708559,1.599939590210766,-1.0092896268269471
1.5473352402773943,9.862330737950884,-0.06863837348182208,1.5715576115825651,-0.9758687614192679
1.5317335746497496,9.504058003854368,-0.0670282841498703,1.5438574675175618,-0.9437453318659196
1.516498496538551,9.152081133496985,-0.06545065594750939,1.5168109703727208,-0.9128436750070124
1.501622552195213,8.806252855967696,-0.06390538182064831,1.4903914429254617,-0.8830940940573385
1.4871231431387906,8.466434850156546,-0.062176436061285374,1.4645477380410576,-0.8480788311936494
1.4730156260643104,8.132494231094057,-0.0604976254559328,1.439283732067539,-0.8148477538277363
1.4592886040876896,7.804300300114903,-0.05886778303642144,1.4145765373164083,-0.7832869102183584
1.4459309540829335,7.481727488266515,-0.05728569526580544,1.3904044352782614,-0.753291009307188
1.4329318357368779,7.164655095995023,-0.05575011643902725,1.3667468018651496,-0.7247626588129145
1.4202806975593263,6.852967049370722,-0.054259780757072655,1.3435840383461721,-0.6976116792255962
1.4079672803441263,6.546551671601534,-0.05281341241857862,1.3208975074728626,-0.6717544852770017
1.3959816185034795,6.2453014686928725,-0.05140973402183078,1.2986694743415907,-0.6471135274912441
1.3843140396353784,5.949112928211299,-0.05004747352687386,1.276883051585132,-0.6236167873118238
1.3729551626308447,5.657886330198576,-0.04872536999080999,1.255522148525495,-0.6011973200759001
1.3618958945822042,5.371525569363243,-0.04744217825823842,1.2345714239556485,-0.5797928407808113
1.351127426714839,5.08993798774965,-0.04619667276232818,1.2140162422494916,-0.5593453481756441
1.34064122953168,4.813034217150271,-0.04498765056948805,1.1938426325277296,-0.5398007832239785
1.330429047331328,4.540728030586827,-0.043813933781398785,1.1740372506326402,-0.5211087184329939
1.3204828922364111,4.272936202240022,-0.042674371391791095,1.1545873436874088,-0.503222074937609
1.3107950378479984,4.009578375256822,-0.041567840681361795,1.1354807170360641,-0.48609686457367424
1.301358012624082,3.750576936909166,-0.04049324822225901,1.1167057033783367,-0.4696919544778028
1.292164593064889,3.4958569006186835,-0.03944953055333189,1.098251133930211,-0.4539688520186791
1.28320779677472,3.245345794399295,-0.03843565457857424,1.080106311455763,-0.4388915081003195
1.274480875458811,2.998973555303518,-0.03745061773367805,1.0622609850292462,-0.42442613708581706
1.2659773079041337,2.756672429489331,-0.036493447959168375,1.0447053263984545,-0.41054105177407413
1.2576907929848273,2.5183768775529067,-0.03556320351305959,1.027429907831312,-0.3972065120249272
1.2496152427259348,2.2840234847984924,-0.03465897265122277,1.0104256813375185,-0.3843945857725066
1.2417447754530935,2.0535508761405836,-0.033779873199572125,0.9936839591660356,-0.372079021294912
1.2340812014518614,1.8270015047408776,-0.03285990072418448,0.9763105747444627,-0.3781585584766559
1.2266246201220372,1.604433100721245,-0.03197993692645984,0.9590668515132079,-0.3866851139634699
1.2193658469676312,1.3858162925948712,-0.03113982963359335,0.9419488713248253,-0.39752484002249516
1.212295746471131,1.1711225912156529,-0.030339305118582557,0.9249528797988249,-0.41054838343121763
1.2054052587257906,0.9603243530279819,-0.02957797962350802,0.9080752783548225,-0.42563056244046765
1.1986854235280395,0.7533947450801755,-0.028855369922153682,0.8913126168434843,-0.44265005779244043
1.1921274021424424,0.5503077116679549,-0.02817090299608221,0.8746615867410483,-0.4614891164174986
1.1857224969353004,0.3510379424818879,-0.02752392489210812,0.8581190148769022,-0.4820332665021374
1.1794621690580163,0.15556084213931598,-0.026913708823406914,0.8416818576671983,-0.5041710426794096
1.1733380543476348,-0.03614749901295511,-0.026339462571213827,0.8253471958308183,-0.527793720142801
1.1673419775994422,-0.2241103329337264,-0.02580033523915734,0.8091122295672113,-0.5527950565253726
1.1614659653550536,-0.40835028086451075,-0.02529542340769976,0.7929742741787364,-0.5790710404182198
1.1557022573390017,-0.5888893593492313,-0.02482377673188257,0.7769307561231972,-0.6065196454261048
1.1500433166673556,-0.7657490053942055,-0.024384403021562254,0.7609792094852786,-0.635040588673585
1.1444818389433289,-0.9389501008637566,-0.02397627283953965,0.7451172728586356,-0.6645350926820597
1.1390107603471007,-1.1085129962053486,-0.023598323649400694,0.729342686633463,-0.6949056495367988
1.1336232648201507,-1.274457533597264,-0.023249463541467466,0.7136532906875507,-0.7260557862529874
1.1283127904382548,-1.436803069611777,-0.022928574561975876,0.6980470224821242,-0.7578898302308228
1.1230730350618743,-1.5955684974874558,-0.02263451566741993,0.682521915567253,-0.7903126736613468
1.1178979613479871,-1.750772269105802,-0.022366125322902393,0.66707609850531,-0.8232295357064715
1.1127818012034214,-1.9024324167697841,-0.02212222376027732,0.6517077942249668,-0.8565457212279705
1.1077190597564741,-2.050566574885245,-0.021901614908829997,0.6364153198225468,-0.8901663747803324
1.1027045189210178,-2.195192001650554,-0.02170308800818163,0.6211970868323403,-0.9239962285104973
1.0977332406254274,-2.336325600865443,-0.021525418909995223,0.6060516019927649,-0.9579393425226777
1.0928005697775143,-2.4739839439768403,-0.021367371071858692,0.5909774685411507,-0.9918988361676798
1.0879021370362605,-2.6081832924878725,-0.021227696243392005,0.5759733880765441,-1.0257766086022582
1.0830338614615411,-2.7389396208659704,-0.02110513484112362,0.5610381630373802,-1.059473046833864
1.0781919531142414,-2.8662686400979425,-0.02099841600496112,0.5461706998493359,-1.0928867193184741
1.0733729156812857,-2.9901858220535686,-0.020906257325089005,0.5313700128082887,-1.1259140530128062
1.0685735492031627,-3.1107064248355627,-0.020827364223805597,0.5166352287742854,-1.1584489915960647
1.063790952985634,-3.227845519312581,-0.020760428972095953,0.5019655927649769,-1.1903826323696083
1.059022528782554,-3.3416180170539604,-0.020704129315555386,0.4873604745513596,-1.2216028391151952
1.0542659843432325,-3.45203869991051,-0.020657126678546057,0.47281937637515903,-1.2519938279441434
1.049519337425654,-3.5591222515151557,-0.020618063909092696,0.4583419419261128,-1.2814357229023745
1.0447809203863205,-3.662883291011653,-0.020585562519893925,0.44392796673910323,-1.3098040778132343
1.0400493854686588,-3.7633364093591837,-0.020558219372817158,0.4295774101959178,-1.33696936054721
1.0353237109250857,-3.8604962086063637,-0.020534602745208994,0.4152904093447513,-1.3627963956151616
1.0306032081231837,-3.954377344581026,-0.020513247706112854,0.40106729478276415,-1.3871437607052017
1.0258875298043157,-4.044994573502628,-0.020492650718826083,0.38690860888335726,-1.409863132547099
1.0211766796837694,-4.132362803093621,-0.02047126337288246,0.3728151266904756,-1.4307985773284884
1.0164710236055732,-4.216497148845441,-0.02044748513317118,0.3587878798470927,-1.4497857808584558
1.0117713024930128,-4.297412996184811,-0.020419654976049577,0.3448281839735124,-1.4666512138561454
1.0070786473682105,-4.375126069387392,-0.02038604176136206,0.3309376699619575,-1.4812112282521295
1.00239459675175,-4.449652508199051,-0.020344833164381407,0.3171183197046194,-1.4932710813996455
0.9977211167972626,-4.521008953249215,-0.020294122961595516,0.3033725068185443,-1.5026238868512782
0.9930606245675606,-4.589212641474333,-0.020231896427117688,0.2897030429650933,-1.50904949322849
0.9884160149202526,-4.654281512908135,-0.020156013549473304,0.2761132303722827,-1.5123132972276696
0.9837906915445842,-4.716234330331588,-0.020064189717208813,0.262606921136002,-1.5121650037421817
0.979188602781595,-4.775090813395877,-0.01995397343921865,0.24918858377088063,-1.5083373565674532
0.9746142829727509,-4.830871788914038,-0.01982272055072969,0.235863377256607,-1.5005448788509868
0.9700729002275177,-4.883599359025524,-0.019667564190428366,0.22263723240847244,-1.488482685772817
0.9655703116929213,-4.933297088815806,-0.01948537958867154,0.2095169396809453,-1.4718254664339245
0.9611131276720053,-4.979990214631108,-0.01927274233233784,0.1965102413217034,-1.4502267827507873
0.9567087863121813,-5.023705873629019,-0.01902587818787154,0.18362592387755097,-1.423318907783965
0.9523656411324342,-5.064473353839347,-0.018740601636016308,0.17087390403834984,-1.390713535093551
0.9480930644851262,-5.102324361860923,-0.018412238775357515,0.15826529614929902,-1.3520038494969586
0.9439015713274872,-5.137293301825643,-0.01803552781280791,0.14581244267435378,-1.3067686784790866
0.9398029696982295,-5.169417553758834,-0.01760448635464976,0.13352887848380002,-1.2545797684731674
0.9358105475345659,-5.198737731058422,-0.017112228111989113,0.12142918499085971,-1.19501367987388
0.9319393107144589,-5.225297884398977,-0.016550700758507664,0.10952867014441478,-1.1276703888408826
0.9282062957611898,-5.249145601853179,-0.015910298835136852,0.097842785979104,-1.052201402542697
0.9246309945874238,-5.270331932066846,-0.01517927658891471,0.08638617240057336,-0.9683509019463703
0.9212359512870734,-5.2889110311675935,-0.014342839066306592,0.07517121108421466,-0.8760137099583983
0.9180476274917426,-5.304939413652214,-0.01338171567569894,0.06420602791245665,-0.7753127523358316
0.9150976916807438,-5.3184746962603455,-0.012269900072116131,0.05349208172347605,-0.6666941435618781
0.9124249856613633,-5.329573812426062,-0.010971021835540426,0.04302197189145177,-0.5510269334627387
0.9100786034410733,-5.338290936526839,-0.009432301819156046,0.032779107245764064,-0.42967402620684014
0.9081229504142869,-5.34467595088654,-0.007573376674638253,0.022742756751620248,-0.30447369801322555
0.9066470882826043,-5.348775608514174,-0.005260207079124242,0.012906440010418897,-0.17755414662727603
0.9057878488378635,-5.3506440914357185,-0.002211440266447838,0.003341237568233943,-0.050928618700871786
