x,y,v_x,v_y,omega
2.375,32.48,0.0,2.0,-2.612244897959184
2.37459426518991,32.06388777783839,-0.0038641410484751225,1.9629735443962988,-2.491764705254992
2.373422444764476,31.655442975024368,-0.007296053479468196,1.9269769585943455,-2.3792189940688147
2.371570625632645,31.25445440626302,-0.01034031920463599,1.8919617915137406,-2.2739098390118837
2.369116055144211,30.86072073453671,-0.013036542589974692,1.857882701117762,-2.1752130741058293
2.3661281218884835,30.47404984594503,-0.015419964607428885,1.8246971902315983,-2.082569346337379
2.3626692163058025,30.094258276995262,-0.017521993322865657,1.792365371194747,-1.9954763880959883
2.358795487363821,29.721170688699154,-0.0193706632674372,1.7608497554348432,-1.913482324330293
2.354557509132629,29.354619382586733,-0.02099103417248278,1.7301150646834547,-1.8361798608676543
2.3500008690697793,28.99444385438259,-0.02240553785465997,1.7001280610702887,-1.7632012253856317
2.345166688127411,28.640490381625945,-0.023634280644085733,1.6708573937549116,-1.6942137531059478
2.340092081362202,28.29261164197084,-0.024695307595997393,1.6422734601032198,-1.6289160262652203
2.3348105665187613,27.950666359291063,-0.025604833770105716,1.61434827970419,-1.5670344904858267
2.3293524270310635,27.614518975047073,-0.02637744706511409,1.5870553797623748,-1.5083204828676817
2.3237450350140936,27.28403934265878,-0.027026286429836906,1.5603696906023123,-1.4525476163810485
2.3180131390740226,26.959102442875622,-0.027563198713696998,1.5342674501896858,-1.3995094733097455
2.3121791211294034,26.639588118350474,-0.027998876949341375,1.5087261167164936,-1.3490175673537745
2.3062632258910587,26.325380825811322,-0.028342982463465047,1.4837242884182726,-1.3008995397776477
2.300292964465514,26.01637110787855,-0.02851665016077025,1.459225406179567,-1.2527546863897405
2.2942927334484513,25.712453603766868,-0.028628407144588034,1.4352270139316816,-1.206895685385557
2.2882748809742846,25.41352514402294,-0.028684473561763155,1.411710697915248,-1.1631862435940954
2.282250510891214,25.11948633413097,-0.02869047961033756,1.3886589201035269,-1.121499734956968
2.2762296005187825,24.83024137613606,-0.02865152393662677,1.3660549655622662,-1.0817184060976246
2.2702211067919533,24.545697900921947,-0.028572225842699403,1.343882893619745,-1.0437326559304794
2.264233062017353,24.265766810377098,-0.028456772010639484,1.3221274925216882,-1.0074403816020059
2.2582726603281027,23.99036212874814,-0.02830895836317371,1.3007742372779472,-0.9727463839418267
2.2523463358014535,23.71940086253813,-0.028132227604912286,1.279809250436383,-0.939561826376354
2.246459833096027,23.45280286836011,-0.0279297029229582,1.2592192655447711,-0.9078037419358713
2.240618271370913,23.190490728204075,-0.027704218268607493,1.2389915930841346,-0.8773945835810477
2.2348262021655363,22.93238963161915,-0.027458345592121413,1.2191140886770702,-0.8482618135978535
2.2290876618456577,22.67842726435183,-0.02719441935910175,1.199575123392648,-0.8203375282701731
2.2234062191558577,22.428533703017113,-0.02691455863899169,1.1803635559856012,-0.7935581144452484
2.2177850183613566,22.182641315411814,-0.026620687022927213,1.1614687069219896,-0.7678639349654197
2.2122268184110587,21.94068466610907,-0.026314550598953955,1.1428803340565254,-0.7431990402565104
2.2067340285085373,21.7026004270001,-0.02599773418696539,1.1245886098384545,-0.7195109036438139
2.2013087404375256,21.46832729247405,-0.025671676013148927,1.1065840999334287,-0.6967501782154999
2.1959527579528406,21.237805898949418,-0.02533768098384985,1.0888577431583286,-0.6748704732742561
2.1906676235159064,21.01097874849116,-0.02499693270123593,1.0714008326346047,-0.6538281486144976
2.1854546426257713,20.787790136266807,-0.024650504347671773,1.0542049980734918,-0.6335821250374631
2.180314905971302,20.568186081612172,-0.024299368552034867,1.0372621891135194,-0.6140937096725175
2.1752493096077323,20.35211426249335,-0.023944406339102425,1.020564659637148,-0.5953264348122381
2.170258573340623,20.139523953166538,-0.02358641525241638,1.004104952999187,-0.5772459090933229
2.1653432574823093,19.9303659648506,-0.0232261167315253,0.9878758881049514,-0.5598196799667219
2.160506018776718,19.724741177641246,-0.02284282332172065,0.9704554186508149,-0.5711215322412903
2.1557471709104767,19.5227623339682,-0.02247953730915355,0.9531526163305784,-0.584458850768753
2.151062471279928,19.324405071421225,-0.022136649648451297,0.9359641698310621,-0.5997157588761486
2.146447608292703,19.129645709167526,-0.021814426420358732,0.9188868992517899,-0.616779521878313
2.1418982265339395,18.93846122092823,-0.021513018901201063,0.9019177506462832,-0.635540301002771
2.137409949899171,18.750829209056263,-0.02123247285849624,0.8850537909914828,-0.655890914971831
2.1329784028506786,18.566727879627578,-0.020972737127145598,0.868292203567425,-0.677726608309175
2.1285992299431316,18.38613601846116,-0.020733671516160675,0.8516302837317933,-0.7009448254622681
2.1242681137543045,18.2090329679863,-0.02051505409171424,0.8350654350764061,-0.7254449898498556
2.1199807913474427,18.03539860487799,-0.020316587878400724,0.818595165955113,-0.7511282869556997
2.1157330693834333,17.86521331838333,-0.02013790701692461,0.8022170863749876,-0.7778974505955278
2.111520837993294,17.698457989263215,-0.019978582412975395,0.7859289052451424,-0.8056565514838205
2.107340083514511,17.535113969274576,-0.019838126908766723,0.7697284279799851,-0.8343107872204224
2.1031869001885037,17.375163061118762,-0.01971600000558864,0.7536135544563143,-0.8637662728038098
2.099057500910831,17.218587498781584,-0.019611612162719623,0.7375822773263475,-0.8939298307579128
2.0949482271207556,17.065369928189696,-0.019524328695143756,0.7216326806916257,-0.9247087799323296
2.090855557912348,16.915493388106768,-0.019453473289692994,0.7057629391457807,-0.956010722001178
2.086776118445502,16.768941291190732,-0.01939833115645919,0.689971317197436,-0.9877433246432176
2.0827066877319687,16.62569740513075,-0.019358151829569775,0.6742561690880791,-1.0198141003346932
2.078644205868854,16.48574583377902,-0.01933215162866777,0.6586159390236649,-1.05213017962597
2.0745857807899304,16.349070998188015,-0.019319515789653158,0.6430491618430334,-1.0845980777027528
2.0705286946036248,16.21565761745864,-0.019319400270398995,0.6275544641510368,-1.1171234529517546
2.06647040958564,16.085490689298066,-0.019330933234220356,0.6121305659496493,-1.1496108561582834
2.062408573893911,15.958555470178684,-0.019353216210813283,0.5967762828063768,-1.1819634688585168
2.0583410270740043,15.834837454980374,-0.019385324931157133,0.5814905286060946,-1.2140828292513748
2.0542658054241407,15.714322355988017,-0.01942630982944657,0.5662723189401582,-1.2458685439431003
2.0501811472908975,15.596996081103786,-0.019475196201444035,0.5511207751953816,-1.2772179836512048
2.0460854983692554,15.48284471111965,-0.01953098400466989,0.5360351294154343,-1.3080259608328868
2.0419775170842054,15.371854475879083,-0.019592647281519875,0.5210147300185398,-1.3381843870262577
2.037856080135572,15.264011729137966,-0.019659133181655186,0.5060590484682856,-1.367581907501191
2.033720288293247,15.159302921912843,-0.019729360554778197,0.49116768700907815,-1.3961035106116926
2.029569472536689,15.057714574079462,-0.01980221807910509,0.4763403875945609,-1.4236301090260133
2.0254032006405227,14.959233243955612,-0.019876561884381902,0.46157704215639694,-1.4500380897888665
2.021221284317452,14.86384549556903,-0.01995121262105299,0.4468777043824669,-1.475198829949417
2.017023787040741,14.771537863273082,-0.0200249519190516,0.4322426031979878,-1.49897817428052
2.0128110326813395,14.682296813329387,-0.020096518170485144,0.4176721581705191,-1.5212358714360976
2.0085836151096346,14.596108702026992,-0.02016460156004219,0.40316699709038756,-1.5418249647698243
2.0043424089290536,14.512959729851275,-0.020227838255013585,0.38872797601167736,-1.5605911340064105
2.0000885815287033,14.432835891152148,-0.020284803653085767,0.37435620207524495,-1.5773719840703617
1.9958236066652668,14.35572291868954,-0.020334004570117227,0.3600530594734166,-1.591996277713504
1.9915492798111094,14.2816062223546,-0.02037387023138219,0.34582023895457625,-1.6042831092530778
1.987267735536531,14.210470821277653,-0.020402741907459394,0.33165977130205354,-1.6140410178965199
1.9829814672303132,14.142301268439567,-0.020418861008899423,0.31757406525113246,-1.621067041016203
1.9786933495052472,14.077081566804235,-0.02042035542030126,0.30356595032346423,-1.6251457106758953
1.97440666368587,14.014795075890184,-0.020405223811863507,0.28963872504843485,-1.6260480011719038
1.9701251268364863,13.955424407606287,-0.020371317610836652,0.27579621098866347,-1.6235302420127855
1.9658529248621144,13.898951310101651,-0.020316320240325914,0.26204281286502495,-1.617333020595268
1.9615947503083682,13.845356538342134,-0.020237723128683632,0.24838358484467546,-1.6071801132401935
1.9573558456062883,13.794619710154983,-0.020132797843505565,0.2348243026520163,-1.592777504243358
1.9531420526668324,13.746719146624528,-0.01999856348464735,0.22137154049517904,-1.5738125830617493
1.9489598699462762,13.701631696045624,-0.019831748139695134,0.20803275073249605,-1.5499536538299976
1.9448165184084962,13.659332541252706,-0.019628742696306746,0.19481634253338406,-1.5208499549583305
1.9407200182518258,13.619794991198013,-0.019385544510078147,0.18173175322558527,-1.4861324778425227
1.9366792789257918,13.582990259382857,-0.019097687166435246,0.16878950215683747,-1.44541600403094
1.932704205964491,13.548887234482258,-0.018760150560239042,0.15600121118218685,-1.39830296448774
1.9288058297168513,13.517452252707024,-0.018367242274425846,0.1433795676295614,-1.3443899812278342
1.9249964634976453,13.488648887728807,-0.017912436003726568,0.13093819406773402,-1.2832782998376893
1.9212899025639945,13.462437783085047,-0.017388144316756466,0.11869137396809479,-1.2145897730551367
1.9177016815180856,13.438776564582703,-0.016785389453805553,0.10665356414945824,-1.137990593444465
1.9142494176390263,13.417619886543733,-0.01609331415628074,0.09483860765026213,-1.0532255015978633
1.9109532834272684,13.398919684388044,-0.015298440241414637,0.08325855573725817,-0.9601654390330288
1.9078366766712356,13.382625721644288,-0.014383528863660703,0.07192204182231787,-0.8588709303501861
1.9049271960095127,13.368686518108326,-0.013325810771795779,0.0608322775677885,-0.7496705972096116
1.9022580941772023,13.357050697831749,-0.012094206678779588,0.04998505839962075,-0.6332470747191996
1.8998704939734414,13.347668646181557,-0.01064484288084746,0.0393678144593657,-0.5107090300125914
1.8978168916566305,13.34049402336792,-0.0089132744221125,0.028961926622875903,-0.38360847077274074
1.896167148606772,13.335483967889381,-0.006798564147968757,0.018752887458465064,-0.25384555012913224
1.895020818923968,13.332594979277935,-0.004118861402548184,0.008761289793402837,-0.1234068322972787
