x,y,v_x,v_y,omega
2.375,32.48,0.0,3.5897435897435894,-7.755102040816326
2.372205954051805,31.666768710378555,-0.024296051723435977,3.4818328417472033,-7.102119807848877
2.364354610847307,30.877660219073988,-0.04397649788089207,3.3799801261185887,-6.532671710829936
2.352409737025609,30.111344774174448,-0.059891970133873124,3.2836324382252635,-6.0330747199994565
2.337159075146307,29.366611395551647,-0.07272248099049199,3.1923099845816907,-5.592287830842149
2.319249227128841,28.64235256553841,-0.08301532785703714,3.105592885098625,-5.201330233546282
2.2992128958902094,27.937551622713773,-0.09121363943541434,3.023110965550391,-4.852843233984405
2.277490342157073,27.251272246456455,-0.09767813215707578,2.9445357845132523,-4.5407564815580805
2.254446412697156,26.582649585978896,-0.10270386314654713,2.869574306595955,-4.260030984250871
2.2303841450331627,25.930882702565263,-0.10653324697513511,2.797963810044339,-4.006459375238266
2.2055557028485078,25.295228074874228,-0.10936625028273447,2.7294677350950773,-3.776509350103347
2.1801712142481176,24.674993975410473,-0.11136843319892184,2.6638722602419063,-3.5671999876023843
2.154405951100979,24.06953556877046,-0.11267733329793603,2.600983449671276,-3.376003347844216
2.1284061879636416,23.478250613769045,-0.11340756354847492,2.5406248546888386,-3.20076566311891
2.1022940040427116,22.90057567524692,-0.11365490532917523,2.48263548028617,-3.0396438311240606
2.0761712346598244,22.33598276942812,-0.11349961104375764,2.4268680485729694,-2.8910539440209404
2.0501227350323488,21.7839763806578,-0.1130090813690758,2.373187505951537,-2.753629345977667
2.024219085500745,21.24409079826869,-0.11224004499269397,2.3214697322146387,-2.6261862802298435
1.9985188411647634,20.715887730960922,-0.11124034053758221,2.2716004182876834,-2.5076956158403787
1.9730704084319475,20.198954162983433,-0.11005037887820832,2.2234740858644018,-2.3972594709307717
1.9479136148948228,19.692900421977342,-0.10870434753157229,2.176993227232041,-2.294091799511758
1.9230810262356637,19.197358432880264,-0.10723120602633177,2.132067547525161,-2.1975022022597126
1.898599053753774,18.71198013601763,-0.10565551120749225,2.0886132947586167,-2.106882371651757
1.8744888880449668,18.236436050591493,-0.10399810365170191,2.046552665468666,-2.021694699117
1.8507672878966057,17.770413967347615,-0.1022766802470896,2.005813275782431,-1.941462663975005
1.8274472482554933,17.3136177563575,-0.10050627315388637,1.9663276893489923,-1.8657626966846406
1.8045385669178509,16.86576627767094,-0.0986996515212652,1.928032994881982,-1.7942172666744531
1.78204832617647,16.426592384137752,-0.09686765927335263,1.8908704271457188,-1.7264889910823167
1.7599813028801021,15.995842007013078,-0.09501949982549901,1.8547850261123084,-1.6622755976310108
1.7383403180887256,15.57327331608748,-0.09316297662125196,1.8197253297624458,-1.6013056045566454
1.7171265356463479,15.158655947052743,-0.09130469679072944,1.7856430966265666,-1.5433346044958942
1.6963397174618473,14.751770289651564,-0.08945024394405826,1.7524930546880284,-1.4881420586977652
1.675978442025456,14.352406830885332,-0.08760432506804108,1.7202326737139875,-1.4355285237716187
1.6560402916437849,13.960365548185695,-0.08577089564214137,1.6888219584567732,-1.3853132461339326
1.6365220130097133,13.57545534800678,-0.08395326639326336,1.6582232604902996,-1.3373320699384017
1.6174196550026676,13.197493545777412,-0.08215419453756886,1.6284011067215876,-1.2914356130158615
1.598728687013752,12.82630538357618,-0.08037596188778491,1.5993220428543284,-1.2474876725688333
1.5804441005877,12.461723582265073,-0.07862044181701532,1.5709544902857213,-1.2053638283447483
1.5625604967525306,12.103587925146332,-0.07688915674967414,1.5432686150946209,-1.1649502159801461
1.5450721610540987,11.751744870498214,-0.07518332758451494,1.5162362079324967,-1.1261424473486472
1.5279731280149784,11.406047190603314,-0.07350391623392266,1.4898305737623072,-1.0888446582061966
1.5112861674152058,11.066357854552379,-0.07160008898149216,1.4639897397240937,-1.0456457425782162
1.495031406182914,10.732545180206888,-0.0697456608645233,1.438729167627994,-1.0046505134625703
1.4791975534242296,10.40447834802994,-0.06794001529795089,1.4140258947802555,-0.9657180524846682
1.4637734739376596,10.082031684483578,-0.06618241502004898,1.3898581360576705,-0.9287181655361832
1.448748213294608,9.765084399895834,-0.06447202535431391,1.3662052081835787,-0.8935304380269525
1.4341110179605958,9.453520343075795,-0.06280793407187736,1.3430474598167652,-0.8600433843896327
1.4198513511838797,9.14722777139949,-0.06118916833434979,1.3203662069337114,-0.8281536813591754
1.4059589052757357,8.846099135202781,-0.059614709127772524,1.2981436730376696,-0.7977654758307985
1.3924236108189962,8.550030875419331,-0.05808350353952565,1.2763629337749465,-0.7687897592109855
1.379235643266255,8.25892323349347,-0.056594475179965784,1.2550078655803905,-0.7411438011407443
1.3663854273246516,7.972680072680454,-0.05514653300788743,1.2340630980110479,-0.7147506363096534
1.3538636394687602,7.691208709921302,-0.05373857878247351,1.2135139694598562,-0.6895385988107504
1.34166120887545,7.414419757546803,-0.052369513333267344,1.1933464859705805,-0.6654408991250146
1.3297693170336227,7.142226974126526,-0.051038241813057175,1.1735472829013949,-0.6423952393827981
1.3181793962464112,6.874547123833953,-0.0497436780757388,1.1541035892079476,-0.6203434630389218
1.3068831272130124,6.611299843749197,-0.048484748301643385,1.1350031941377388,-0.5992312355275494
1.2958724358510827,6.352407518566512,-0.04726039397600513,1.1162344161464735,-0.5790077528403268
1.2851394894979862,6.097795162215309,-0.04606957431179091,1.0977860738639775,-0.5596254753034391
1.2746766926096273,5.847390305941417,-0.044911268195677784,1.0796474589524834,-0.541039884122048
1.2644766820587203,5.601122892429792,-0.04378447572525239,1.061808310713814,-0.5232092585190677
1.254532322119745,5.35892517558155,-0.04268821939627129,1.0442587923143662,-0.5060944715237711
1.2448366992152258,5.120731625586981,-0.041621544990852875,1.026989468507969,-0.48965880266803624
1.23538311648706,4.886478838962681,-0.04058352221058983,1.009991284746808,-0.4738677660274109
1.2261650882471904,4.656105453245125,-0.039573245092624096,0.9932555475797515,-0.45868895220339
1.2171850896483691,4.429657283149567,-0.038513699244951176,0.9758589749903147,-0.4626295035867292
1.2084437906102434,4.207195263849584,-0.03749759673874982,0.9585933667486741,-0.4690850062423099
1.199931231199518,3.988689731675109,-0.03652465900668848,0.9414547391163256,-0.4779179914428194
1.1916375290896002,3.7741119198391218,-0.03559448977520577,0.9244392768487818,-0.48899567349546436
1.183552905322711,3.5634339206354007,-0.03470658645861445,0.9075433249227146,-0.5021896134130122
1.1756677075614963,3.3566286494672397,-0.0338603505954265,0.8907633808873854,-0.5173753975952721
1.1679724310418964,3.153669810567724,-0.03305509740109475,0.8740960878040586,-0.5344323300634499
1.1604577374226739,2.9545318642800424,-0.03229006450518782,0.8575382277410062,-0.5532431368659135
1.1531144717120172,2.7591899957733546,-0.03156441993530523,0.8410867157954042,-0.5736936813395902
1.1459336774379107,2.567620085075937,-0.03087726940475175,0.8247385946169317,-0.5956726889670345
1.1389066102164151,2.379798678312696,-0.030227662956079517,0.8084910294112514,-0.6190714806155977
1.132024749860542,2.1957029600388474,-0.029614601008034012,0.7923413034048084,-0.6437837129824354
1.125279811161964,2.015310726565403,-0.02903703984916715,0.7762868137555682,-0.6697051250975444
1.1186637534683117,1.8386003601753025,-0.028493896617373275,0.7603250678974676,-0.6967332897567582
1.1121687891702186,1.6655508041315024,-0.027984053800827836,0.7444536803094971,-0.7247673687677008
1.1057873912045166,1.4961415383800052,-0.027506363292232733,0.7286703697035258,-0.7537078708940411
1.0995122996730502,1.330352555851853,-0.027059650024865996,0.7129729566282438,-0.7834564113768565
1.093336527670389,1.1681643392682552,-0.026642715215666673,0.6973593614899897,-0.8139154718962623
1.087253366408283,1.0095578383525066,-0.026254339237429293,0.6818276029947914,-0.8449881598113484
1.0812563897199814,0.8545144473508373,-0.025893284139106326,0.6663757970197323,-0.8765779654814333
1.075339458023512,0.7030159827620999,-0.025558295830192052,0.6510021559258201,-0.9085885164261701
1.069496721819692,0.5550446611728006,-0.0252481059421564,0.6357049883289497,-0.9409233270254568
1.0637226247980027,0.4105830770896759,-0.024961433376880983,0.6204826993503816,-0.9734855423916704
1.0580119066215277,0.2696141806564327,-0.02469698554898821,0.605333791373496,-1.0061776749656284
1.0523596054609257,0.13212125513443596,-0.024453459325812745,0.5902568653395216,-1.03890133229293
1.0467610603469242,-0.001912105981091372,-0.024229541665504246,0.5752506226215821,-1.071556934327961
1.041211913411103,-0.13250202234782193,-0.024023909950330404,0.5603138675238876,-1.104043418487809
1.0357081120858234,-0.2596643508161236,-0.023835232008624287,0.5454455104613569,-1.136257930536573
1.0302459113361133,-0.3834147102859049,-0.02366216581494037,0.5306445718845597,-1.1680954992211188
1.024821875999209,-0.5037685075605935,-0.023503358853794055,0.5159101870257972,-1.1994486924013854
1.0194328833113258,-0.620740964397342,-0.02335744712779826,0.5012416115546142,-1.230207252221426
1.014076125706238,-0.7343471459743327,-0.023223053786008405,0.48663822824529007,-1.2602577066515075
1.008749113976429,-0.8446019910216833,-0.023098787342764868,0.4720995547751552,-1.289482954497686
1.0034496808951243,-0.951520343891815,-0.022983239451190306,0.45762525279122823,-1.3177618207255406
0.9981759854065422,-1.0551169888792629,-0.022874982188653654,0.44321513840396914,-1.3449685786833248
0.9929265175024062,-1.1554066871392124,-0.022772564803833113,0.4288691942912364,-1.3709724355437571
0.9877001039153348,-1.2524042165993663,-0.022674509866353273,0.4145875836231382,-1.3956369770242971
0.9824959147744352,-1.346124415311742,-0.02257930875016517,0.4003706660496747,-1.418819567210472
0.9773134713855389,-1.4365822287506802,-0.0224854163706712,0.3862190160280775,-1.4403706991219938
0.9721526553183895,-1.5237927616315545,-0.02239124508280335,0.37213344380560903,-1.460133291566183
0.9670137190061296,-1.60777133490204,-0.022295157632499053,0.3581150194160252,-1.4779419278753179
0.9618972980891576,-1.6885335486456015,-0.022195459036824117,0.3441651000931825,-1.493622032408311
0.9568044257664334,-1.7660953517347764,-0.022090387247733975,0.3302853615518333,-1.5069889813354527
0.951736549453466,-1.8404731191807642,-0.021978102430243503,0.3164778336306676,-1.5178471453962938
0.9466955500885157,-1.9116837382438874,-0.021856674656279856,0.3027449408313025,-1.525988864283938
0.9416837644784866,-1.9797447044952818,-0.021724069778756603,0.28908954831124273,-1.5311933554395312
0.9367040111355356,-2.0446742291479794,-0.02157813320342626,0.2755150138861162,-1.533225564883345
0.9317596201275127,-2.1064913590977454,-0.021416571214164976,0.2620252465466406,-1.531834975054748
0.9268544675542236,-2.165216111215372,-0.021236929423131688,0.24862477186752419,-1.526754395632645
0.9219930153736875,-2.2208696224896514,-0.02103656779892136,0.23531880443055414,-1.5176987796338235
0.9171803574480613,-2.273474317595948,-0.020812631554350872,0.2221133269285181,-1.5043641311731124
0.912422272873523,-2.323054095300243,-0.020562016919894947,0.20901517484796028,-1.4864266066531318
0.9077252879273299,-2.36963453471121,-0.020281330438304827,0.19603212437784098,-1.4635419629540884
0.903096748349105,-2.41324312162336,-0.019966839807128677,0.18317297920606904,-1.4353455817805536
0.8985449042382343,-2.453909493841543,-0.01961441333087699,0.17044764877814497,-1.4014534091499888
0.8940790107032095,-2.4916657021268946,-0.01921944349542628,0.15786720587705907,-1.3614643075945532
0.8897094487195341,-2.5265464798003308,-0.018776747666968824,0.145443904326737,-1.3149645453462395
0.8854478727328918,-2.5585895084405976,-0.018280434825572744,0.13319112732774827,-1.2615354654497053
0.8813073948641026,-2.5878356586676645,-0.01772372055520237,0.12112322247282539,-1.2007658130515275
0.8773028209168203,-2.614329172697218,-0.01709866159507899,0.10925516039283109,-1.1322707640240866
0.8734509620264501,-2.6381177382733796,-0.016395763538574547,0.0976019315737614,-1.0557203610847075
0.8697710597372548,-2.6592523816882334,-0.015603386802254617,0.08617757638146435,-0.9708806726251001
0.8662853847056309,-2.677787083575673,-0.014706830864039185,0.074993744378853,-0.8776711143059766
0.8630201049930812,-2.693778004480656,-0.013686905766826735,0.06405774175143886,-0.7762400248415526
0.86000657704365,-2.707282221536971,-0.01251768509779305,0.05337023265127541,-0.6670558537167588
0.8572833069806862,-2.7183559722682276,-0.011162924145370439,0.04292325196834862,-0.5510003252381497
0.8548990068721727,-2.727052664863578,-0.009570120276487274,0.03270016190424099,-0.42943043494185157
0.852917597468156,-2.7334214954623945,-0.007659526714961818,0.022680973737655978,-0.3041516539788386
0.8514274394642944,-2.7375087968582292,-0.005298368970789929,0.012860777530442688,-0.17723133822641535
0.8505642261914088,-2.7393687386394916,-0.0022078334021277215,0.003312629263143619,-0.05060823438389861
