x,y,v_x,v_y,omega
2.375,32.48,0.0,3.5897435897435894,-2.4897959183673475
2.3743086042181423,31.771521900192617,-0.006913957818575763,3.495037408330213,-2.306541521433844
2.372351987230088,31.08154132898154,-0.012652212061970028,3.40476830378054,-2.143660969256838
2.3693460360666405,30.409203012704186,-0.017407299572505464,3.318614858993001,-1.9982468007967655
2.3654715340636594,29.753712865228238,-0.02133772045730393,3.236286615766475,-1.867878350886749
2.360880311250145,29.114332172583946,-0.02457450767783832,3.1575203106764604,-1.750529750614508
2.3557002187161413,28.490372474269,-0.027226417662201564,3.0820766724729944,-1.6444971429837272
2.3500391714740596,27.881191039016656,-0.02938405475861174,3.00973768005043,-1.5483407383396084
2.343988449388166,27.286186850859465,-0.031123166100323132,2.9403042015214793,-1.4608384100176282
2.337625404070208,26.704797035595426,-0.0325072870792611,2.87359395111893,-1.3809483229115094
2.3310156878014845,26.136493669181654,-0.033589875607974086,2.809439713018812,-1.3077786759632573
2.324215096061113,25.58078091880487,-0.03441604179573806,2.747687790749032,-1.2405630799203864
2.3172710963012286,25.037192474896294,-0.035023955803106646,2.688196648336682,-1.1786404237455799
2.3102241008732634,24.50528923853569,-0.035445998476547294,2.6308357152694066,-1.1214383351843933
2.3031085304801158,23.984657233801332,-0.03570970545492578,2.575484332074141,-1.0684595336909584
2.295953705462136,23.474905718881526,-0.03583854472487301,2.522030817123919,-1.0192705221017113
2.2887845950593313,22.975665473331745,-0.03585255930317728,2.470371638373919,-0.9734921780827732
2.2816224491027106,22.486587241868886,-0.03576890026302604,2.420410676254658,-0.930791895552042
2.2744853320498812,22.00734031764044,-0.03560227026526879,2.3720585660297835,-0.8908769960171086
2.2673885756452243,21.537611250072683,-0.03536529378130037,2.3252321096477946,-0.8534891845885709
2.2603451635615635,21.077102664252834,-0.035068827055306624,2.279853748550716,-0.8183998687278955
2.2533660590196365,20.625532180387495,-0.034722218363966474,2.2358510901026416,-0.7854061921498725
2.246460484468365,20.182631423246228,-0.03433352714874562,2.1931564813100284,-0.754327663689468
2.2396361608524713,19.748145112679445,-0.03390970901019336,2.1517066243578102,-0.7250032828698689
2.232899512723382,19.321830227322856,-0.033456772280698446,2.1114422292080905,-0.6972890815350177
2.2262558444086635,18.903455234489705,-0.032979910866486786,2.072307699123422,-0.6710560151359853
2.2197094915999886,18.49279938002713,-0.032483617220259504,2.0342508455023114,-0.6461881487863204
2.2132639520146733,18.089652032590383,-0.031971778632893924,1.99722262886518,-0.6225810925742861
2.206921998202909,17.693812077382212,-0.031447759484748296,1.9611769232165024,-0.6001406482691938
2.200685775089471,17.305087354926258,-0.03091447164963475,1.9260703013430527,-0.5787816358234308
2.194556884436716,16.92329414090222,-0.030374434877917886,1.8918618388972848,-0.5584268732192263
2.18853645808053,16.548256663475936,-0.0298298286839401,1.858512935365593,-0.5390062874526018
2.182625221510666,16.179806654915456,-0.029282537014700284,1.8259871502392144,-0.5204561379560975
2.176823549132043,15.81778293460198,-0.02873418677152518,1.7942500528955623,-0.5027183366726738
2.1711315123462476,15.462031020826043,-0.02818618108643324,1.763269084863804,-0.4857398514148201
2.1655489214262436,15.112402769010274,-0.027639728113605506,1.7330134332938778,-0.4694721811633642
2.1600753620170146,14.768756034223316,-0.02709586597868447,1.7034539145757117,-0.45387089365093325
2.1547102269761123,14.430954356048986,-0.026555484430337083,1.6745628671675818,-0.4388952169931979
2.1494527441674545,14.098866664053087,-0.026019343656243647,1.6463140527913867,-0.42450767832393566
2.144302000736166,13.772367002249965,-0.02548809065664162,1.6186825652398518,-0.41067378339593064
2.139256964319452,13.451334271114195,-0.02496227351049956,1.5916447461178456,-0.39736173196019464
2.1343165015863548,13.135651985811577,-0.024442353820468176,1.565178106908333,-0.3845421644567332
2.129479394446165,12.825208049439329,-0.023928717581430194,1.5392612568141677,-0.3721879361623273
2.124744354219773,12.51989454016983,-0.023421684682494365,1.5138738358808428,-0.3602739154620842
2.1201100340292616,12.219607511286412,-0.022921517222616657,1.4889964529533397,-0.34877680335634054
2.115580057934146,11.924247150597619,-0.02237824372853821,1.4646071539345749,-0.33626969656324496
2.111157482570616,11.633717233936249,-0.021847509906764883,1.4406920126791403,-0.32433177590491247
2.1068398136913724,11.347924612819376,-0.021329178885668477,1.4172341984895993,-0.3129304284188295
2.1026245870145353,11.066779428618116,-0.020823087882704948,1.3942176435230154,-0.30203526359775507
2.0985093729569555,10.790194964323,-0.020329052693089742,1.371626999428135,-0.29161793791482016
2.0944917805293826,10.518087504689571,-0.019846871582641874,1.3494475969061426,-0.2816519950472987
2.0905694605049687,10.25037620420228,-0.019376328661495308,1.3276654079667958,-0.27211272023308747
2.0867401079582932,9.986982962338406,-0.018917196805259155,1.3062670106719283,-0.26297700736589197
2.083001464259619,9.727832305653564,-0.01846924018148323,1.285239556176492,-0.25422323758649856
2.0793513185982957,9.472851276246544,-0.01803221643175164,1.2645707378937237,-0.24583116826098203
2.0757875090997993,9.221969326194586,-0.01760587855321382,1.2442487626258483,-0.237781831354542
2.0723079235927053,8.975118217580487,-0.017189976517724713,1.2242623235151453,-0.23005744031385977
2.0689105000747445,8.732231927760736,-0.016784258661880755,1.2046005746823514,-0.2226413046631257
2.0655932269208566,8.493246559549462,-0.016388472877000355,1.185253107430388,-0.21551775160068457
2.062354142870715,8.258100256016284,-0.0160023676244175,1.1662099279013927,-0.20867205395586788
2.059191336828447,8.026733119617735,-0.015625692798257873,1.147461436084121,-0.2020903639301361
2.056102947503113,7.799087135401617,-0.015258200455083271,1.1289984060770402,-0.19575965210411425
2.0530871629148684,7.575106098041918,-0.014899645427365429,1.1108119675199575,-0.1896676512433098
2.050142219788568,7.354735542478533,-0.014549785835636809,1.0928935881138804,-0.18380280448099265
2.047266402853772,7.137922677951639,-0.014208383512321674,1.0752350571550537,-0.17815421749753121
2.044458044067676,6.924616325234652,-0.0138752043486403,1.0578284700148306,-0.1727116143519854
2.041715521775355,6.714766856882942,-0.013550018574571698,1.040666213502248,-0.16746529665444043
2.0390372598198345,6.508326140327622,-0.013232600980629257,1.0237409520509506,-0.16240610579686646
2.036421726612859,6.3052474836548775,-0.012922731089126194,1.0070456146764766,-0.15752538798657997
2.03386743417578,6.105485583921837,-0.01262019328166407,0.9905733826539201,-0.1528149618500035
2.0313754408076328,5.909167777769639,-0.01229974039981099,0.9726046788680508,-0.18217851020686382
2.0289442862558755,5.716432815968481,-0.012011805117759487,0.9547449391435266,-0.21309147419759156
2.026567523366286,5.527259196202795,-0.011755823778137336,0.9369912585133439,-0.2454508205454768
2.024238824140412,5.341625986166399,-0.011531168480600934,0.9193408418506045,-0.27915572875627137
2.0219519919636744,5.159512801986168,-0.011337153286776154,0.9017909999517206,-0.3141073716353354
2.019700972645595,4.980899787393202,-0.011173039894019124,0.88433914597792,-0.3502086999976645
2.0174798643747662,4.805767593570813,-0.011038042814266517,0.8669827922459571,-0.38736423069615106
2.0152829266842542,4.634097359610092,-0.010931334090853007,0.8497195473612668,-0.42547983709325216
2.0131045885168737,4.46587069350505,-0.010852047582953685,0.8325471136891704,-0.46446254109452584
2.010939455474155,4.301069653619912,-0.010799282844234892,0.8154632851621942,-0.5042203058490012
2.008782316327797,4.1396767305612805,-0.01077210861934193,0.7984659454241043,-0.5446618282007367
2.006628148867964,3.981674829387476,-0.010769565978990581,0.7815530663139576,-0.5856963299477772
2.0044721251589013,3.827047252086448,-0.01079067111163502,0.7647227066963281,-0.6272333469285444
2.0023096162690446,3.675777680252118,-0.010834417786931085,0.7479730116469578,-0.6691825149108763
2.000136196540004,3.5278501578867782,-0.010899779503473496,0.7313022120064374,-0.711453351204778
1.997947647456604,3.383249074254312,-0.01098571133052961,0.7147086243182068,-0.7539550308556253
1.995739961178482,3.241959146705369,-0.011091151450690534,0.6981906511712388,-0.7965961561991557
1.993509343792665,3.1039654033910153,-0.011215022407480254,0.6817467819723111,-0.8392845184720051
1.9912522183460197,2.9692531657759993,-0.01135623205896982,0.665375594177861,-0.881926850070626
1.988965227716593,2.837808030856099,-0.011513674235298395,0.6490757550211598,-0.9244285659358027
1.9866452373835968,2.7096158529762775,-0.011686229094663929,0.6328460237770467,-0.9666934924082106
1.9842893381572537,2.5846627251371856,-0.011872763168766913,0.6166852546138681,-1.0086235817509364
1.981894848931895,2.4629349596667254,-0.012072129084819238,0.6005924000907228,-1.0501186103659002
1.9794593195287122,2.3444190681208745,-0.012283164947008521,0.5845665153678026,-1.0910758585409086
1.9769805336984443,2.229101740263218,-0.012504693355671118,0.5686067632087517,-1.131389769350852
1.974456512359147,2.1169698219556636,-0.012735520037300599,0.5527124198667789,-1.1709515840986287
1.971885517150135,2.0080102917728837,-0.012974432052819122,0.536882881961036,-1.2096489514172997
1.969266054390336,1.9022102361300988,-0.013220195545171799,0.521117674466831,-1.2473655068637304
1.9665968795378028,1.7995568226871193,-0.013471552980160001,0.5054164599629501,-1.2839804195154196
1.9638770022571483,1.700037271760614,-0.013727219826384137,0.4897790493021164,-1.319367901737458
1.9611056922134025,1.603638825440715,-0.013985880611075904,0.4742054138968799,-1.3533966779187836
1.9582824857244652,1.5103487140666765,-0.014246184278297581,0.4586956998435003,-1.385929407592436
1.9554071934202077,1.4201541196682115,-0.014506738764276106,0.4432502441411585,-1.4168220579643154
1.952479909074651,1.3330421359237334,-0.014766104691290867,0.42786959330363655,-1.4459232204970074
1.9495010197988951,1.2489997241227826,-0.015022788066267239,0.41255452470586845,-1.473073365857733
1.9464712178069985,1.168013664546315,-0.01527523185269998,0.39730607105879906,-1.498104031285708
1.9433915139952975,1.0900705025941555,-0.015521806264309553,0.3821255484627898,-1.5208369343294776
1.9402632536083306,1.0151564888926892,-0.015760797605358704,0.3670145885518641,-1.5410830070467536
1.9370881343022877,0.9432575125068041,-0.015990395455072377,0.35197517530697076,-1.5586413452927237
1.9338682269606742,0.8743590262577818,-0.01620867796106175,0.33700968718326774,-1.573298068861797
1.930605999667814,0.8084459630135648,-0.016413594967540888,0.3221209452589105,-1.5848250903077368
1.9273043453054408,0.7455026416714858,-0.0166029486561906,0.3073122681618841,-1.5929787937129047
1.9239666133080897,0.6855126614001001,-0.016774371317319476,0.2925875345519698,-1.5974986301934806
1.9205966461972495,0.6284587825546524,-0.0169252997910832,0.2779512539025062,-1.598105645523395
1.9171988216167128,0.5743227925441907,-0.017052946014283758,0.26340864620209675,-1.5945009684250582
1.913778100718926,0.5230853548321761,-0.01715426296358381,0.24896573091804566,-1.5863643080109628
1.9103400839148061,0.4747258392369318,-0.017225905077614734,0.23462942503438658,-1.5733525388210532
1.9068910752140675,0.42922213182871616,-0.017264181929771357,0.2204076490477787,-1.5550984966948063
1.9034381566765317,0.38655042309960663,-0.01726500344558703,0.20630943824334244,-1.5312101754316112
1.8999892749115892,0.3466849738724278,-0.017223814203838995,0.1923450540284397,-1.5012706132141411
1.8965533421769258,0.30959785986458854,-0.01713551314279439,0.17852608604996087,-1.4648389041455567
1.8931403555631279,0.27525869831023186,-0.016994352995185136,0.16486552949357605,-1.421452985338743
1.8897615392179095,0.24363436413172224,-0.016793810456998303,0.1513778122915349,-1.3706351629687008
1.8864295169185794,0.21468870964558562,-0.016526412536301695,0.13807873256979739,-1.3119017885706146
1.8831585261475206,0.18838231178269638,-0.016183495174286057,0.12498524605909314,-1.2447791193523594
1.8799646911817196,0.16467228562067504,-0.015754854483723355,0.11211501556112632,-1.1688282165414972
1.876866383278547,0.14351222387027462,-0.015228224548002713,0.09948560194290225,-1.0836827066730468
1.8738847136408738,0.12485234879915907,-0.014588471828730585,0.08711314876823108,-0.9891041050289989
1.8710442340589908,0.1086399918631642,-0.013816323990099254,0.07501042059170886,-0.8850594532730578
1.8683739684486127,0.0948205328256364,-0.012886332113681395,0.06318416978354179,-0.7718235519368426
1.8659089791532657,0.0833388984318546,-0.011763560839787988,0.05163217415428958,-0.6500997785045618
1.8636928142543616,0.0741415655033677,-0.010398088149254445,0.040341155130596516,-0.5211346725835907
1.8617814784146596,0.06717859829492312,-0.008715270247767018,0.0292885169538143,-0.38676974276835263
1.8602504011965624,0.06240431415785963,-0.006595501933204177,0.018454324416834395,-0.2493394478491975
1.859209286469882,0.05977269371310001,-0.003815645333600482,0.007861880030782784,-0.11131865401407931
