x,y,v_x,v_y,omega
2.375,32.48,0.0,3.5897435897435894,-6.163265306122449
2.3736521843148095,31.84172717446524,-0.014975729835450322,3.5021766939759136,-5.751433031462118
2.369815746697208,31.21887529707208,-0.027651354804565133,3.4183997215036603,-5.380968259550717
2.3638741243527353,30.610786078932726,-0.03836667124513517,3.338147146711397,-5.0464938164235
2.3561545025663118,30.016846656693197,-0.04740690415956636,3.2611797670611296,-4.743459805880703
2.34693676587134,29.436485173378582,-0.055012392451231344,3.187281158656807,-4.467998314424475
2.336460877097827,28.86916694160085,-0.06138637169891269,3.116254749984704,-4.21680672851318
2.324932989535189,28.314391089713368,-0.06670126788595548,3.0479213820983895,-3.9870534125018793
2.312530531966527,27.7716876122857,-0.0711038162102896,2.9821172559868363,-3.776301000309585
2.299406456358425,27.240614762017067,-0.07471924610195196,2.918692191442384,-3.582443662034022
2.285692799478538,26.720756732271127,-0.07765471923012625,2.8575081390680896,-3.403655532088657
2.271503679774578,26.211721588760877,-0.08000216636943167,2.7984378999346857,-3.238348106426164
2.256937827391752,25.713139416231016,-0.08184063788418668,2.7413640170637876,-3.0851348879856135
2.24208072669767,25.2246606517728,-0.08323825871672778,2.686177810249704,-2.942801920652309
2.2270064359864037,24.74595458102837,-0.08425386029734395,2.632778531355041,-2.8102831307616105
2.211779137293685,24.276707977265396,-0.08493834739953171,2.581072621566898,-2.6866396118603952
2.1964544598274034,23.816623866329422,-0.08533584667026166,2.5309730554994974,-2.5710421579973533
2.181080612908723,23.36542040296077,-0.08548467464840695,2.4823987597077544,-2.462756484312495
2.165699358149922,22.9228298460096,-0.08541815600493821,2.4352740953052714,-2.36113067940862
2.1503468455715593,22.488597621784372,-0.0851653170879805,2.3895283960861016,-2.265584518146207
2.1350543342544874,22.062481466193184,-0.08475147532393318,2.3450955549271115,-2.175600330840358
2.119848814751617,21.6442506375366,-0.08419874137462344,2.3019136523682895,-2.0907151789720753
2.104753547708238,21.23368519282669,-0.083526447996258,2.2599246221862237,-2.010514131240272
2.089788530845422,20.830575321371974,-0.08275151714614089,2.2190739495328597,-1.9346244692310375
2.0749709045588984,20.43472073010845,-0.08188877492634299,2.179310397839669,-1.8627106808450482
2.060315304803824,20.045930075793837,-0.08095122235226201,2.1405857612115673,-1.7944701232164537
2.045834170616387,19.664020439732056,-0.07995026861925836,2.102854639474891,-1.7296292562107123
2.0315380125194746,19.288816841171972,-0.07889593245754621,2.0660742334149504,-1.667940363521844
2.017435647133936,18.920151785939815,-0.07779701627066055,2.0302041580534356,-1.6091786915502624
2.0035344025385653,18.557864847227442,-0.07666125701123921,1.9952062720840522,-1.5531399471482692
1.989840298265713,18.201802275776604,-0.07549545713156143,1.9610445218141337,-1.4996381043858031
1.9763582032649285,17.8518166369792,-0.07430559843271052,1.9276847981570158,-1.4485034780472936
1.9630919746973423,17.50776647265998,-0.07309694120713688,1.895094805389864,-1.3995810278902536
1.9500445800248014,17.169515985526413,-0.07187411070998491,1.8632439405386947,-1.3527288629952354
1.9372182045185538,16.83693474446373,-0.07064117269276712,1.8321031823800191,-1.307816919991834
1.9246143460230964,16.509897409025147,-0.06940169947898095,1.801644989159783,-1.2647257927007372
1.9122338985637568,16.18828347162029,-0.06815882784701459,1.7718432042274799,-1.2233456939052996
1.900077226175115,15.871977016041654,-0.06691530980456067,1.7426729688684928,-1.1835755326544928
1.8881442281460272,15.560866491091161,-0.06567355718530336,1.714110641692559,-1.1453220927819328
1.876434396721197,15.254844498178635,-0.06443568086836797,1.6861337240021836,-1.1084993002686487
1.8649468681651258,14.953807591862365,-0.06320352531019974,1.6587207906230435,-1.0730275687346826
1.8536804679786405,14.657656092390596,-0.06197869898408,1.631851425729937,-1.0388332137615206
1.842633750958309,14.366293909382623,-0.06076260124182549,1.6055061632475471,-1.0058479279612644
1.8318050367026562,14.079628375860214,-0.05955644604320752,1.5796664314458913,-0.9740083097505734
1.821192441094214,13.797570091905296,-0.058361282939482444,1.554314501386508,-0.9432554396838686
1.8107939042214625,13.520032777278818,-0.05717801564664569,1.5294334389077042,-0.9135344989729818
1.8006072151482329,13.24693313238918,-0.05600741850034999,1.5050070598660334,-0.8847944254876933
1.7906300338889887,12.978190707047307,-0.05485015104680866,1.481019888377005,-0.8569876031089315
1.7808657596997017,12.713729570144693,-0.05364178438971377,1.457437188318699,-0.8283222723171904
1.7713167884738021,12.453476296573836,-0.05245789589805786,1.4342658513574749,-0.8008566422307323
1.7619787293514853,12.197358069188816,-0.05129831657212939,1.4114922306982916,-0.7745271168759912
1.7528472266066855,11.945304475739384,-0.05016282503675722,1.3891032520731934,-0.7492741078953254
1.7439179683731423,11.697247408550904,-0.04905115533594478,1.3670863833543543,-0.7250417415009552
1.7351866940513316,11.453120969501377,-0.04796300379528336,1.3454296060848538,-0.701777589731279
1.72664920055424,11.212861379962977,-0.04689803506129215,1.3241213887862757,-0.6794324237600394
1.7183013475314914,10.97640689539995,-0.04585588741369115,1.3031506619140145,-0.6579599872382839
1.710139061695098,10.743697724336922,-0.044836177435125274,1.282506794341866,-0.6373167878530037
1.7021583403557843,10.51467595143211,-0.04383850411280488,1.2621795712671684,-0.6174619054678129
1.6943552542662368,10.289285464408774,-0.042862452437721216,1.2421591734365645,-0.5983568153727182
1.6867259498564984,10.067471884615443,-0.04190759655937346,1.222436157600455,-0.5799652253142774
1.6792666509369099,9.84918250100137,-0.0409735025471661,1.2030014381114995,-0.562252925106266
1.6719736599353334,9.634366207308311,-0.04005973080368134,1.1838462695891507,-0.5451876477361753
1.6648433587277207,9.422973442293245,-0.03916583816979549,1.164962230578264,-0.5287389409859911
1.657872209114309,9.214956132809021,-0.038291379757000615,1.1463412081353448,-0.5128780486781286
1.651056752987738,9.010267639581546,-0.037435910538234085,1.1279753832810462,-0.49757780074033137
1.6443936122340521,8.808862705532658,-0.036598986724940996,1.109857217262147,-0.48281251135782305
1.637879488402863,8.610697406507722,-0.03578016695493795,1.0919794385704689,-0.4685578845479791
1.6315111621787612,8.415729104276075,-0.034979013312859804,1.0743350306700648,-0.454790926553066
1.625285492682378,8.223916401680889,-0.03419509220250872,1.056917220387567,-0.4414898645009123
1.61919941662621,8.03521909982286,-0.033427975088247665,1.0397194669238448,-0.42863407083235966
1.613249947347409,7.849598157169385,-0.032677239120654074,1.022735451448121,-0.4162039930385711
1.607434173737155,7.667015650487592,-0.03194246765994397,1.0059590672384535,-0.40418108829123534
1.601749259083935,7.487434737505978,-0.031223250709165724,0.9893844103350253,-0.3925477625848562
1.5961987440367356,7.311043458091074,-0.03044913870416192,0.9705186942750204,-0.4308789849725752
1.5907830016626034,7.138038815150242,-0.02972577656397211,0.951755116178659,-0.47037040856221507
1.5854930552613034,6.9684026509587085,-0.02905140567269703,0.9330911526161542,-0.510919806047345
1.580320244711165,6.802117253027401,-0.028424267106619033,0.9145243799539183,-0.5524263303666315
1.5752562263418957,6.639165336355184,-0.027842603663039884,0.896052471959583,-0.5947902887565981
1.5702929724674544,6.479530026079839,-0.02730466160852919,0.8776731977664818,-0.6379129176422793
1.5654227706280812,6.323194840462911,-0.02680869216228319,0.8593844201993799,-0.6816961573571381
1.5606382225879618,6.170143674143009,-0.026352952727935225,0.8411840944661855,-0.7260424256571406
1.5559322431328126,6.020360781590938,-0.025935707884832165,0.8230702672235165,-0.7708543889587742
1.5512980587099054,5.8738307606983575,-0.025555230147471762,0.8050410760273873,-0.8160347301865207
1.5467292059516815,5.730538536429336,-0.02520980049946069,0.787094749183954,-0.8614859120612078
1.5422195301231922,5.590469344461045,-0.024897708705975918,0.7692296060192936,-0.9071099345959946
1.5377631835330905,5.45360871473606,-0.02461725340626615,0.7514440575916456,-0.9528080854906607
1.5333546239478597,5.3199424548441065,-0.024366741985185944,0.733736607874502,-0.998480682026377
1.5289886130493857,5.189456633145397,-0.0241444902200812,0.7161058554444798,-1.0440268029611797
1.5246602149768929,5.062137561541121,-0.023948821696506,0.6985504957141478,-1.0893440088097492
1.5203647949957184,4.937971777788714,-0.023778066983209226,0.6810693237570368,-1.1343280487585676
1.5160980183374109,4.816946027250374,-0.02363056255354258,0.6636612377800625,-1.178872552317731
1.5118558492582745,4.699047243952474,-0.02350464943686219,0.6463252433077038,-1.2228687036422923
1.5076345503667954,4.584262530821039,-0.0233986715795714,0.6290604581526776,-1.2662048962676526
1.5034306822744328,4.472579138943921,-0.02331097389112293,0.6118661182597513,-1.3087663657940423
1.4992411036291369,4.363984445693475,-0.023239899945497727,0.5947415845229672,-1.3504347978235856
1.4950629715967425,4.2584659315241105,-0.023183789303329316,0.5776863506921934,-1.3910879081994272
1.4908937428621956,4.1560111552365555,-0.02314097441386034,0.5607000525028686,-1.430598992320253
1.4867311752305197,4.056607727474791,-0.023109777049203167,0.5437824781834073,-1.46883644000688
1.4825733299166681,3.960243282191634,-0.023088504215815493,0.5269335805183578,-1.505663212083924
1.478418574624084,3.866905445784461,-0.023075443479562717,0.510153490672438,-1.5409362745151658
1.4742655875241275,3.7765818035629124,-0.02306885763106653,0.49344253401143684,-1.5745059856066184
1.4701133622626972,3.68925986316469,-0.023066978607049655,0.47680124819102915,-1.6062154314829096
1.4659612141366856,3.604927014483323,-0.023068000570856464,0.4602304038241469,-1.6358997047757802
1.46180878760162,3.5235704856117813,-0.02307007204098263,0.44373102808185483,-1.663385121276215
1.4576560652933377,3.4451772942375705,-0.023071286939932732,0.42730443163161824,-1.6884883692503798
1.4535033787712512,3.369734193847435,-0.023069674416584175,0.41095223936990294,-1.7110155862869698
1.4493514212192022,3.29722761401257,-0.02306318727284881,0.3946764254619325,-1.730761359050924
1.4452012623727426,3.227643593927805,-0.02304968879892526,0.3784793532576788,-1.7475076423421407
1.441054365979777,3.16096770827113,-0.02302693778958125,0.3623638207053951,-1.7610225956542997
1.4369126101459777,3.097184984334408,-0.022992571474854197,0.3463331119248572,-1.771059338370695
1.4327783109687842,3.0362798092553724,-0.022944086049518756,0.33039105561997706,-1.7773546293623246
1.4286542499263186,2.9782358260608817,-0.022878814422319357,0.3145420909854896,-1.779627483855243
1.4245437055633747,2.92303581712234,-0.02279390072150275,0.29879134166496873,-1.777577751154404
1.4204504901105315,2.870661573543419,-0.022686270976754633,0.2831446981008298,-1.77088469281787
1.4163789917917677,2.821093748975507,-0.022552599231731175,0.2676089082092974,-1.7592056245991181
1.4123342237321403,2.7743116964322603,-0.0223892680974615,0.25219167560455125,-1.7421747204572022
1.4083218805884306,2.730293286920091,-0.02219232238820366,0.23690176341956365,-1.719402128322155
1.404348404321531,2.689014709223489,-0.021957413910680786,0.22174909987600913,-1.6904736225425052
1.4004210609576315,2.6504502511452372,-0.021679734577089025,0.20674487877121844,-1.6549511277049327
1.3965480308244618,2.6145720641463157,-0.021353933569242204,0.1919016434390208,-1.6123746078417662
1.3927385157284484,2.581349916019228,-0.0209740119420166,0.17723333575085148,-1.5622660444971557
1.3890028680728244,2.550750940479137,-0.02053318423158584,0.16275528136125791,-1.5041365533176219
1.3853527493597708,2.5227393990809617,-0.02002369035789631,0.14848406750736234,-1.437498142492801
1.3818013294558875,2.497276480571667,-0.019436530796363764,0.1344372492625724,-1.3618822235901353
1.3783635443857631,2.4743201766382334,-0.01876108109390746,0.12063279444225408,-1.2768677421168588
1.3750564407982488,2.453825291607579,-0.01798451432291895,0.1070881503428127,-1.1821226046924111
1.371899652078985,2.4357436660237077,-0.017090915891121404,0.09381880058908107,-1.0774626141822512
1.368916078207478,2.4200247149151757,-0.016059904903399428,0.08083621172793759,-0.9629315561251042
1.3661328850073382,2.406616385989693,-0.01486446398704436,0.06814522077741822,-0.838902660323869
1.3635830094061967,2.395466596970927,-0.013467487136751038,0.05574132387555844,-0.7061923640161603
1.3613074818804627,2.3865250494663,-0.011816152038072469,0.043609203953630646,-0.5661585379174554
1.3593591419055946,2.3797449281699805,-0.00983206990490732,0.031725477116588886,-0.42072703180367826
1.3578090843040291,2.3750831627705935,-0.0073907923347085284,0.020071916209920635,-0.27226453153040153
1.3567603061857023,2.3724957254619277,-0.004262297868923487,0.008677387219714706,-0.12321997602010365
