x,y,v_x,v_y,omega
2.375,32.48,0.0,3.1794871794871797,-5.673469387755102
2.3739175794064926,31.91408332207397,-0.012026895483417021,3.1084759085797775,-5.333572745704202
2.3708207990551435,31.360703009756428,-0.022381775087125716,3.040194228281817,-5.023998038856725
2.365990630884693,30.8193832619973,-0.03128676014010362,2.9744696357084868,-4.741215695419402
2.359670956758946,30.28967793523953,-0.03893184125708598,2.9111451060444926,-4.48218481064945
2.352073888244249,29.77116792791324,-0.045480031128434885,2.850077197580958,-4.244275622874561
2.3433842415147312,29.26345887890428,-0.0510715991995414,2.791134458074181,-4.025205829880035
2.3337633162863223,28.76617913103472,-0.055827570005000965,2.734196073809808,-3.8229879939021294
2.323352098558768,28.27897791995587,-0.0598526269678256,2.679150715955162,-3.635885888400396
2.3122739841396927,27.80152375613904,-0.06323753324412246,2.625895548676295,-3.4623780985935078
2.300637101920239,27.333502973369768,-0.06606115808314265,2.574335370982317,-3.301127538958305
2.2885363015523947,26.874618421683614,-0.06839217933734643,2.524381869974953,-3.150955822031472
2.2760548587133265,26.424588286303404,-0.07029051887452231,2.4759529675828924,-3.010821623812287
2.263265941906809,25.983145017055843,-0.07180855675344741,2.428972246278912,-2.879802356384329
2.2502338772711767,25.550034355114867,-0.07299216142024573,2.3833684419541683,-2.757078588791257
2.237015241772735,25.125014445857747,-0.07388156634021802,2.339074994236034,-2.641920760720965
2.223659810181562,24.70785502821715,-0.07451211800615327,2.296029646215065,-2.5336778161931215
2.2102113771335032,24.298336692237545,-0.07491491586116411,2.2541740868916635,-2.4317674507715923
2.1967084722056955,23.89625019765089,-0.07511736111447673,2.213453630737835,-2.3356677193228057
2.183184983137037,23.501395847215946,-0.07514362853728804,2.173816929650448,-2.244909794697118
2.1696707000016464,23.113582909351074,-0.07501507296704847,2.1352157132925638,-2.1590717030013
2.1561917912061364,22.732629085257685,-0.07475058031639825,2.097604554411774,-2.0777728899763925
2.142771220561176,22.3583600163013,-0.07436687129426964,2.0609406562146866,-2.000669496666454
2.1294291133184844,21.990608827906357,-0.07387876473564069,2.025183659284686,-1.9274502420611466
2.1161830779206965,21.6292157066423,-0.07329940635088807,1.9902954658715244,-1.8578328265118667
2.103048489246759,21.274027507543693,-0.07264046780397658,1.9562400796685355,-1.7915607830885003
2.0900387383194317,20.924897389024274,-0.07191232027743448,1.9229834594360964,-1.7284007151668712
2.0771654527495764,20.581684473021763,-0.0711241860542949,1.8904933850362464,-1.6681398678210417
2.0644386916037836,20.244253528252756,-0.07028427112117878,1.8587393346193948,-1.6105839883668702
2.0518671178809456,19.912474674670072,-0.06939988135479683,1.8276923718548814,-1.5555554379283931
2.0394581513556367,19.586223107402706,-0.06847752448196877,1.797325042226941,-1.5028915213918226
2.027218104180246,19.265378838624606,-0.06752299968904034,1.7676112775297061,-1.45244300774866
2.015152301324072,18.949826455945647,-0.06654147649067352,1.7385263077920605,-1.4040728167531586
2.0032651876580894,18.639454896049074,-0.06553756424246249,1.7100465799476625,-1.3576548511479436
1.9915604232621555,18.334157232416253,-0.06451537349013702,1.682149682639222,-1.3130729565420272
1.9800409683314075,18.033830476083764,-0.06347857018484128,1.6548142766106704,-1.2702199934378284
1.9687091588858556,17.738375388471027,-0.062430423654624624,1.6280200301975463,-1.2289970079644894
1.9575667743376592,17.447696305400424,-0.06137384910311304,1.6017475594758115,-1.1893124896388512
1.9466150978409984,17.161700971507,-0.06031144530422968,1.575978372673357,-1.1510817059887903
1.9358549702369403,16.88030038430253,-0.059245528074193074,1.5506948184874272,-1.1142261051745226
1.9252868383078634,16.603408647219943,-0.05817816002666063,1.5258800379857524,-1.078672778863988
1.9149107979707867,16.330942831019232,-0.05711117705196924,1.5015179197999051,-1.0443539785854454
1.9047266329646224,16.062822842986034,-0.05604621190541192,1.4775930583467667,-1.0112066796165058
1.8947389612707841,15.798973470496257,-0.054927918026126496,1.454066635984074,-0.9774105756389619
1.8849512039865366,15.539321977384972,-0.053824940687734434,1.4309499541413342,-0.9450289826526
1.8753605559013775,15.283795833743255,-0.052737815814031114,1.4082294196555294,-0.9139869072004235
1.8659641250797416,15.032324905070467,-0.05166697109303544,1.3858920100421073,-0.8842140817333799
1.8567589512151415,14.784841352283934,-0.05061273851363301,1.3639252431416178,-0.8556446190402696
1.847742021850809,14.541279537019129,-0.04957536553450609,1.3423171486895649,-0.8282166953359545
1.8389102866993081,14.301575931887015,-0.048555025037726546,1.321056241667244,-0.8018722593548009
1.8302606702677664,14.06566903537966,-0.0475518242016247,1.3001314973033558,-0.7765567650670262
1.821790082972543,13.833499291137723,-0.04656581241196732,1.2795323276070658,-0.7522189258762131
1.8134954309069542,13.605009011314014,-0.045596988316798336,1.2592485593230343,-0.7288104883703176
1.8053736244077978,13.380142303786233,-0.044645306118271444,1.2392704132078698,-0.7062860238892241
1.7974215855505733,13.15884500298932,-0.04371068118422328,1.219588484535584,-0.6846027363420193
1.7896362546892308,12.94106460415389,-0.042792995052916165,1.2001937247469894,-0.6637202848590971
1.7820145961438136,12.726750200751837,-0.04189209989616262,1.1810774241647042,-0.643600620000062
1.7745536031282678,12.515852424963875,-0.04100782249879152,1.1622311957015412,-0.6242078323600145
1.7672503020008357,12.30832339099613,-0.04013996780600971,1.1436469594956347,-0.6055080125257959
1.7601017559106855,12.104116641084556,-0.03928832208454792,1.125316928410758,-0.5874691214315588
1.7531050679066142,11.903187094036543,-0.038452655738467095,1.107233594344937,-0.5700608702508638
1.7462573835667068,11.705490996168972,-0.03763272581606032,1.0893897152947245,-0.5532546090414711
1.7395558932016297,11.510985874511071,-0.036828278240349066,1.071778303126406,-0.5370232234300806
1.7329978336787022,11.319630492148885,-0.03603904979217948,1.0543926120089762,-0.5213410386883184
1.726580489908942,11.131384805596046,-0.03526476987182287,1.037226127467012,-0.5061837306090233
1.7203011960348775,10.946209924082702,-0.03450516206222814,1.0202725560145833,-0.491528242644039
1.714157336352961,10.76406807066132,-0.033759945514622455,1.0035258153341005,-0.47735270881183517
1.7081463460008972,10.58492254503426,-0.0330288361749748,0.9869800249665603,-0.46363638192590517
1.702271887453596,10.408964288097334,-0.03224292546170552,0.9681117187770812,-0.5004931186216541
1.6965344328882714,10.236393085949,-0.03150656970856729,0.94934608287107,-0.5385321623622253
1.6909252151774394,10.067190686409408,-0.030818071522899816,0.9306805786799646,-0.5776499177309119
1.685435773122768,9.901339285111032,-0.03017572908456009,0.9121127690797565,-0.6177441933726924
1.6800579520493315,9.738821507456713,-0.029577838398066814,0.8936403159682198,-0.6587139732197356
1.674783904020964,9.57962039098079,-0.029022695250463724,0.8752609782086981,-0.7004591885938227
1.6696060877281984,9.423719368047198,-0.028508596891376643,0.8569726099423269,-0.7428804901670157
1.6645172680975344,9.271102248817765,-0.028033843449333455,0.8387731592735743,-0.7858790187356646
1.6595105156684502,9.121753204422799,-0.027596739096045354,0.8206606673371788,-0.8293561737279833
1.6545792057826874,8.975656750264232,-0.02719559296798823,0.8026332677580106,-0.8732133783214066
1.6497170176288658,8.83279772937929,-0.026828719852250694,0.784689186519124,-0.917351839992127
1.6449179331844546,8.693161295789405,-0.026494440641204778,0.7668267422573681,-0.9616723052548947
1.640176236096519,8.556732897755303,-0.0261910825580793,0.7490443470104526,-1.0060748072754897
1.6354865105425267,8.423498260854366,-0.0259169791529457,0.7313405074443989,-1.0504584049503412
1.6308436401128281,8.293443370790737,-0.025670470065929846,0.7137138265959383,-1.0947209119465235
1.6262428067572499,8.166554455841734,-0.02544990055160672,0.6961630061707476,-1.1387586140797024
1.6216794898396119,8.042817968836268,-0.025253620755480256,0.6786868494455618,-1.1824659732763367
1.6171494653459049,7.922220568551438,-0.025079984730155904,0.6612842648303098,-1.2257353162183493
1.6126488052944197,7.804749100402702,-0.024927349175232413,0.643954270155631,-1.2684565056023063
1.608173877399357,7.690390576290149,-0.024794071881019737,0.6266959977616464,-1.3105165917597834
1.6037213450433967,7.579132153448775,-0.024678509851873694,0.6095087004758595,-1.3517994421800328
1.5992881676195139,7.470961112133583,-0.024579017080159058,0.5923917585818069,-1.3921853462497156
1.594871601308011,7.365864831950596,-0.02449394193653683,0.5753446878958157,-1.4315505922772591
1.590469200361453,7.263830766622121,-0.024421624136333434,0.5583671490872525,-1.469767013602221
1.5860788189780244,7.164846416948421,-0.02436039123509263,0.5414589583983028,-1.506701500305151
1.581698613852963,7.068899301697709,-0.024308554598922536,0.5246200999429376,-1.5422154727352195
1.577327047508248,6.975976926121593,-0.02426440478679994,0.5078507397916836,-1.5761643127687883
1.5729628925129175,6.886066747753187,-0.024226206272427844,0.4911512420794824,-1.6083967484141104
1.5686052367203853,6.7991561390992565,-0.02419219142237528,0.47452218740862545,-1.6387541871040388
1.5642534896652363,6.715232346785282,-0.02416055363483568,0.4579643938577469,-1.667069992797978
1.5599073902804785,6.634282446652474,-0.024129439529139457,0.44147894095120893,-1.693168701888021
1.5555670161174753,6.556293294237701,-0.02409694005978598,0.4250671969907066,-1.716865172933541
1.5512327942752178,6.481251469990376,-0.02406108040974029,0.40873085020181127,-1.7379636655229718
1.5469055142737538,6.409143218494133,-0.024019808495415823,0.39247194420089165,-1.7562568442112285
1.5425863431391371,6.339954380865496,-0.023970981889212355,0.3762929183395097,-1.771524704694847
1.538276843005106,6.273670319397329,-0.023912352933358878,0.3601966535290111,-1.7835334214375713
1.533978991580982,6.210275833403571,-0.02384155177912876,0.34418652417942813,-1.7920341192420812
1.5296952058876914,6.14975506510725,-0.023756067035211357,0.32826645689082573,-1.7967615763510956
1.5254283697266138,6.0920913943028765,-0.023653223643428326,0.3124409964911052,-1.797432874382465
1.5211818654226563,6.0372673204286045,-0.023530157511654406,0.29671537988970054,-1.7937460219607704
1.5169596104786254,5.98526433062198,-0.023383786310911238,0.2810956179616918,-1.7853785960481585
1.5127660999006045,5.936062752336053,-0.02321077566709857,0.26558858521528467,-1.771986470234278
1.5086064551160558,5.889641589207649,-0.023007499716776365,0.25020211621144284,-1.7532027362956828
1.5044864806275233,5.845978339170536,-0.02276999460025092,0.23494510642313654,-1.7286369794964682
1.5004127298569236,5.805048794405966,-0.022493902850857533,0.21982761318319888,-1.6978751470192588
1.4963925820900732,5.766826823792115,-0.022174405669701948,0.2048609491929355,-1.6604803634586132
1.4924343331126755,5.73128414030651,-0.021806138523606404,0.190057756202688,-1.6159952126295383
1.4885473031759187,5.698390058722115,-0.021383082995912076,0.17543203917948524,-1.5639462414337986
1.4847419675699276,5.6681112534435165,-0.0208984237373228,0.16099913058271678,-1.5038517748774314
1.4810301176909884,5.640411533161995,-0.02034435269533487,0.14677553921198086,-1.4352345896418515
1.4774250646766234,5.615251659037089,-0.019711791908720497,0.13277861773143468,-1.357641596687565
1.4739419044454387,5.592589247205751,-0.01898998843777549,0.11902595817230947,-1.2706734136014288
1.4705978739069154,5.572378814921045,-0.018165906434706065,0.10553440054664077,-1.174027440698734
1.4674128457011797,5.554572051025705,-0.0172232958512457,0.0923185316237978,-1.067558413860557
1.4644100369805488,5.539118409508756,-0.016141245489097313,0.07938859634228237,-0.951359487905005
1.4616170526870982,5.525966122938247,-0.014891913327021286,0.0667479211078028,-0.8258628803658362
1.4590674570936057,5.515063674493057,-0.013436926600673743,0.05439039494985156,-0.6919489970760964
1.4568031982466825,5.506361586121898,-0.01172150503180403,0.042299475840787526,-0.5510336759890353
1.4548784984300733,5.499813964159877,-0.009664048486077064,0.030451879292780024,-0.4050760037250489
1.4533666900967588,5.495378358460176,-0.007133821884083215,0.01883262848166161,-0.25642766773172443
1.4523751965429024,5.493009990066664,-0.0038827731587684914,0.007482575890696411,-0.10745621884199869
