x,y,v_x,v_y,omega
2.375,32.48,0.0,3.1794871794871797,-5.551020408163265
2.3738127835613083,31.882927700195147,-0.012497015144121023,3.105484397405978,-5.201637320022358
2.370423891607788,31.29963112663171,-0.023175531735040847,3.034479534840733,-4.8851134971395265
2.3651547595677083,30.72955951761177,-0.032289016055274906,2.966274244316533,-4.597429898885911
2.358282315669886,30.172198031392313,-0.04005249865864054,2.9006887685198675,-4.33515092582952
2.350045670846198,29.627064439327015,-0.04664902580123819,2.837559569009579,-4.095327535452972
2.3406516969371265,29.093706232279523,-0.052234910083720464,2.7767373472798154,-3.8754184311327466
2.3302796978107363,28.571698073304695,-0.0569440280888072,2.7180853787710024,-3.6732255765571047
2.319085336307105,28.0606395429137,-0.06089135615994408,2.6614780990289217,-3.486841145495255
2.307203947624245,27.560153133483908,-0.064175893133317,2.606799894968881,-3.314603659251393
2.294753344527166,27.069882457336213,-0.06688308683594156,2.553944064480536,-3.1550615501470474
2.281836199888598,26.58949063925085,-0.06908685672793004,2.502811915365395,-3.0069427604417456
2.268542076306924,26.11865886914282,-0.07085128623706147,2.453311980508601,-2.869129271798514
2.2549491599627207,25.657085094575073,-0.07223204370191684,2.405359330730849,-2.740635682071119
2.241125745769549,25.20448283597791,-0.07327757938410086,2.358874970291925,-2.6205911194095624
2.2271315127150326,24.760580110036422,-0.07403013697923139,2.313785302776355,-2.508223919931545
2.2130186216672345,24.325118448832143,-0.07452661089232768,2.2700216572686704,-2.40284860303553
2.1988326625238743,23.897852004078167,-0.07479927482725503,2.227519866457396,-2.303854764250679
2.184613473163058,23.478546727243714,-0.0748764026550188,2.186219889694753,-2.2106975741853057
2.1703958490219804,23.06697961758254,-0.07478279883000961,2.146065475159738,-2.1228896273507103
2.1562101591332117,22.66293803110493,-0.07454025263071519,2.1070038561835083,-2.0399939292440776
2.14208288196685,22.266219044401005,-0.07416792806782731,2.068985477542032,-1.9616178462697307
2.1280370723654096,21.87662886796162,-0.07368269931575705,2.031963748135657,-1.8874078725710466
2.114092769140364,21.49398230427518,-0.07309943989524895,1.9958948169848307,-1.8170450919719598
2.100267351463233,21.118102246521484,-0.0724312724956062,1.9607373698961303,-1.750241233037897
2.086575850980253,20.748819214152995,-0.07168978521996609,1.9264524445090354,-1.686735231591454
2.073031225567741,20.38597092205989,-0.0708852191222667,1.8930032617341772,-1.6262902285174015
2.059644599792354,20.029401880369566,-0.07002663114496463,1.8603550718481676,-1.5686909418904817
2.046425476419849,19.678963022239962,-0.06912203593403635,1.828475013726582,-1.51374136177915
2.0333819227055527,19.334511357277176,-0.06817852947961123,1.7973319858817154,-1.461262723857578
2.0205207346815954,18.99590964844601,-0.06720239708835998,1.766896528130564,-1.4110917244704155
2.007847582215058,18.663026110552345,-0.06619920782256203,1.7371407128553598,-1.3630789452615375
1.9953671372352138,18.335734128562038,-0.06517389722842909,1.7080380449373853,-1.3170874600795304
1.9830831872067956,18.013911994185968,-0.0641308399128158,1.6795633695475585,-1.272991600755995
1.9709987356511278,17.697442659307605,-0.06307391330473942,1.6516927870667812,-1.23067586163822
1.9591160912809802,17.386213504959972,-0.06200655374944422,1.6244035744872285,-1.1900339255442367
1.9474369471121413,17.080116124675833,-0.06093180592254382,1.5976741127142682,-1.150967796177065
1.9359624507400295,16.77904612113933,-0.059852366415475325,1.5714838192488938,-1.1133870240533517
1.9246932668189656,16.482902915161247,-0.05877062222730365,1.5458130857835835,-1.0772080147252046
1.9136296326514985,16.19158956608413,-0.05768868479866542,1.5206432202913382,-1.0423534095491265
1.902771407682448,15.905012602799687,-0.05660842013870779,1.4959563932291124,-1.008751530520991
1.8921270732402091,15.623084182058363,-0.05543720556906962,1.4717111935216587,-0.9735825039795861
1.8817036360162986,15.345719484222116,-0.05428318626156621,1.447917204754629,-0.9399625073575021
1.871497771816021,15.072834263541374,-0.053146963215039894,1.4245588024110853,-0.9078054208276058
1.8615060545549542,14.804347177386958,-0.0520290079540872,1.4016210518459078,-0.8770308186357654
1.8517249793604245,14.540179658826915,-0.05092967830412003,1.3790896698387516,-0.847563532588072
1.8421509828472686,14.280255796265624,-0.04984923236067839,1.3569509887011462,-0.8193332534754861
1.8327804608909362,14.024502219678727,-0.04878784086387564,1.3351919227398708,-0.792274166757039
1.8236097841833727,13.772847993013293,-0.047745598163105724,1.3137999368962596,-0.7663246192157853
1.8146353118240808,13.525224512355447,-0.046722531934704555,1.2927630173968558,-0.7414268136489524
1.805853403169694,13.281565409497567,-0.04571861179568383,1.2720696442650457,-0.7175265289609489
1.7972604281398459,13.041806460564555,-0.04473375693955989,1.251708765556134,-0.6945728633000796
1.7888527761545792,12.805885499383677,-0.043767842905351295,1.2316697731899235,-0.6725179981212711
1.7806268638586862,12.573742335305425,-0.04282070757773296,1.211942480265349,-0.6513169812716217
1.7725791417708394,12.345318675203849,-0.04189215650486644,1.1925170997512389,-0.6309275273863801
1.7647060999798923,12.12055804940417,-0.04098196761036568,1.173384224455899,-0.6113098340528836
1.7570042729970403,11.899405741303184,-0.040089895367022184,1.1545348081860565,-0.5924264123515136
1.7494702438604195,11.68180872046429,-0.039215674492147114,1.1359601480128316,-0.5742419305180085
1.7421006475779977,11.467715578984027,-0.038359023217553814,1.117651867568893,-0.5567230695923963
1.7348921739851177,11.25707647094083,-0.037519646181184835,1.099601901306869,-0.539838390028025
1.7278415700846073,11.049843054749502,-0.03669723698208144,1.0818024796544867,-0.5235582083311225
1.7209456419299172,10.845968438256676,-0.03589148043571126,1.0642461150068354,-0.5078544828882692
1.7142012561050837,10.645407126423464,-0.03510205456253475,1.0469255885006585,-0.49270070821725165
1.7076053408494345,10.448114971451531,-0.034328632339036186,1.0298339375197056,-0.4780718169469441
1.7011548868696909,10.254049125218184,-0.03357088323721201,1.0129644438839467,-0.46394408889501154
1.6948469478774693,10.063167993894712,-0.03282847457564646,0.9963106226789171,-0.45029506666911173
1.6886849381983668,9.875633747541276,-0.03203478520438004,0.9777340757782933,-0.4796336654805755
1.6826692986115754,9.691618656017862,-0.0312877367618447,0.9592668876260512,-0.5104759983319489
1.6767912929537891,9.511102212573803,-0.03058600700432713,0.9409062012587973,-0.5427126600330847
1.67104243915922,9.334064442549519,-0.02992824346482254,0.9226492726810248,-0.5762363517385588
1.6654145146042318,9.16048588225496,-0.02931306764031443,0.904493467261689,-0.6109416403917011
1.6598995606960298,8.990347558495525,-0.02873907876181234,0.8864362565218327,-0.6467247219203323
1.6544898867820534,8.823630968671779,-0.028204857174780548,0.8684752153070918,-0.6834831871708889
1.6491780734517572,8.660318061380142,-0.02770896735465619,0.8506080193417097,-0.7211157895629701
1.6439569752980279,8.50039121744214,-0.027249960579336867,0.8328324431635735,-0.7595222134338272
1.6388197232016006,8.343833231289533,-0.02682637727779135,0.8151463584428097,-0.7986028420216296
1.6337597261984382,8.190627292631948,-0.026436749071288117,0.797547732689662,-0.8382585240071054
1.6287706729871594,8.040756968332154,-0.02607960052112019,0.7800346283607893,-0.8783903374948872
1.6238465331312129,7.894206184412084,-0.02575345059410582,0.7626052023767977,-0.9188993502680174
1.618981558008592,7.750959208109844,-0.025456813854536443,0.7452577060678303,-0.9596863750909285
1.6141702815604941,7.6110006299043995,-0.025188201388598317,0.7279904855684408,-1.0006517187670203
1.609407520889442,7.474315345420052,-0.024946121464582634,0.7108019826878512,-1.0416949235758646
1.6046883767570148,7.340888537117429,-0.024729079929389264,0.6936907362871173,-1.0827144996210911
1.6000082340315285,7.210705655671077,-0.024535580338887135,0.6766553842008123,-1.1236076465121023
1.5953627621367588,7.08375240092597,-0.024364123816582296,0.6596946657476855,-1.1642699626798032
1.59074791555417,6.960014702316101,-0.024213208631721845,0.6428074248825,-1.2045951404873296
1.58615993443314,6.8394786986175085,-0.024081329484382578,0.6259926140500439,-1.2444746451401398
1.5815953453664091,6.722130716895585,-0.023966976481207034,0.609249298812321,-1.2837973752246727
1.5770509623914806,6.6079572504919355,-0.023868633781199744,0.5925766633313468,-1.3224493025101176
1.572523888283066,6.496944935879171,-0.023784777886319722,0.5759740168030314,-1.3603130884330044
1.5680115162069548,6.3890805281923875,-0.023713875546429383,0.5594408009525749,-1.3972676744491903
1.5635115318120159,6.284350875223598,-0.023654381242403832,0.5429765987189078,-1.4331878431830543
1.5590219158445338,6.182742889639147,-0.02360473420477452,0.5265811442752992,-1.4679437470312733
1.5545409473778635,6.084243519150206,-0.02356335491807011,0.5102543345556565,-1.5014004005923112
1.5500672077606215,5.9888397143316645,-0.023528641052900513,0.4939962424816152,-1.5334171329993795
1.5455995853985232,5.896518393745023,-0.023498962758660126,0.47780713211461584,-1.5638469959449521
1.541137281498714,5.807266405975074,-0.023472657239328606,0.4616874759901192,-1.5925361229157406
1.5366798169212923,5.721070488137837,-0.023448022523007823,0.44563797492817697,-1.6193230349338301
1.5322270403009892,5.637917220357355,-0.023423310322286763,0.4296595806558571,-1.6440378879604007
1.5277791376230134,5.5577929756409254,-0.023396717866931892,0.41375352162235784,-1.6665016571190143
1.5233366434612854,5.480683864505341,-0.023366378572311056,0.39792133243641076,-1.6865252531175783
1.518900454115268,5.406575673620274,-0.023330351385765974,0.3821648874063971,-1.7039085668106866
1.5144718429139603,5.335453797638845,-0.023286608627998383,0.36648643871392567,-1.7184394389195357
1.5100524779932618,5.267303163280307,-0.023233022116196406,0.35088865979699363,-1.7298925537646805
1.5056444428969873,5.20210814461716,-0.023167347318274103,0.33537469455192526,-1.738028258828913
1.5012502604039075,5.139852468402367,-0.023087205240459485,0.3199482129722004,-1.7425913165766542
1.496872920045584,5.080519108158217,-0.02299006168926253,0.3046134738083086,-1.7433096019703804
1.492515909855752,5.024090165647397,-0.022873203466862165,0.28937539472665635,-1.7398927696429298
1.48818325298658,4.97054673827726,-0.022733710945475168,0.2742396302221502,-1.7320309303023649
1.4838795499478683,4.9198687709788835,-0.022568426304121907,0.25921265712917263,-1.7193933989796988
1.4796100273840875,4.872034891198577,-0.022373916472517442,0.24430186687403307,-1.7016276115397795
1.4753805945199185,4.8270222259118505,-0.022146429466102322,0.2295156624599458,-1.678358355325608
1.471197908707952,4.784806200126198,-0.021881842238809627,0.21486355633639811,-1.6491875318970963
1.4670694519514849,4.7453603173433585,-0.021575597302949563,0.2003562624303181,-1.6136947745317467
1.4630036209310142,4.708655924147887,-0.0212226239651613,0.1860057712062368,-1.5714393944345377
1.45900983406642,4.674661963834929,-0.02081723776741178,0.1718253899827991,-1.5219643463697894
1.455098660713983,4.643344728295226,-0.020353008047712774,0.15782972096142442,-1.464803210822677
1.4512819800834496,4.614667623932284,-0.019822577536850832,0.14403453549058273,-1.39949161304521
1.4475731814470278,4.588590977063035,-0.019217408109694568,0.13045648418573177,-1.3255850610279751
1.4439874236447392,4.5650719179561,-0.018527410861763106,0.11711255904515874,-1.2426858760662183
1.4405419822847556,4.544064400880238,-0.01774039292753874,0.10401919964811918,-1.1504826135940738
1.4372567297834264,4.525519439156774,-0.01684121234961036,0.09119092375674677,-1.0488058141714474
1.4341548202077763,4.509385653861219,-0.015810467394074598,0.0786383951438419,-0.9377033110395613
1.431263693681507,4.495610237627144,-0.014622443408760016,0.06636598626748887,-0.8175350459117281
1.4286165845225773,4.484140387823601,-0.013241863527341977,0.054369274822425984,-0.6890786819637231
1.4262548387565737,4.474925103273883,-0.011618618220066601,0.04263372043776023,-0.5536201067847948
1.424231604148352,4.467916859714212,-0.00967858818226482,0.031137264400871636,-0.41297731818673167
1.4226181924195147,4.463071875492236,-0.007304693173918115,0.01986256951466255,-0.26938308389942833
1.4215173935359036,4.460345575033397,-0.00428266349567437,0.008835330052063517,-0.12515578661040716
