x,y,v_x,v_y,omega
2.375,32.48,0.0,3.435897435897436,-6.530612244897959
2.3736438016730865,31.868850649896057,-0.015068870299039474,3.354650898590781,-6.11109834457579
2.369775810592056,31.272020722242072,-0.027908808379078644,3.276792742009073,-5.731983684893099
2.3637687278485306,30.68892116511997,-0.03883655543786546,3.202091226014262,-5.388215269534416
2.3559426556456016,30.119002597812198,-0.04811980237245791,3.1303372996276564,-5.075490489882329
2.3465731678539252,29.561751500760288,-0.05598561753506059,3.0613415565046753,-4.790129477577287
2.3358980085750543,29.01668690588052,-0.06262726334128163,2.9949317199372,-4.528971900629809
2.3241226778618,28.483357501993794,-0.06820974458376627,2.9309505454708513,-4.289292987187717
2.311425109334007,27.961339087824957,-0.07287435016949075,2.869254056405135,-4.068734792307044
2.2979596027063574,27.450232318489302,-0.07674239013772446,2.8097100473243537,-3.8652496349545435
2.2838601419356652,26.949660701734672,-0.0799182850921895,2.7521968055048758,-3.6770533153434917
2.2692432044525943,26.459268808247145,-0.08249213138637743,2.69660201102318,-3.502586239271985
2.25421014706364,25.97872066663462,-0.0845418396020052,2.6428217846715807,-3.340480970515404
2.238849238341034,25.50769831869547,-0.08613492398250198,2.5907598590967282,-3.1895350359757346
2.2232373947291353,25.04590051456853,-0.08733000503859682,2.5403268534248276,-3.048688043903444
2.2074416674850466,24.593041530574492,-0.08817807545127881,2.491439635397831,-2.9170023596383725
2.191520519406582,24.14885009516994,-0.08872356986499547,2.4440207579860895,-2.7936467281669044
2.1755249236745895,23.71306841057256,-0.08900527160158724,2.3979979597625634,-2.677882347442898
2.159499311734245,23.28545125937884,-0.08905708329112642,2.3533037201676863,-2.5690509876847236
2.1434823927162907,22.865765186959344,-0.08890868357503182,2.3098748622711396,-2.466564824897732
2.127507863262451,22.45378775164035,-0.08858608813429891,2.2676521968288075,-2.369897715613146
2.1116050236182033,22.049306835709583,-0.0881121301351202,2.226580202401918,-2.278577687300497
2.0957993133708226,21.652120011154594,-0.08750687261355526,2.1866067370979603,-2.192180457435325
2.0801127781456445,21.262033954782673,-0.08678796322175523,2.147682778145624,-2.11032382560211
2.0645644768522993,20.87886390800446,-0.0859709400376361,2.1097621860567495,-2.032662808703891
2.0491708376337012,20.50243317710725,-0.08506949572456537,2.072801490578901,-1.9588854104512776
2.033945969464135,20.132572670313365,-0.0840957061595081,2.0367596960198098,-1.8887089336967469
2.018901935328496,19.76912046832571,-0.08306022868092179,2.001598103843037,-1.8218767585660791
2.004048992059808,19.41192142541652,-0.08197247430449896,1.9672801507035325,-1.7581555212763633
1.989395801189672,19.060826798424326,-0.08084075758590352,1.933771260320832,-1.6973326384670677
1.9749496145543541,18.715693901294948,-0.07967242725096074,1.901038707783361,-1.63921413016739
1.9607164378796342,18.376385783040377,-0.07847398024592674,1.8690514950452393,-1.5836227014703703
1.9467011751254066,18.04277092719936,-0.07725116146771371,1.8377802365216205,-1.5303960488178021
1.9329077559940042,17.714722971069186,-0.07600905110342364,1.8071970538136723,-1.4793853617115587
1.9193392486840204,17.3921204431427,-0.07475214122973141,1.777275478702813,-1.430453994813065
1.9059979596955203,17.074846517331103,-0.07348440308693448,1.7479903636482943,-1.3834762889013676
1.8928855222558485,16.76278878268333,-0.07220934624275137,1.7193177991047237,-1.338336522136852
1.880002974731779,16.45583902742955,-0.0709300706913539,1.691235037048386,-1.294927975608763
1.8673508302185642,16.153893036280373,-0.06964931278881285,1.663720420164706,-1.2531520993019332
1.8549291383452913,15.85685040000709,-0.06836948580310762,1.6367533162051024,-1.212917766460796
1.8427375402053534,15.564614336412255,-0.06709271575175833,1.6103140570708523,-1.1741406059061754
1.830775317207777,15.277091521875604,-0.06582087311019938,1.5843838822252783,-1.1367424032134699
1.819041434547138,14.99419193272864,-0.06455560089690143,1.558944886074337,-1.100650562824002
1.8075345799046652,14.715828695772839,-0.06329833957501937,1.5339799689901419,-1.0657976241631142
1.796253197919111,14.441917947312287,-0.062050349153360086,1.5094727916826625,-1.032120825703124
1.7851955209014765,14.172378700122145,-0.06081272882035611,1.4854077326522368,-0.9995617116567308
1.7743659939142677,13.907135030442394,-0.05951534881529369,1.4617441526783508,-0.9660640436338848
1.7637678748019985,13.646113515743291,-0.0582415302099218,1.4384948995339124,-0.9339724639746161
1.7533969151815567,13.38924081805936,-0.056991354461654514,1.4156461858430966,-0.9032122268029643
1.7432488591502309,13.13644602885826,-0.05576482366418731,1.3931848052802276,-0.873713310090083
1.7333194566293255,12.88766056724241,-0.054561871012538905,1.3710981015625405,-0.8454100692342084
1.7236044749323287,12.642818083554562,-0.05338237006520318,1.3493739394135535,-0.8182409194538948
1.7140997087617311,12.401854368045754,-0.052226142941438146,1.32800067735097,-0.7921480443193599
1.704800988815224,12.16470726428928,-0.05109296757530788,1.3069671421654065,-0.7670771280205412
1.6957041891614106,11.931316587047327,-0.04998258413372896,1.2862626049674217,-0.7429771092136561
1.6868052335269883,11.70162404431812,-0.04889470069318631,1.2658767586904571,-0.7197999545043784
1.6781001006213145,11.475573163310795,-0.04782899825874359,1.2457996969464877,-0.6975004498183959
1.6695848286100925,11.253109220113053,-0.04678513519927951,1.2260218941395256,-0.6760360080819197
1.6612555188373648,11.034179172833024,-0.04576275116436205,1.206534186749699,-0.6553664917880961
1.6531083388839114,10.818731598011873,-0.04476147054067721,1.187327755707538,-0.6354540491623827
1.6451395250403107,10.6067166301176,-0.04378090549932931,1.168394109784377,-0.6162629627626451
1.637345384264215,10.398085903943258,-0.04282065867951277,1.1497250699305308,-0.5977595094596686
1.629722295683656,10.19279249974468,-0.04188032554892401,1.1313127544981203,-0.5799118308423713
1.622266711701345,9.99079089096373,-0.0409594964767518,1.1131495652902275,-0.5626898131805471
1.6149751587488401,9.792036894393192,-0.04005775855108106,1.095228174382419,-0.5460649761575428
1.6078442377340323,9.59648762264877,-0.03917469716900515,1.0775415116667002,-0.5300103696568863
1.6008706242206072,9.40410143882232,-0.03830989742460832,1.0600827530716217,-0.5145004779513811
1.5940510683738438,9.214837913198465,-0.03746294531720525,1.0428453094156434,-0.4995111307013397
1.5873823947033165,9.028657781924203,-0.03663342879976473,1.0258228158539437,-0.4850194202211194
1.580861501629664,8.845522907527993,-0.0358209386852632,1.009009121881714,-0.47100362452054073
1.5744853608995806,8.665396241191274,-0.03502506942677732,0.992398281859587,-0.4574431356706515
1.5682579423319778,8.488465429195866,-0.03416847021325169,0.9734996292005174,-0.49390057349139155
1.5621800393821366,8.314927066223024,-0.03336378478498583,0.9547044038310422,-0.5315730261628749
1.5562424678216007,8.144762766505693,-0.03260923255430151,0.9360100374726381,-0.5703561380720295
1.5504363640499559,7.977954597347402,-0.031903031575083486,0.9174140642861647,-0.6101470405736291
1.5447531851455332,7.814485060911817,-0.031243400696282685,0.8989141183314361,-0.6508441213434061
1.5391847085545307,7.654337076436402,-0.03062856142596558,0.8805079313954068,-0.6923467949966609
1.5337230314691597,7.497493962803723,-0.030056739522601184,0.8621933311898943,-0.7345552739517184
1.5283605699426153,7.3439394214035865,-0.02952616632789172,0.8439682399227316,-0.7773703384945315
1.5230900577863253,7.193657519218096,-0.029035079853107913,0.8258306732494013,-0.820693104969151
1.517904545292975,7.046632672060248,-0.028581725628562007,0.8077787396155816,-0.8644247909781644
1.512797397827288,6.9028496278944225,-0.028164357323517717,0.7898106400047029,-0.9084664764269702
1.5077622943254387,6.762293450164222,-0.027781237141471182,0.7719246681086169,-0.9527188591852064
1.502793225743308,6.624949501049496,-0.027430635993314703,0.7541192109438871,-0.9970820040670022
1.497884493493555,6.490803424569847,-0.02711083344838709,0.7363927499411028,-1.041455083748094
1.4930307079117289,6.35984112944654,-0.02682011746079064,0.7187438625400758,-1.085736110141237
1.4882267867923553,6.232048771628243,-0.02655678386558177,0.701171224329904,-1.1298216546406896
1.4834679540371694,6.107412736378372,-0.026319135636483908,0.6836736117797935,-1.1736065555206947
1.478749738459463,5.9859196198129005,-0.026105481893587166,0.666249905614349,-1.2169836106306258
1.474067972790896,5.867556209766978,-0.025914136646045013,0.648899094895923,-1.259843253369601
1.4694187929401616,5.752309465856538,-0.025743417251003917,0.6316202818867303,-1.30207320974475
1.4647986375566446,5.640166498586982,-0.025591642565852002,0.6144126877749853,-1.343558134118937
1.4602042479567525,5.5311145473446075,-0.025457130766284298,0.597275659362522,-1.3841792210349169
1.4556326684760044,5.425140957087599,-0.02533819679758426,0.5802086768264759,-1.4238137902634402
1.4510812473163468,5.322233153531574,-0.025233149420833035,0.5632113626849171,-1.462334841963354
1.4465476379656268,5.222378616599478,-0.02514028780938723,0.5462834921161489,-1.4996105785641642
1.4420298012748396,5.1255648518766606,-0.02505789764380625,0.5294250048040593,-1.5355038896896314
1.4375260082888164,5.031779359778593,-0.024984246645338097,0.5126360185077993,-1.56987179614131
1.4330348439376313,4.941009602100372,-0.024917579478942492,0.49591684458352653,-1.6025648486642337
1.4285552117093443,4.853242965573116,-0.024856111946468657,0.4792680057193268,-1.6334264769397604
1.42408633944007,4.768466722002,-0.024798024378801343,0.462690256181987,-1.6622922840181424
1.4196277863749727,4.686667984503167,-0.024741454122280158,0.44618460491615525,-1.6889892812531926
1.4151794516740441,4.607833659291291,-0.024684486999148828,0.4297523418824542,-1.7133350587887801
1.4107415845597822,4.531950392395505,-0.02462514760376189,0.41339506807071574,-1.7351368868526211
1.4063147963306784,4.459004510598266,-0.024561388275168294,0.3971147296763675,-1.7541907436544255
1.4019000744953631,4.388981955799228,-0.024491076561666922,0.38091365697962604,-1.7702802667332567
1.397498799318163,4.321868211904782,-0.024411980962780917,0.36479460851421064,-1.7831756263994338
1.393112763108779,4.257648223235218,-0.02432175469703876,0.3487608211476021,-1.7926323228259364
1.3887441926382909,4.1963063033283206,-0.02421791719727368,0.33281606670683345,-1.7983899128787622
1.3843957751228149,4.137826032906837,-0.024097832974681214,0.31696471575408675,-1.800170679681625
1.3800706882880087,4.082190145677497,-0.023958687412055545,0.3012118090163593,-1.7976782682695782
1.375772635116769,4.02938040055772,-0.02379745893505135,0.2855631367589492,-1.7905963260676263
1.3715058839959986,3.979377438909797,-0.023610886851285075,0.27002532599575924,-1.7785872096105835
1.367275315127163,3.932160625442908,-0.023395433913555558,0.25460593474744553,-1.7612908522002537
1.363086474266922,3.8877078716864055,-0.023147242311345635,0.23931355143592303,-1.7383239358509572
1.358945635146239,3.845995441443378,-0.022862081251799178,0.2241578957088377,-1.7092795817783966
1.3548598723241037,3.8069977385534663,-0.02253528343859381,0.20914991417905698,-1.6737278766399175
1.3508371468387907,3.77068707885482,-0.02216166639821695,0.19430186025034646,-1.6312177004716613
1.3468864079457028,3.7370334507695837,-0.021735432413871547,0.17962734069671527,-1.5812805354679182
1.3430177156738634,3.706004272920392,-0.02125003727323157,0.1651413020720652,-1.5234372364375384
1.3392423912175049,3.677564163266478,-0.020698012241862733,0.15085991630474568,-1.4572091615424818
1.335573205835982,3.6516747432504246,-0.0200707142195022,0.13680030609583288,-1.3821356191291083
1.3320246248269698,3.6282945132566375,-0.019357963658409156,0.1229800271684607,-1.297800279877489
1.3286131326477064,3.607378852859746,-0.018547505000071872,0.1094161994636566,-1.20386994879643
1.3253576805673446,3.588880220087404,-0.017624184781726008,0.09612416467348174,-1.1001496042246972
1.322280322726466,3.572748643739736,-0.01656868011692624,0.08311557252282387,-0.9866571754937761
1.3194071454822753,3.5589326088150983,-0.015355511485192035,0.07039592663982278,-0.8637186355852907
1.3167696577440742,3.547380398017502,-0.013949907828154487,0.05796197111124791,-0.7320759908045467
1.3144069179945206,3.5380418156882136,-0.01230275605577466,0.04580005476974275,-0.5929843938854747
1.3123688947482424,3.5308698887521857,-0.01034194668065104,0.033888022297225776,-0.4482492593151367
1.310722161683693,3.5258214373913894,-0.007955087369897071,0.02220588171162792,-0.30012924000076513
1.309561346297995,3.5228536841354376,-0.00494286136008165,0.010769154465611884,-0.15102980941942032
1.309044403250337,3.521905319367029,-0.0008009502805624092,-0.00023176814996720037,-0.003010500494558893
