x,y,v_x,v_y,omega
2.375,32.48,0.0,2.41025641025641,-7.755102040816326
2.3735378510442353,31.979159567002846,-0.01392522815014055,2.3596524754307397,-7.335636298952741
2.3693359449251554,31.488753395605876,-0.026092925364906518,2.3108824902546985,-6.949680066156219
2.3627410618396985,31.008408872368193,-0.03671548497277619,2.2638272548660896,-6.593670210435724
2.354058383628259,30.53777717991021,-0.045976688469502654,2.218379339971826,-6.264503977923486
2.3435570377786883,30.076530995076464,-0.05403612914545923,2.1744414679686277,-5.959469121198381
2.33147479549024,29.624362497607496,-0.061032845030241686,2.1319251745929697,-5.6761862877421905
2.318022072744406,29.180981636378856,-0.06708832397769625,2.0907496942512136,-5.4125612116449675
2.30338535314009,28.746114610849823,-0.07230900558721785,2.050841025072906,-5.166744806699043
2.2877301280217543,28.319502533577346,-0.07678837649217275,2.012131139426887,-4.937099674724983
2.271203431368119,27.900900246072972,-0.08060873449483195,1.9745573129957186,-4.722171857655906
2.25393603272882,27.490075265339886,-0.08384268111753822,1.9380615511289132,-4.520666902487953
2.236044340262514,27.08680684244078,-0.08655438999014002,1.902590095529244,-4.331429493838471
2.2176320569555257,26.690885117652837,-0.08880068912403055,1.868092997689257,-4.153426053327001
2.1987916258752973,26.302110359342638,-0.09063198783052713,1.8345237481221441,-3.9857298183401926
2.179605494454893,25.92029227577767,-0.09209307331618109,1.801838952496604,-3.827508002335819
2.1601472230237535,25.545249390786502,-0.09322379745657428,1.7699980474192623,-3.6780107101579906
2.140482458873927,25.176808475567096,-0.09405967063701537,1.7389630499084379,-3.536561338976769
2.120669793909106,24.814804030084133,-0.0946323766469919,1.7086983356435954,-3.402548241529447
2.1007615212328457,24.45907780844078,-0.09497022026977424,1.679170441912127,-3.275417465688573
2.080804303787914,24.109478383395498,-0.09509851730099998,1.6503478918524603,-3.154666414825606
2.060839766278482,23.76586074585095,-0.09503993516978117,1.6222010371432636,-3.0398382983804515
2.0409050200251038,23.428085935693353,-0.09481479105286862,1.5947019167386058,-2.930517262577407
2.0210331290667733,23.096020700825854,-0.09444131331218415,1.5678241296185347,-2.826324108202657
2.0012535246923773,22.769537181633815,-0.09393587120587328,1.5415427198294713,-2.726912516452099
1.9815923746213928,22.44851261845585,-0.09331317708921857,1.5158340723415757,-2.631965715606167
1.962072912232737,22.132829079921617,-0.0925864647075031,1.4906758184606663,-2.541193531117455
1.9427453439111328,21.822383973967593,-0.09148561454587016,1.465944238244322,-2.4468071130223517
1.923654107437686,21.517078429709315,-0.09033568520124097,1.4417276118345002,-2.3569203108365158
1.9048087061855616,21.216806353304904,-0.0891443267237536,1.4180064491599147,-2.2712633293418594
1.8862171226432412,20.92146564199175,-0.08791837367930024,1.394762230012948,-2.1895856555178175
1.8678859807613302,20.630957986932923,-0.08666392995794646,1.3719773419759107,-2.1116544582041126
1.8498206914580124,20.345188688586767,-0.08538644435936654,1.3496350232255805,-2.037253138850457
1.832025583107558,20.064066483623698,-0.08409077802591262,1.3277193097560247,-1.9661800173570896
1.8145040186255192,19.787503382505207,-0.0827812646601719,1.3062149866105677,-1.8982471388893494
1.797258500579643,19.51541451692149,-0.0814617643481717,1.2851075427581833,-1.8332791891857232
1.7802907655936275,19.24771799635659,-0.0801357117091204,1.2643831292884609,-1.771112507306337
1.7636018691685929,18.984334773114792,-0.07880615900549513,1.2440285206334156,-1.7115941860168336
1.747192261922005,18.725188515200067,-0.07747581477153022,1.2240310785544226,-1.6545812510956526
1.7310618581335206,18.470205486492656,-0.07614707845213234,1.2043787186590227,-1.599939911811913
1.7152100973899531,18.219314433713706,-0.07482207148660588,1.1850598792357416,-1.5475448756643004
1.6996360000356372,17.972446479711294,-0.07350266522116623,1.1660634922157818,-1.4972787212138752
1.6843382170584569,17.72953502263931,-0.07219050599007525,1.1473789560888437,-1.4490313234986743
1.6693150749745147,17.49051564063523,-0.07088703766651616,1.1289961106166904,-1.4026993270966102
1.654564616214747,17.2553260016342,-0.06959352195031947,1.110905213202657,-1.358185662415201
1.6400846354638403,17.023905777985146,-0.06831105662974353,1.0930969167883242,-1.3153991012404163
1.625872712354759,16.79619656556055,-0.06704059202817522,1.0755622491602332,-1.2742538479796395
1.6119262408803443,16.572141807074928,-0.06578294582339204,1.0582925935599512,-1.2346691633916653
1.598242455846203,16.351686719348614,-0.06453881640652437,1.0412796705001846,-1.1965690179152046
1.5848184566558958,16.134778224272797,-0.063308794929735,1.024515520698059,-1.1598817719912555
1.5716512286898356,15.92136488324985,-0.06209337617559853,1.0079924890442864,-1.1245398810280367
1.558737662512867,15.711396834899151,-0.06089296836695903,0.9917032095337893,-1.0904796228835325
1.5460857917383177,15.504986484271527,-0.059601039009701845,0.974109653586451,-1.0879889722871394
1.5337009000611759,15.302257502045826,-0.058350310296410364,0.9566425580868955,-1.0879638252401758
1.5215743722792523,15.103183720733405,-0.057140430483814904,0.9392982163171313,-1.0902668221187073
1.5096976779690796,14.907739734603737,-0.05597094389878245,0.922073080155908,-1.094764832719374
1.4980623923182081,14.71590086712619,-0.05484130039523052,0.9049637529635953,-1.1013286395262885
1.4866602150515726,14.527643139846752,-0.05375086404891904,0.8879669830310684,-1.1098326336397422
1.4754829876061484,14.34294324258423,-0.05269892114559789,0.8710796575643963,-1.1201545220515292
1.464522708696944,14.161778504836008,-0.05168468751349161,0.8542987971805874,-1.132175045012005
1.4537715484071003,13.984126868288286,-0.05070731524692209,0.837621550892957,-1.1457777022852678
1.4432218609254566,13.809966860329897,-0.04976589886397073,0.8210451915678837,-1.1608484871315297
1.4328661960463092,13.639277568472295,-0.04885948093743454,0.8045671118378428,-1.1772756268901634
1.4226973095382132,13.472038615581159,-0.047987057234906885,0.7881848204586773,-1.19494932906335
1.4127081724814863,13.308230135827273,-0.04714758140058769,0.7718959391021335,-1.2137615318188804
1.4028919796675452,13.147832751265884,-0.04633996920837451,0.7556981995777707,-1.233605657841608
1.3932421571473135,12.990827548954663,-0.04556310241288106,0.7395894414814982,-1.2543763704663444
1.3837523690106246,12.837196058520625,-0.04481583222225147,0.7235676102712287,-1.2759693310206286
1.3744165234738221,12.686920230085928,-0.044096982413963336,0.7076307557735114,-1.2982809562936881
1.365228778348573,12.53998241246121,-0.04340535211221946,0.6917770311285554,-1.3212081750279434
1.3561835459612757,12.396365331513305,-0.04273971824299455,0.6760046921848326,-1.3446481823013783
1.347275497589329,12.256052068611254,-0.04209883768030716,0.6603120973585007,-1.3684981906328322
1.3384995674779423,12.119026039050997,-0.04148144909480601,0.6446977079772692,-1.3926551765975044
1.3298509564990943,11.985270970354406,-0.040886274513270614,0.6291600891331176,-1.4170156216864935
1.3213251355127151,11.854770880332708,-0.040312020595103804,0.6136979110735178,-1.4414752460817963
1.3129178484891513,11.727510054797495,-0.03975737962931296,0.5983099511666045,-1.4659287339467388
1.3046251154515283,11.603473024794376,-0.03922103025281005,0.5829950964821541,-1.4902694487512824
1.296443235296735,11.482644543224826,-0.03870163788807753,0.5677523470373723,-1.5143891370621962
1.2883687885544788,11.365009560710632,-0.038197854895315964,0.552580819764454,-1.5381776191302008
1.2803986401452079,11.250553200542459,-0.03770832043107331,0.5374797532657788,-1.5615224645007335
1.2725299421997336,11.139260732539132,-0.03723166000201544,0.5224485134325607,-1.5843086507635202
1.264760137006139,11.031117545627254,-0.036766484698886305,0.5074866000138974,-1.6064182034410397
1.2570869601531198,10.926109118931056,-0.03631139009177257,0.4925936542355985,-1.6277298149009507
1.2495084439433195,10.824220991140205,-0.03586495476346949,0.47776946758201366,-1.6481184400680284
1.2420229211555933,10.725438727897803,-0.035425738452969514,0.4630139918694395,-1.6674548666150488
1.2346290292415754,10.629747886922068,-0.034992279775773724,0.4483273507566033,-1.6856052572406708
1.2273257150495356,10.537133980542723,-0.034563093481748706,0.43370985285620645,-1.7024306616117726
1.220112240177482,10.447582435296521,-0.03413666720447661,0.41916200663143005,-1.7177864955805213
1.2129881870679413,10.36107854818557,-0.03371145764829186,0.40468453728238174,-1.7315219854144352
1.2059534659690976,10.27760743915676,-0.033285886150218984,0.39027840584913764,-1.743479575045198
1.1990083229012582,10.197153999310768,-0.03285833354348868,0.3759448307793618,-1.7534942948108783
1.1921533487843337,10.119702834295005,-0.032427134236746286,0.361685312227918,-1.7613930909227111
1.1853894899016546,10.045238202277119,-0.03199056940781594,0.347501659371001,-1.766994116051774
1.1787180598986757,9.973743945835604,-0.0315468591919837,0.3333960210243741,-1.7701059831699948
1.1721407535428328,9.905203417043936,-0.031094153720807302,0.319370919848669,-1.7705269873270135
1.1656596625043305,9.83959939496825,-0.030630522836357723,0.30542929039596395,-1.7680443037244657
1.1592772934587494,9.77691399475188,-0.030153944264414916,0.2915745211885242,-1.7624331757157081
1.152996588863744,9.71712856743213,-0.029662289973733772,0.2778105009043348,-1.7534561138447236
1.1468209508276683,9.660223589639628,-0.02915331036984331,0.26414166854807486,-1.7408621376260422
1.1407542685735488,9.606178542389063,-0.028624615859867482,0.25057306717158573,-1.7243861066888313
1.1348009501162002,9.554971778313096,-0.028073655162499708,0.23711040021859367,-1.703748208873688
1.1289659589268333,9.506580376963583,-0.027497689498137856,0.22376008882437273,-1.6786537022462247
1.1232548565786062,9.460979988271667,-0.026893761437357385,0.21052932728911256,-1.6487930490213192
1.1176738526796683,9.418144665014054,-0.02625865664776444,0.19742613230721648,-1.6138426364603198
1.1122298638557488,9.378046686309794,-0.02558885596099356,0.18445937916192293,-1.5734663586965856
1.106930584217202,9.340656375953039,-0.024880473929930418,0.1716388147119257,-1.5273184414940781
1.1017845707514746,9.305941922019215,-0.024129178124614764,0.15897503227685514,-1.4750480377704773
1.0968013485999024,9.273869207980486,-0.02333008046178785,0.14647938713963551,-1.416306313949331
1.0919915434816216,9.24440167090198,-0.02247758733136177,0.13416382313185898,-1.3507569908646673
1.0873670520335337,9.217500209524488,-0.021565188364714057,0.12204057093949991,-1.2780915909013595
1.0829412661671889,9.193123174345057,-0.020585153219522607,0.11012166886460664,-1.1980509378351267
1.078729375618361,9.171226482760368,-0.019528090102647652,0.09841825098959116,-1.1104546539114655
1.0747487850089488,9.151763913075918,-0.01838229665365819,0.0869395555289797,-1.0152402672756558
1.0710196998746813,9.134687636845353,-0.01713279986317501,0.07569164666687087,-0.9125126250803748
1.067565963220921,9.11994903917321,-0.015759930172637136,0.06467595021068445,-0.8026018280366871
1.0644162659472667,9.107499831851051,-0.014237186719306995,0.053887929047965924,-0.6861228148265752
1.0616059255352035,9.097293352484922,-0.012527960062247098,0.043316636343744434,-0.5640212631509864
1.0591795744277583,9.089285715352872,-0.010580145722944407,0.032946574437681134,-0.43757969681172837
1.0571954919815116,9.083436045025085,-0.008315877574644172,0.02276457154123196,-0.30834967351283116
1.0557336734398581,9.079704032912566,-0.005606203774437046,0.012778400958951235,-0.17797946736217837
1.0549165244254681,9.078038986493095,-0.0021761677911825215,0.003079183988405511,-0.04793874450773436
