x,y,v_x,v_y,omega
2.375,32.48,0.0,3.435897435897436,-5.673469387755102
2.3735255100393835,31.801631805998674,-0.014744899606163216,3.347784504115784,-5.271952475363933
2.3693411398229327,31.140481712627043,-0.02709880255834831,3.2637164296005228,-4.913264057467075
2.36288774083604,30.49577057698376,-0.03743518731058035,3.1833949268323103,-4.5915129547946
2.3545378015693714,29.866775815428692,-0.04606420535610096,3.106552688718382,-4.3017647490399495
2.344606928988607,29.252825642837227,-0.053244520451543625,3.0329490371962735,-4.03986480987953
2.333363206435266,28.653294102802896,-0.05919270508186462,2.962366363147034,-3.8022979355582667
2.3210348609392457,28.06759674843527,-0.06409074987834151,2.8946071805292113,-3.5860762246883215
2.3078165757035256,27.495186863919653,-0.06809210247886088,2.8294916646269646,-3.3886489051328237
2.293874710313398,26.935552139813247,-0.07132655142241323,2.766855576437115,-3.2078293750664755
2.279351635515519,26.388211732321896,-0.07390419655637508,2.706548498476367,-3.041735834128112
2.264369346625895,25.852713650040613,-0.07591869233986706,2.6484323243364654,-2.8887427161239576
2.249032486488978,25.32863242191076,-0.07744990902930267,2.592379956962074,-2.7474407597336423
2.2334308830531753,24.815567008202663,-0.0785661253287261,2.538274180118872,-2.616604026566831
2.217641686314354,24.31313892271833,-0.0793258420594836,2.4860066747244542,-2.4951625367149104
2.201731173320846,23.820990539521667,-0.07977928787560107,2.43547715724218,-2.3821794693214446
2.1857562771670014,23.33878356163521,-0.07996967366284269,2.3865926216223836,-2.2768320904511503
2.169765885699365,22.866197632510122,-0.07993424101352084,2.339266669628528,-2.178395737898025
2.1538019474653023,22.402929073843783,-0.07970514132710337,2.2934189170348693,-2.0862303237946596
2.1379004158229447,21.948689735610955,-0.07931017509647448,2.248974465293432,-1.999768919357444
2.122092056774767,21.503205946085124,-0.07877341538530473,2.205863429964851,-1.9185080681309985
2.1064031417294924,21.06621755123043,-0.07811573506743769,2.1640205185821113,-1.8419995394516904
2.0908560428384577,20.637477034198426,-0.07735525384291254,2.123384651737903,-1.7698432861711701
2.0754697456360383,20.216748706813817,-0.07650771818128176,2.0838986221081806,-1.7016814127555135
2.0602602913151795,19.803807965914295,-0.075586825027303,2.045508786887066,-1.6371929938555905
2.0452411589899664,19.398440608251292,-0.07460449822482973,2.008164789742975,-1.576089610999225
2.0304235966590727,19.000442198383276,-0.07357112508410837,1.9718193089371878,-1.5181114974876664
2.0158169082239845,18.609617484620223,-0.07249575926677361,1.9364278286933136,-1.4630241999085842
2.001428702783591,18.225779858622456,-0.0713862951371614,1.9019484312843769,-1.4106156797090907
1.9872651114813806,17.84875085473144,-0.07024961788494169,1.8683416076257988,-1.3606937906411638
1.9733309763900755,17.47835968552516,-0.06909173302810848,1.8355700844369935,-1.3130840781035686
1.9596300152543096,17.114442810454506,-0.06791787832955143,1.8035986662695687,-1.2676278548620759
1.9461649653530841,16.756843534737293,-0.06673262068270225,1.7723940909025604,-1.2241805146562765
1.9329377092723812,16.40541163596904,-0.06553994012432889,1.7419248967799699,-1.182610051056163
1.9199493849798397,16.060003016159307,-0.06434330280108434,1.7121613013173593,-1.142795753824239
1.9072004822558046,15.720479377123972,-0.06314572443926593,1.6830750890359787,-1.1046270591388077
1.8946909272483836,15.386707917360603,-0.061949825634944375,1.654639508597726,-1.0680025334789345
1.8824201566762429,15.058561048709365,-0.06075788008646367,1.626829177914662,-1.0328289738736365
1.8703871829948984,14.735916131258413,-0.059571856726982265,1.5996199965948446,-0.9990206096688239
1.8585906516645951,14.418655225092564,-0.05839345657604957,1.5729890650636296,-0.9664983930406424
1.8470288915057969,14.106664857609424,-0.05722414501193379,1.5469146097677797,-0.9351893672449714
1.8356999589979006,13.799835805239653,-0.05606518006703011,1.5213759139299308,-0.9050261030909224
1.824601677264769,13.498062888509232,-0.05491763726428332,1.4963532533742663,-0.8759461954034331
1.8137439350361524,13.201246859309368,-0.053659785021885155,1.4718070386243751,-0.8444182261895706
1.8031351551505452,12.90929200763981,-0.05242801383418625,1.4477414780712266,-0.8143322990678136
1.7927701221077395,12.622103920969892,-0.05122231659387269,1.4241393886279616,-0.7856053680785706
1.7826436307463565,12.339591544690116,-0.050042597019955976,1.4009843741697874,-0.7581600770438118
1.7727505027585777,12.061667029252138,-0.04888868285783219,1.3782607802099835,-0.7319243078236736
1.7630856007312603,11.788245586062725,-0.047760337415340554,1.3559536516841366,-0.706830769221388
1.7536438400254317,11.519245351534842,-0.046657269642945566,1.3340486935946971,-0.6828166224574265
1.74442019876721,11.254587258746323,-0.04557914293927215,1.3125322342904842,-0.6598231395845056
1.735409726189286,10.994194916199675,-0.044525582839967395,1.2913911911759892,-0.6377953916115705
1.7266075495325164,10.737994493215723,-0.043496183727727955,1.2706130386635213,-0.6166819634541031
1.718008879691356,10.485914611529608,-0.04249051468387862,1.2501857781976098,-0.5964346931361973
1.709609015764294,10.237886242690262,-0.04150812458674009,1.230097910195855,-0.5770084329420319
1.7014033486507336,9.993842610894301,-0.04054854654886293,1.2103384077637394,-0.5583608304551801
1.6933873638184718,9.75371910091263,-0.03961130177375676,1.190896692052975,-0.5404521276375432
1.6855566433508185,9.517453170792948,-0.03869590290277492,1.1717626091438629,-0.5232449762889557
1.6779068673691286,9.284984269044358,-0.037801856914125874,1.1529264083420296,-0.5067042683966402
1.670433814914876,9.056253756031268,-0.03692866762840027,1.134378721788875,-0.49079698003322786
1.6631333643651978,8.83120482932306,-0.0360758378683806,1.1161105452932067,-0.47549202759524134
1.6560014934468488,8.609782452763845,-0.03524287131511098,1.0981132202989488,-0.4607601352926855
1.6490342789056238,8.391933289042896,-0.03442927409713878,1.0803784169105506,-0.446573712906412
1.6422278958813696,8.177605635561456,-0.0336345561454032,1.0628981179038666,-0.4329067429246804
1.6355786170325937,7.96674936340548,-0.03285823234235695,1.0456646036558803,-0.4197346762551348
1.6290828114493086,7.7593158592467155,-0.032099823490495664,1.0286704379317648,-0.40703433578438014
1.6227369433880114,7.555257970006295,-0.03135885712247454,1.0119084544724444,-0.3947838271254732
1.6165375708585281,7.3545299501260395,-0.030634868172360146,0.995371744330103,-0.38296245595481204
1.6104875619351053,7.157261670023107,-0.029865221061866745,0.9773110566992174,-0.4063951717007747
1.6045871443588084,6.963594246381721,-0.02913895470110251,0.9593631797146605,-0.431556131017047
1.5988277385575762,6.773505422899618,-0.02845510331121941,0.9415250551063598,-0.4583337463278916
1.5932009633194468,6.586973542915857,-0.02781264907007531,0.9237937447312338,-0.48661905930153504
1.5876986456224738,6.403977525835263,-0.02721052789965481,0.9061664260746958,-0.5163054958576048
1.5823128293591182,6.224496844411981,-0.026647634733899785,0.8886403881581202,-0.547288627163315
1.5770357830553619,6.048511502812193,-0.026122828303664882,0.8712130278397675,-0.5794659356237067
1.5718600066777833,5.876002015378287,-0.02563493547212102,0.8538818464992964,-0.6127365848837714
1.566778237615499,5.706949386018493,-0.025182755150721402,0.8366444470986341,-0.6470011928655901
1.5617834559181474,5.541335088147164,-0.024765061822794608,0.819498531614662,-0.6821616068616213
1.556868888865977,5.379141045101505,-0.024380608698912183,0.802441898841936,-0.7181206796957534
1.5520280149435486,5.22034961096066,-0.02402813052536933,0.7854724425665291,-0.7547820459464698
1.5472545672845726,5.064943551692497,-0.02370634606439225,0.7685881501151138,-0.7920498972010828
1.5425425366519314,4.912906026552324,-0.023413960262019386,0.7517871012866085,-0.8298287552760469
1.5378861740140324,4.764220569655947,-0.02314966611697113,0.7350674676771783,-0.8680232422953433
1.5332799927762155,4.618871071646918,-0.022912146261197454,0.7184275124131266,-0.9065378464661931
1.528718770724081,4.476841761374573,-0.022700074260147945,0.7018655903103259,-0.9452766823282136
1.5241975517342548,4.338117187495204,-0.0225121156381154,0.6853801484833716,-0.9841432441777348
1.5197116473073198,4.202682199903599,-0.02234692863123156,0.668969727432681,-1.0230401512824492
1.5152566379774157,4.070521930895993,-0.022203164667808917,0.6526329626433993,-1.0618688834018561
1.510828374653366,3.9416217759580228,-0.022079468572689668,0.6363685867363101,-1.1005295050149968
1.5064229799471927,3.8159673740625806,-0.021974478489042763,0.6201754322181083,-1.1389203765276121
1.5020368495475285,3.693544587352118,-0.0218868255075991,0.6040524348865103,-1.1769378505849102
1.49766665369781,3.5743394800679766,-0.021815132989585248,0.5879986379549123,-1.2144759514524541
1.493309338842296,3.4583382965753025,-0.021758015565553946,0.5720131969718404,-1.251426035245229
1.4889621295069553,3.3455274383158695,-0.02171407778785492,0.556095385622478,-1.2876764285829114
1.4846225304872123,3.235893439502288,-0.021681912409574407,0.5402446025133344,-1.3231120430273096
1.480288329420523,3.1294229413452648,-0.021660098257319405,0.5244603790569079,-1.357613962416166
1.4759575998288765,3.0261026645804456,-0.021647197659145256,0.5087423885912801,-1.3910589999472656
1.4716287047247496,2.9259193800322905,-0.021641753382122608,0.4930904568902888,-1.4233192215909933
1.4673003008838978,2.8288598769189015,-0.02164228502639508,0.477504574243601,-1.4542614321233556
1.4629713438998628,2.7349109285632416,-0.02164728481395653,0.4619849093130017,-1.483746619783729
1.4586410941484056,2.6440592551317543,-0.021655212700614674,0.44653182500187216,-1.5116293552860083
1.4543091238054928,2.5562914829706216,-0.021664490728511558,0.4311458966094405,-1.5377571406694839
1.4499753250802518,2.4715941000516644,-0.021673496523900472,0.41582793258012946,-1.5619697032983881
1.4456399198448286,2.389953406973536,-0.02168055583033048,0.4005789982011698,-1.5840982302535718
1.4413034708667387,2.3113554628885993,-0.021683933950569067,0.38540044264819806,-1.6039645384751406
1.4369668948765846,2.235786025640998,-0.021681825950971793,0.3702939298278046,-1.6213801764117362
1.432631477735602,2.16323048530662,-0.02167234545885318,0.35526147351597337,-1.6361454537567417
1.4282988920041486,2.093673790221171,-0.021653511855680645,0.34030547733851063,-1.6480483973162598
1.4239712172550738,2.027100364469522,-0.021623235635069217,0.3254287801779625,-1.6568636334658173
1.4196509635263377,1.9634940156905785,-0.021579301652291428,0.31063470761145695,-1.662351201458244
1.4153410983673298,1.902837831932441,-0.021519349937787785,0.2959271299699189,-1.664255307690613
1.4110450780060084,1.8451140661817576,-0.021440853675424632,0.28131052753690666,-1.6623030398621714
1.4067668832536455,1.7903040071043463,-0.02134109384820607,0.26679006323719223,-1.656203073121673
1.4025110608772549,1.7383878344963186,-0.021217129915702012,0.25237166284309615,-1.6456444197943942
1.398282771317108,1.6893444579958263,-0.02106576568576718,0.2380621021618143,-1.6302953029786762
1.3940878438244382,1.6431513378071294,-0.02088350924092836,0.22386909972515123,-1.6098022763916464
1.389932840368754,1.599784286636364,-0.020666525315915292,0.2098014119825113,-1.583789774367932
1.3858251300575384,1.5592172528781276,-0.02041057779624082,0.19586892559984723,-1.5518603655369179
1.3817729763927766,1.5214220865424295,-0.020110958851375208,0.18208273775713785,-1.5135961136591494
1.3777856405723503,1.4863682917964773,-0.019762399352888583,0.16845520970237143,-1.468561636226573
1.3738735054171354,1.4540227737821318,-0.01935895219926119,0.15499997044107347,-1.416309717816146
1.370048226675338,1.4243495932056511,-0.018893835218712934,0.14173183532371791,-1.3563907072228494
1.3663229219320738,1.3973097509239452,-0.01835921221392908,0.12866658749335613,-1.2883674301465433
1.3627124129647445,1.3728610373276204,-0.017745877459363412,0.1158205484698917,-1.211837989103479
1.3592335464757186,1.3509579984911504,-0.01704278743089638,0.10320983989482146,-1.1264695433173335
1.3559056328395485,1.331552092448927,-0.01623634893080501,0.09084922052742636,-1.032046746670003
1.3527510661699016,1.314592130927661,-0.015309317765662838,0.07875039468525119,-0.9285383955694396
1.3497962269088923,1.300025113095593,-0.014239074844430316,0.06691978363541423,-0.8161837328916848
1.347072829251526,1.2877975314549701,-0.012994901729234641,0.05535603277081806,-0.695593439386522
1.3446199794353655,1.2778571119800404,-0.011533596432369186,0.04404816197848274,-0.5678464323324547
1.3424874156556301,1.2701546471633627,-0.00979204136498353,0.032976486188310734,-0.43454058559326225
1.3407409318416676,1.2646449264998942,-0.007672796774642209,0.022120720446371925,-0.29772989281193046
1.3394729163392889,1.2612842364149124,-0.0050073582491453605,0.01148618040345979,-0.15967298161665383
1.3388319705236604,1.260015245935918,-0.001402099907139302,0.0012037243864994052,-0.022375712391259323
