x,y,v_x,v_y,omega
2.375,32.48,0.0,3.128205128205128,-6.408163265306122
2.3736613965302116,31.892497281125078,-0.014090562839879002,3.056034017846662,-6.010423198094883
2.3698374438860808,31.31843073207455,-0.026161570256232024,2.986771761632587,-5.6495492972905605
2.363885497005331,30.757266159213106,-0.036490502172716405,2.9202237421720785,-5.321085905713638
2.3561141444744247,30.208504560504984,-0.04531320867892591,2.8562141389660405,-5.0212186562407375
2.346790457598795,29.671678791816493,-0.05283086369612906,2.794583426175975,-4.746668427124048
2.3361460415950974,29.14635066765616,-0.05921562055331629,2.7351863018275178,-4.4946051031141305
2.3243821097902932,28.632108422928944,-0.06461524054988334,2.6778899584589753,-4.262577006077443
2.311673756215586,28.128564477338628,-0.06915690234177407,2.622572626702228,-4.048452817516244
2.2981735669440897,27.63535345558678,-0.07295035314765796,2.569122339106701,-3.8503735293056627
2.2840146832686674,27.152130425408814,-0.07609052764626398,2.5174358732929476,-3.666712496366558
2.2693134084315147,26.678569322420778,-0.078659733797445,2.467417842370624,-3.4960420735620144
2.2541714327018307,26.214361536205327,-0.08072948440975893,2.4189799072656712,-3.3371056325605233
2.238677738120974,25.75921463639523,-0.08236203749399432,2.3720400907353354,-3.188793996906466
2.222910233426412,25.312851220978303,-0.0836116961329737,2.326522176811269,-3.0501255225863964
2.206937160945967,24.875007871844367,-0.08452590892434127,2.2823551824933297,-2.9202291998059233
2.190818310180424,24.44543420486875,-0.08514620439716243,2.2394728909342208,-2.7983302689907434
2.174606067025697,24.023892003689745,-0.08550898670523276,2.197813437265853,-2.683737937289399
2.1583463228623345,23.610154427874203,-0.08564621501436888,2.1573189397398402,-2.575834856429549
2.142079263854755,23.204005287441806,-0.08558598506541683,2.1179351700748765,-2.474068082724637
2.125840057593718,22.805238376785205,-0.08535302820865541,2.079611257889335,-2.3779412884519155
2.1096594515555642,22.41365686192033,-0.08496914061401875,2.0422994248988116,-2.2870080331217846
2.093564295638958,22.029072715759604,-0.08445355324499332,2.005954745214096,-2.2008659351911715
2.077577999193099,21.651306196745836,-0.0838232514482577,1.9705349286150253,-2.119151610991487
2.0617209314051994,21.280185366735733,-0.08309325158226508,1.9360001241229243,-2.041536269183841
2.0460107726167633,20.9155456444952,-0.08227684092758848,1.9023127415668943,-1.967721866820139
2.030462823045011,20.557229391576975,-0.0813857861434908,1.869437289151246,-1.8974377477919855
2.0150902744628167,20.205085527704675,-0.08043051472171008,1.837340225294058,-1.8304376966587401
1.9999044496092995,19.858969173094977,-0.07942027321005045,1.80598982322908,-1.7664973510172481
1.9849150134402995,19.51874131541826,-0.07836326541100122,1.7753560470521041,-1.7054119240748655
1.9701301597641976,19.184268499333164,-0.07726677328480852,1.745410438054204,-1.6469941962102908
1.9555567763279347,18.855422536737372,-0.07613726288638052,1.7161260103225193,-1.5910727402930998
1.9412005910075476,18.532080236059443,-0.07498047732821896,1.6874771547083036,-1.53749035057779
1.927066301406082,18.2141231490775,-0.07380151847668225,1.6594395503647994,-1.4861026492507954
1.9131576898602722,17.901437333893906,-0.07260491884763268,1.6319900831467162,-1.43677684831975
1.8994777255982842,17.593913132822102,-0.07139470496276644,1.6051067702406958,-1.3893906476004036
1.8860286555677126,17.291444964055167,-0.07017445325377794,1.5787686904639144,-1.3438312521663607
1.8728120852605603,16.993931126087,-0.06894733945308736,1.552955919727304,-1.2999944948532345
1.8598290506956214,16.701273613947766,-0.06771618228311138,1.5276494712119808,-1.2577840513124077
1.8470800825747031,16.413377946396558,-0.06648348214760652,1.5028312398533603,-1.2171107367406824
1.8345652635042942,16.130153003287536,-0.06525145543564718,1.4784839507679448,-1.1778918748126264
1.8222937671625126,15.851514020935848,-0.06392219026731741,1.45455796872349,-1.137095612294953
1.8102730848674564,15.577379115968387,-0.06261130757537949,1.4310726098813817,-1.0980817151473687
1.7984996518420107,15.307666012555835,-0.06131956637668186,1.4080126891981073,-1.06075181137565
1.7869697734229448,15.042295256633206,-0.06004757487664137,1.385363688934808,-1.0250139861145013
1.77567965200871,14.781190092636713,-0.05879580843109282,1.363111721554598,-0.9907822900571889
1.7646254107867585,14.524276347056038,-0.05756462548418504,1.3412434950840781,-0.9579762903210505
1.7538031146027881,14.271482318352021,-0.0563542817155025,1.3197462807476696,-0.9265206596601341
1.7432087882926757,14.022738672824453,-0.055164942601471735,1.2986078827004313,-0.896344800370444
1.7328384327612367,13.777978346046378,-0.05399669457156847,1.277816609700339,-0.8673824996171722
1.7226880390596904,13.537136449510239,-0.05284955491839337,1.257361248574809,-0.8395716132531762
1.7127536006852608,13.300150182157505,-0.05172348060192024,1.2372310393486885,-0.8128537754993013
1.7030311243012588,13.066958746487725,-0.050618376071784835,1.2174156519121786,-0.7871741321246671
1.6935166390538174,12.837503268964923,-0.049534100217071,1.197905164117316,-0.7624810950028529
1.6842062046418578,12.611726724459697,-0.04847047254040047,1.178690041200853,-0.7387261161315933
1.675095918279528,12.389573864483843,-0.04742727864201672,1.159761116439716,-0.7158634793922536
1.6661819206750077,12.170991148991554,-0.046404275089775286,1.1411095729528036,-0.6938501084936902
1.6574604011359564,11.955926681536909,-0.04540119374234395,1.122726926569775,-0.6726453896954995
1.6489276018998273,11.744330147591874,-0.044417745585328725,1.1046050096937428,-0.6522110080401772
1.6405798217765533,11.536152755842373,-0.04345362413334818,1.0867359560904997,-0.6325107959441731
1.632413419181594,11.331347182292276,-0.04250850844516888,1.069112186542113,-0.6135105931058158
1.6244248146288927,11.129867517016564,-0.04158206579379169,1.0517263953074765,-0.5951781167850067
1.6166104927457505,10.931669213415361,-0.0406739540287594,1.0345715373367539,-0.5774828415966597
1.6089670038649508,10.73670903983026,-0.03978382366386653,1.0176408161906219,-0.5603958880381847
1.6014909652434999,10.544945033393358,-0.03891131971982893,1.0009276726188632,-0.5438899190418257
1.5941790619520315,10.356336455987726,-0.03805608334825888,0.9844257737561942,-0.5279390439062195
1.5870355124378364,10.171054957653414,-0.03713917469590058,0.9659057876576306,-0.5569045301160713
1.5800614379408193,9.989281974113439,-0.0362721357990144,0.9474940390789358,-0.587340393534613
1.5732475068812852,9.810997207252246,-0.03545345430134656,0.9291877173546835,-0.6191364893605659
1.5665846770310679,9.636180882252724,-0.03468159675357275,0.9109841247455384,-0.6521847205783463
1.5600641991761235,9.464813726469561,-0.03395501224584006,0.8928806729719491,-0.6863787932025679
1.5536776201255713,9.296876948923298,-0.03327213565471086,0.8748748801465995,-0.7216139750731201
1.547416785138044,9.132352220339822,-0.0326313905297843,0.856964368100519,-0.7577868571530859
1.541273839831681,8.97122165366071,-0.032031191642458524,0.8391468601006834,-0.7947951162755161
1.5352412316400719,8.813467784949946,-0.031469947216585796,0.8214201789599818,-0.8325372782706137
1.5293117108729728,8.659073554622104,-0.030946060858139925,0.803782245543615,-0.870912480381904
1.5234783314375981,8.508022288915921,-0.030457933198436732,0.7862310776793788,-0.909820231848061
1.5177344512737712,8.360297681535503,-0.030003963262899107,0.7687647894829159,-0.9491601714857514
1.5120737325541886,8.215883775378895,-0.029582549574813242,0.7513815911129531,-0.9888318210575597
1.5064901416994907,8.07476494427046,-0.029192091000955663,0.7340797889758345,-1.0287343331470964
1.5009779492567812,7.936925874609432,-0.02883098734335343,0.7168577864033908,-1.0687662321899967
1.495531729689682,7.802351546841933,-0.028497639678743164,0.6997140848334293,-1.1088251472238382
1.4901463611279753,7.671027216657599,-0.028190450444485777,0.6826472855279785,-1.1488075348211009
1.484817025125409,7.542938395804697,-0.02790782326673885,0.6656560918709895,-1.188608390556158
1.4795392064753314,7.418070832408965,-0.027648162523549017,0.6487393122945931,-1.2281209472288832
1.474308693135539,7.296410490671299,-0.027409872632160975,0.6318958638913813,-1.267236357922746
1.4691215763160947,7.177943529807546,-0.02719135704620153,0.6151247767796874,-1.305843361813252
1.4639742507869842,7.06265628208001,-0.026991016944434464,0.5984251992996497,-1.3438279304624685
1.4588634154663613,6.950535229754177,-0.026807249588437578,0.5817964041301721,-1.381072892136593
1.4537860743548925,6.841566980795868,-0.026638446321761447,0.5652377954309722,-1.4174575314660474
1.4487395378874326,6.735738243102578,-0.026482990177816426,0.5487489171299827,-1.452857161532144
1.4437214247800474,6.633035797038229,-0.026339253057816023,0.5323294624947428,-1.487142665212848
1.438729664458374,6.533446466012229,-0.026205592433483634,0.5159792851473701,-1.5201800023562684
1.4337625001626226,6.436957084811105,-0.026080347521793307,0.4996984117065853,-1.551829679080465
1.4288184928353425,6.343554465353581,-0.025961834870630737,0.4834870562673654,-1.5819461752320418
1.4238965259105791,6.2532253594970335,-0.025848343284769797,0.46734563695944953,-1.6103773257892615
1.4189958111375032,6.165956418474156,-0.025738128010769332,0.4512747948603189,-1.636963651791451
1.4141158955882087,6.081734148482656,-0.025629404087064152,0.4352754155765236,-1.661537636249852
1.4092566700185598,6.000544861887214,-0.02552033875134525,0.4193486538491762,-1.6839229404965788
1.4044183787729976,5.922374623421014,-0.02540904278089168,0.4034959615845097,-1.7039335566318432
1.3996016314496962,5.847209190693533,-0.02529356062227953,0.3877191197573784,-1.721372892242112
1.3948074165718918,5.775033948221775,-0.025171859144081564,0.3720202746821689,-1.7360327845378987
1.39003711754543,5.705833834104123,-0.025041814818675397,0.3564019791878409,-1.7476924427223235
1.3852925312226372,5.639593258351081,-0.024901199105461302,0.34086723926522294,-1.7561173200715443
1.3805758894399258,5.576296011778229,-0.02474766176518321,0.3254195667648075,-1.7610579213486444
1.3758898839531475,5.515925164259482,-0.024578711779852113,0.3100630386956883,-1.762248557451429
1.37123769526355,5.458462951042776,-0.02439169547906805,0.294802363585436,-1.7594060685761628
1.3666230259127015,5.403890645761262,-0.024183771371969837,0.2796429551673439,-1.7522285510570998
1.3620501389335946,5.352188418756324,-0.023951881039681884,0.26459101330568946,-1.7403941434302588
1.3575239022877894,5.303335179403515,-0.023692715231951673,0.24965361146072265,-1.7235599570796842
1.353049840311252,5.257308401360056,-0.023402673994757307,0.23483878899672875,-1.7013612802509097
1.3486341934606376,5.2140839301259945,-0.023077819169605034,0.22015564504601218,-1.6734112472775917
1.3442839880391255,5.17363577317127,-0.02271381684631069,0.205614428161627,-1.6393012561165343
1.3400071181545552,5.135935874337417,-0.022305866149165295,0.19122661219471543,-1.598602548682084
1.3358124430332083,5.1009538765821425,-0.021848608812380786,0.17700494312394718,-1.550869556258278
1.3317099041607787,5.06865688083483,-0.02133601089740385,0.1629634331635577,-1.4956458773877384
1.3277106688426774,5.039009214370228,-0.02076120297734703,0.14911726646382667,-1.4324741223884099
1.3238273101484648,5.011972230449704,-0.0201162569617331,0.1354825642785505,-1.3609113485402247
1.320074038604469,4.987504172865254,-0.019391864554013177,0.12207593661039676,-1.2805524239684567
1.316467009660076,4.965560155046479,-0.018576861176439596,0.10891372463988319,-1.191064333286886
1.3130247448144743,4.946092323042922,-0.017657505619366572,0.0960108227659856,-1.0922349518586867
1.309768726340889,4.92905029138414,-0.016616373049951328,0.08337898416856951,-0.9840396003237385
1.3067242604190716,4.9143819498964305,-0.015430636653389281,0.07102461043890997,-0.8667265297447558
1.3039217590143592,4.902034713366238,-0.014069378133056464,0.05894630040523258,-0.7409161981273038
1.3013986839165328,4.891957176108075,-0.012489307107222923,0.047133039154368755,-0.6076958787265556
1.2992025777196459,4.884100857383579,-0.010627600228428884,0.03556505268241791,-0.4686694704380897
1.2973960693452926,4.878421139021906,-0.008388277396342708,0.024221456387838874,-0.3258985217723247
1.296066373378264,4.87487516871651,-0.0056085222565891695,0.013104546826844449,-0.18166329179683366
1.2953505627514008,4.873409175635498,-0.0019263264472344208,0.0023269592890626106,-0.03801876739229784
