x,y,v_x,v_y,omega
2.375,32.48,0.0,3.282051282051282,-4.204081632653061
2.373840623584046,31.799594058620453,-0.011041680151943093,3.1980053025158144,-3.906001899260011
2.370551511688898,31.136435901517387,-0.020283195039938848,3.1177866698943317,-3.63977825492504
2.3654810434124003,30.489750708868,-0.02800697902194719,3.041119926766465,-3.401027335988505
2.358923322659742,29.858818645235853,-0.03444750433670505,2.967756869730189,-3.1860760124864824
2.351127311862023,29.242969510082336,-0.03980021754633451,2.8974729888747555,-2.9918308383090064
2.342304280612006,28.641578073464963,-0.04422865150144259,2.830064502719281,-2.815674200089558
2.3326339096347164,28.054059984757224,-0.047870119710839806,2.765345865925849,-2.655381160913138
2.3222693154465066,27.47986816486381,-0.05084030112925343,2.7031476568685684,-2.5090524679662884
2.3113412040114847,26.91848960964908,-0.053236950632861046,2.6433147737479166,-2.375060274248275
2.2999613179789846,26.36944254560279,-0.05514291634333019,2.5857048838357803,-2.25200392605565
2.2882253083094897,25.8322738891603,-0.05662860431852766,2.530187082283161,-2.1386737680078083
2.276215134821186,25.306556969305163,-0.05775400033198294,2.4766407258610093,-2.034021370469065
2.2640010796173744,24.791889479637728,-0.05857033494241228,2.4249544138288552,-1.9371349290661755
2.2516434411525874,24.287891631379278,-0.05912145996032272,2.3750250933944748,-1.847218850390675
2.2391939638640577,23.794204483082297,-0.05944499040662602,2.3267572713387006,-1.7635767420666852
2.22669704808156,23.310488426346716,-0.05957325514096753,2.2800623166191873,-1.6855971839117128
2.214190776759511,22.83642180976056,-0.05953409078331217,2.2348578413441924,-1.612741780817487
2.201707789011761,22.37169968571396,-0.05935150681430388,2.1910671495758076,-1.54453509534342
2.189276025133613,21.916032666773447,-0.05904624440615445,2.1486187450957708,-1.4805561349330991
2.1769193635050983,21.469145880022054,-0.05863624729398488,2.1074458906317606,-1.4204311297319827
2.164658166280259,21.030778009228612,-0.05813705960924612,2.067486212162934,-1.363827385698087
2.1525097479189887,20.600680415952237,-0.05756216287904295,2.0286813428501596,-1.3104480367314184
2.140488778285002,20.1786163317527,-0.056923262206543,1.990976601907317,-1.2600275509601717
2.1286076301160755,19.764360114593053,-0.056230529878473365,1.9543207043750614,-1.2123278717043982
2.116876679091741,19.35769656331206,-0.05549281321042625,1.9186654983010465,-1.1671350942291487
2.105304563416059,18.958420284730074,-0.054717812272260996,1.8839657262893006,-1.1242565961665552
2.0938984087484114,18.56633510854874,-0.053912232181528054,1.8501788087710378,-1.0835185531896572
2.082664023412913,18.18125354572622,-0.053081913870839374,1.817264646681488,-1.0447637827590768
2.0716060680642756,17.802996286465913,-0.05223194659236888,1.7851854415119333,-1.0078498680114025
2.0607282033583307,17.431391734357327,-0.05136676489282007,1.7539055309507938,-0.9726475214926624
2.0500332186473975,17.066275573560937,-0.05049023235416636,1.7233912385386692,-0.9390391547627699
2.039523144276814,16.707490366240158,-0.0496057140323425,1.6936107359449315,-0.9069176251487041
2.0291993496848737,16.35488517771957,-0.04871613922422916,1.6645339166320776,-0.8761851352995481
2.019062629192448,16.008315227092925,-0.04782405594173359,1.6361322798121722,-0.8467522648520374
2.0091132771010956,15.667641561222013,-0.04693167826162163,1.6083788237203156,-0.8185371165778182
1.99935115349153,15.332730750261135,-0.046040927543762565,1.5812479473356589,-0.7914645619562611
1.9897757419213504,15.00345460301471,-0.04515346836271176,1.5547153597731562,-0.7654655732833895
1.9803862000565737,14.679689900590198,-0.04427073987325627,1.5287579966507605,-0.7404766312569584
1.9711814041311795,14.36131814694696,-0.0433939832257366,1.5033539428086455,-0.7164391985262112
1.9621599880088463,14.048225335065897,-0.04252426555838815,1.4784823608205362,-0.693299251008666
1.9533322120330934,13.74030308996149,-0.041549791353543995,1.454110449697633,-0.6678018220685674
1.9447070155051356,13.437447010382805,-0.04059493748414921,1.4302331653374756,-0.6435020692355476
1.9362802652067415,13.139555119681265,-0.03965982726246287,1.4068324603914537,-0.6203293012295181
1.9280478112060193,12.846529142307244,-0.03874449655393767,1.3838911336468538,-0.5982177909305267
1.9200055038926562,12.558274331343213,-0.03784890643047279,1.3613927802962944,-0.5771063716330423
1.912149208525065,12.27469930611537,-0.036972954213252446,1.3393217456831712,-0.5569380705018833
1.9044748176060948,11.995715899183313,-0.036116483110275564,1.3176630822411692,-0.5376597754084987
1.896978261363723,11.72123901206394,-0.03527929062659933,1.2964025093718947,-0.5192219317583622
1.8896555165782212,11.45118647909695,-0.03446113590198709,1.2755263760279896,-0.5015782662990562
1.8825026139669077,11.185478938906058,-0.03366174611052306,1.255021625790022,-0.48468553523131586
1.875515644311169,10.924039712952457,-0.03288082203936949,1.2348757642442731,-0.46850329423791076
1.8686907634874108,10.666794690715832,-0.03211804294880389,1.215076828485484,-0.45299368830301523
1.862024196543508,10.413672221073547,-0.03137307080265138,1.195613358583908,-0.43812125942211444
1.8555122409448013,10.164603009480906,-0.030645553946936518,1.1764743708698115,-0.4238527705033994
1.8491512690983711,9.919520020584969,-0.029935130304778373,1.1576493329010342,-0.4101570439393448
1.8429377302509309,9.678358385931357,-0.029241430147036007,1.1391281399904982,-0.39700481348463396
1.8368681518439578,9.441055316448374,-0.028564078490802634,1.1209010931807892,-0.3843685882162907
1.830939140399427,9.207550019415361,-0.027902697171394583,1.1029588785621953,-0.3722225274759708
1.8251473820005055,8.977783619643233,-0.0272569066278567,1.0852925478390194,-0.36054232580473705
1.8194896424236853,8.751699084614192,-0.026626327437097804,1.067893500056629,-0.34930510697893824
1.8139627669719043,8.529241153345335,-0.02601058162748313,1.0507534644086771,-0.3384893263434557
1.8085636800521274,8.310356268757147,-0.025409293798963044,1.0338644840502735,-0.3280746807168275
1.803289384535515,8.094992513342756,-0.02482209207353822,1.0172189008486712,-0.3180420252126927
1.7981369609336093,7.883099547947772,-0.024248608896989713,1.0008093410083148,-0.30837329638457867
1.7931035664198454,7.674628553483146,-0.02368848171028548,0.9846287015119258,-0.29905144115711474
1.788191092591335,7.469675475586126,-0.02309698332314707,0.9673053736977776,-0.31732414901759637
1.7833992311785605,7.268348411796033,-0.022539792036607918,0.9500952338269185,-0.3374577539900923
1.7787208180772371,7.070623921931915,-0.022016523214091418,0.9329951458313371,-0.35934269608390446
1.7741487784622432,6.876479211580971,-0.02152671121442234,0.9160020956062286,-0.38287232383170877
1.7696761430041241,6.685892107011561,-0.021069816958141377,0.8991131860072112,-0.40794265812716096
1.7652960625620775,6.498841031094827,-0.020645234870872532,0.8823256322474167,-0.4344521632134834
1.7610018214795486,6.315304980152636,-0.02025229924845174,0.8656367576781966,-0.4623015239061136
1.7567868495995644,6.135263501652769,-0.019890290084730734,0.8490439899395743,-0.49139342815461595
1.752644733108729,5.958696672674879,-0.01955843839941643,0.8325448574689089,-0.5216323540649745
1.7485692243112938,5.785585079072995,-0.019255931099964926,0.8161369863585693,-0.5529243605131141
1.7445542504279161,5.615909795261992,-0.01898191540839473,0.7998180975557488,-0.5851768804839921
1.740593921507541,5.449652364556645,-0.01873550288089084,0.7835860043999237,-0.6182985162677455
1.7366825375352999,5.286794779992583,-0.018515773045215407,0.7674386104958949,-0.652198835634989
1.7328145948143416,5.12731946555861,-0.018321776678198457,0.7513739079228854,-0.6867881680971816
1.728984791695123,4.971209257769512,-0.018152538742929877,0.7353899757828238,-0.721977400334688
1.725188033721833,4.818447387507469,-0.018007061002688122,0.7194849790937783,-0.7576777698443519
1.7214194382623105,4.6690174620586795,-0.01788432432609818,0.7036571680375353,-0.793800655819578
1.7176743386850442,4.52290344726951,-0.017783290695486623,0.6879048775736141,-0.8302573662285316
1.7139482881445918,4.380089649743542,-0.01770290492786978,0.6722265274356054,-0.8669589199994276
1.7102370630350436,4.240560698997186,-0.017642096115445587,0.6566206225296919,-0.9038158231552662
1.7065366661699894,4.104301529486808,-0.017599778789831905,0.6410857537596135,-0.9407378376629107
1.702843329746842,3.9712973624147843,-0.017574853811573882,0.6256205993072642,-0.9776337416721784
1.699153518153349,3.84153368721514,-0.017566208983597117,0.6102239264036352,-1.0144110797185903
1.6954639306747223,3.714996242611498,-0.017572719384276042,0.5948945936310616,-1.050975901347514
1.6917715041610526,3.5916709971307306,-0.017593247412578436,0.579631553804804,-1.0872324864864842
1.688073415716631,3.471544128944771,-0.017626642534293496,0.56443385749004,-1.123083055745345
1.6843670854754969,3.3546020049002685,-0.017671740714603538,0.5493006572195142,-1.1584274636593999
1.6806501795310562,3.240831158581024,-0.01772736351816357,0.534231212487582,-1.1931628727080175
1.6769206130920475,3.1302182672309478,-0.01779231685334721,0.5192248956083896,-1.2271834057393853
1.6731765539425512,3.0227501273454003,-0.01786538933233212,0.5042811985396903,-1.2603797742110807
1.669416426290275,2.9184136287158253,-0.017945350213154472,0.4893997407895833,-1.2926388794163255
1.6656389150951085,2.8171957266860552,-0.01803094688366973,0.4745802785415545,-1.3238433836088155
1.6618429709790798,2.7190834123480307,-0.01812090184041229,0.45982271515393036,-1.3538712476682513
1.658027815829546,2.6240636803694457,-0.01821390910752911,0.4451271132135562,-1.3825952316700572
1.654192949219882,2.5321234941052175,-0.01830863003213082,0.43049370835052886,-1.4098823544459866
1.6503381557863572,2.4432497475980064,-0.01840368838238983,0.41592292505146766,-1.4355933079625882
1.646463513716558,2.357429224019551,-0.018497664663315,0.40141539474335813,-1.459581822125039
1.64256940452394,2.2746485500433486,-0.01858908955209421,0.38697197645857356,-1.481693975469373
1.6386565243052806,2.194894145569613,-0.018676436339898985,0.37259378043415425,-1.5017674471879867
1.634725896703376,2.1181521681443805,-0.018758112249669993,0.3582821950442641,-1.5196307061168144
1.6307788878268572,2.0444084513258964,-0.018832448479081595,0.3440389175127303,-1.5351021328076313
1.6268172234132017,1.9736484361525193,-0.018897688793827562,0.3298659889003762,-1.547989071775394
1.6228430085607686,1.9058570947579092,-0.018951976467441473,0.3157658339054202,-1.5580868126803995
1.618858750402207,1.8410188450628269,-0.018993339328382146,0.30174130604775257,-1.5651775019150402
1.6148673841465215,1.7791174553518765,-0.019019672630527742,0.28779573881844817,-1.5690289903036787
1.6108723029827292,1.720135937424505,-0.01902871940558802,0.27393300334699044,-1.5693936291014288
1.6068773924178417,1.6640564269035494,-0.01901804787905726,0.2601575730430751,-1.5660070362252
1.602887069720885,1.6108600492101814,-0.018985025425291954,0.24647459546519648,-1.5585868691697615
1.5989063292706844,1.560526769700946,-0.018926788386139586,0.23288997128941924,-1.546831662538509
1.5949407947703362,1.5130352265576086,-0.018840206855273108,0.21941043959951004,-1.5304198197329313
1.5909967795151239,1.4683625452970652,-0.018721843194368936,0.20604366764374377,-1.5090088947113642
1.587081356214362,1.426484134339141,-0.018567902527172307,0.19279834147933114,-1.4822353675086337
1.5832024383221484,1.3873734621056215,-0.01837417263676914,0.1796842512208496,-1.4497152159243791
1.579368875510773,1.3510018178806114,-0.01813594937632719,0.16671236044589843,-1.4110457288015406
1.575590566961199,1.3173380615162422,-0.017847941571998423,0.15389484302428394,-1.3658092117870069
1.5718785977752008,1.2863483715559312,-0.017504145913696798,0.14124506135964254,-1.3135795276365276
1.568245406410012,1.25799600820174,-0.017097676611912256,0.1287774467755071,-1.2539328162375716
1.564704995219398,1.2322411176894228,-0.016620525203457755,0.11650722477036891,-1.1864642752748524
1.5612732029708947,1.2090406190077552,-0.016063210496576354,0.10444990553121569,-1.110813541882508
1.5579680692395992,1.1883482329959563,-0.015414253610997759,0.0926204374383039,-1.026701901589175
1.5548103384680552,1.1701147363944457,-0.014659372784661149,0.08103191114750777,-0.9339849511909902
1.5518241803469717,1.1542885434323047,-0.013780228368514582,0.06969373611098592,-0.8327236877762398
1.5490382496689605,1.1408167185519282,-0.012752444755400875,0.05860935798784849,-0.7232736942727915
1.5464872852207736,1.1296464693067172,-0.011542454751139923,0.047773968157015415,-0.6063834618425001
1.5442145838444543,1.1207269889331712,-0.01010232026142481,0.03717346397198368,-0.48327594771053894
1.5422759842694571,1.1140110956663456,-0.008360532833788258,0.02678742428350129,-0.3556627703534985
1.5407468812611707,1.109455206452946,-0.006202352959414412,0.016601996796479536,-0.22561946429699936
1.5397375666316409,1.1070136293072181,-0.0034101673218234346,0.006651118877124792,-0.09525780077043272
