x,y,v_x,v_y,omega
2.375,32.48,0.0,2.4615384615384617,-6.163265306122449
2.3741402459199255,32.04116238739619,-0.00955282311194027,2.4144350118371842,-5.866283541447748
2.3716595499344866,31.610673763915056,-0.018010465615158237,2.3687719157309637,-5.5900169290077795
2.367744461844537,31.18828184319092,-0.025490513162060153,2.3244716478705283,-5.332534676633932
2.3625616141632877,30.773747742228032,-0.032096683296262626,2.281462807272686,-5.09212380770075
2.3562600522659873,30.366844939786926,-0.037920671118188684,2.2396794420729353,-4.867260561073485
2.348973257427455,29.967358347654283,-0.04304371597661442,2.1990604705119883,-4.656586088284314
2.340820908646473,29.57508347895702,-0.04753793714540802,2.1595491816798265,-4.458885716698946
2.3319104213640407,29.189825700357996,-0.05146747710383704,2.121092802753775,-4.273071187120002
2.3223382948881994,28.811399557131132,-0.05488948373884773,2.0836421219891528,-4.098165384291062
2.312191295218511,28.43962816186793,-0.057854957035468925,2.0471511587131093,-3.9332891660457783
2.3015474957724966,28.0743426389998,-0.06040948125357691,2.0115768731550183,-3.7776499665593586
2.290477195065489,27.715381618496814,-0.06259385993539404,1.97687891021147,-3.6305319051953693
2.2790437275382147,27.362590773074384,-0.06444466814543276,1.9430193722599782,-3.4912871777511825
2.2673041813487638,27.015822394044932,-0.06599473395957745,1.909962616956132,-3.3593285437481657
2.255310034957615,26.674935001623524,-0.0672735592754104,1.8776750766150927,-3.234122753527557
2.2431077226648872,26.339792986059205,-0.06830768842156314,1.8461250963217768,-3.1151847836498328
2.230739137851254,26.01026627643789,-0.06912103172991459,1.8152827883595326,-3.0020727695088807
2.2182420814823955,25.686230034403273,-0.0697351501462929,1.7851199009139787,-2.8943835409915692
2.205650662424723,25.36756437038292,-0.07016950605007105,1.7556096993121557,-2.7917486810941736
2.1929956552575103,25.054154080196987,-0.07044168469673576,1.7267268583093258,-2.693831039171231
2.180304820529122,24.74588840017599,-0.07056759006313235,1.6984473641461955,-2.6003216403570337
2.16760319177275,24.44266077912802,-0.07056161834100469,1.6707484252756981,-2.5109369410005193
2.1549133330534684,24.144368665680588,-0.07043681187323146,1.6436083908068624,-2.4254163869617895
2.1422555703498545,23.85091330968249,-0.07020499594470114,1.6170066758386534,-2.3435202375527853
2.1296481996685186,23.562199576490343,-0.069876900514588,1.5909236929629942,-2.2650276229450594
2.11710767443925,23.27813577308607,-0.06946226869950928,1.565340789306676,-2.189734807160865
2.1046487744340983,22.998633485078145,-0.06896995357995385,1.5402401885591976,-2.117453632430522
2.092284758188981,22.723607423732826,-0.06840800469912411,1.5156049374998788,-2.0480101238387416
2.0800275006756803,22.45297528226432,-0.06778374544866567,1.4914188565946467,-1.9812432358776273
2.067890965587445,22.18666268953794,-0.06706664442061737,1.4676099514762042,-1.9145681225395867
2.055886597688427,21.924597750228187,-0.06631522112402316,1.4442227075210858,-1.8507174036422296
2.0440201680501877,21.66670584801207,-0.0655339970786347,1.4212428726579351,-1.789539563418461
2.0322966726138083,21.412914876396485,-0.06472706332558145,1.3986568119596858,-1.7308927549415842
2.0207204060536155,21.16315513071809,-0.0638981206765622,1.3764514733558428,-1.6746440833666723
2.009295028750964,20.917359206107,-0.06305051601956589,1.354614355656221,-1.620668949552685
1.9980236275508183,20.675461901014906,-0.06218727509316157,1.3331334787004312,-1.5688504483692953
1.9869087709038649,20.43740012594003,-0.06131113209521193,1.3119973554648403,-1.5190788165873557
1.9759525589346838,20.20311281701051,-0.06042455645124476,1.291194965974279,-1.4712509257786819
1.965156668921197,19.972540854113653,-0.059529777031939825,1.2707157328796765,-1.425269816117878
1.9545223966213352,19.745626983282712,-0.058628804077634857,1.250549498575246,-1.38104426739365
1.9440506938389583,19.522315743074337,-0.05772344905988772,1.2306865037400054,-1.3384884039058491
1.9337422025818742,19.302553394689873,-0.05681534268549053,1.211117367198455,-1.2975213302528892
1.9235972861297936,19.08628785561163,-0.05590595122651482,1.1918330670042585,-1.2580667953070168
1.9136160572987508,18.873468636541944,-0.05499659134062893,1.172824922658916,-1.2200528819363603
1.9037984041605052,18.664046781448015,-0.05408844352876693,1.1540845783847669,-1.1834117202664267
1.8941440134503378,18.457974810529336,-0.05318256436198232,1.135603987378306,-1.1480792224829297
1.8846523918741411,18.255206665937465,-0.05227989759575932,1.1173753969758202,-1.1139948373653263
1.8753228855055042,18.05569766008945,-0.05138128427798232,1.099391334668805,-1.081101322908668
1.8661546974453453,17.85940442642721,-0.05048747194600432,1.081644594911582,-1.049344535542484
1.8571469039003259,17.666284872485047,-0.0495991229986572,1.0641282266680498,-1.0186732345913034
1.848298468821604,17.47629813513655,-0.048716822320475146,1.0468355216485974,-0.989038900743757
1.8396082572322645,17.2894045379009,-0.047841084227742386,1.0297600031919587,-0.9603955674074486
1.8310750473598465,17.105565550196104,-0.04697235879912273,1.0128954157502006,-0.9326996639262508
1.8226975416796511,16.924743748434153,-0.04611103764749214,0.996235714938156,-0.9059098697264946
1.814480700520018,16.747133900706487,-0.04518719745954104,0.9772070375914781,-0.9306477188650217
1.8064262603573256,16.5729393029551,-0.044306582125931436,0.9582884929794853,-0.9568746038594522
1.7985265527712717,16.402140382965698,-0.043467946608001476,0.939477284680531,-0.9844749552125601
1.7907741367602474,16.23471806134178,-0.04267000907004685,0.9207707333630006,-1.0133351177651437
1.7831618049829707,16.07065373071391,-0.04191145512191481,0.9021662736133162,-1.043343099001597
1.775682589273644,15.909929235482384,-0.04119094164838145,0.8836614511814137,-1.074388320020905
1.7683297655027503,15.752526852018292,-0.04050710025043753,0.865253920641847,-1.1063613681063011
1.7610968578513382,15.598429269248062,-0.03985854032081017,0.8469414434718208,-1.1391537498145132
1.7539776425628646,15.447619569546031,-0.03924385177333832,0.8287218865507443,-1.1726576434851141
1.7469661512333783,15.30008120985842,-0.03866160744317645,0.8105932210893915,-1.2067656500416746
1.7400566736979945,15.15579800298033,-0.0381103651721992,0.7925535220004802,-1.241370540918833
1.733243760569271,15.014754098904898,-0.03758866959139735,0.7746009677265181,-1.2763650019025945
1.7265222254811932,14.876933966160447,-0.03709505360946642,0.7567338405451465,-1.3116413716146778
1.719887147091066,14.74232237304745,-0.03662803961416912,0.7389505273770283,-1.3470913733049645
1.713333870890657,14.610904368682121,-0.036186140390373864,0.7212495211266361,-1.3826058385385183
1.706858010877492,14.482665263747425,-0.035767859755904415,0.7036294225922005,-1.4180744212745866
1.70045545113725,14.357590610845236,-0.035371692913450756,0.6860889429876588,-1.453385300733915
1.6941223473888019,14.235666184334931,-0.03499612651375277,0.6686269071268232,-1.488424871337024
1.6878551285445802,14.116877959533973,-0.034639638422041,0.6512422573282812,-1.5230774178694286
1.681650498340733,14.001212091144627,-0.03430069717626093,0.6339340581088883,-1.55722477388988
1.6755054370939009,13.888654890757842,-0.03397776112187407,0.6167015017442691,-1.5907459612447439
1.6694172036445751,13.779192803270057,-0.03366927720397005,0.5995439147866831,-1.6235168083862217
1.6633833375508493,13.672812382031285,-0.033373679392981505,0.5824607656441069,-1.6554095450157191
1.6574016616010947,13.569500262522748,-0.03308938671540337,0.5654516733396526,-1.6862923703888473
1.651470284719713,13.469243134339287,-0.03281480085550448,0.5485164175876774,-1.716028992429494
1.645587605346798,13.372027711225584,-0.03254830328799589,0.5316549503423472,-1.7444781346137082
1.639752315380339,13.277840698885115,-0.03228825189488238,0.5148674089961978,-1.7714930074096507
1.6339634047787064,13.186668760246707,-0.0320329770121476,0.49815413143052945,-1.7969207409121735
1.6282201669317113,13.098498477834788,-0.0317807768433547,0.481515673146352,-1.8206017752108459
1.622522204920735,13.013316312845557,-0.03152991216748986,0.46495282673399985,-1.8423692050089655
1.6168694388025144,12.931108560482091,-0.031278600257184506,0.44846664397117314,-1.8620480751117912
1.6112621140674237,12.85186130104617,-0.03102500791049047,0.43205846087237465,-1.8794546236868668
1.605700811441902,12.77556034622349,-0.030767243484195198,0.4157299260462976,-1.8943954707556678
1.6001864582264491,12.702191179931859,-0.030503347798614414,0.39948303274960323,-1.9066667503281458
1.594720341385996,12.631738893029684,-0.030231283761975137,0.3833201550523363,-1.9160531861157803
1.5893041226392173,12.564188111105778,-0.029948924535567408,0.36724408854662915,-1.9223271131028925
1.5839398558286029,12.499522914494055,-0.02965404002681449,0.35125809602807195,-1.925247450771605
1.5786300068953933,12.437726749582428,-0.029344281453291286,0.33536595854555623,-1.9245586389603522
1.5733774768350233,12.378782330421497,-0.029017163661930426,0.31957203213143587,-1.9199895548937524
1.5681856280728084,12.32267152959719,-0.02867004480712538,0.30388131036087423,-1.9112524408515421
1.5630583147811323,12.269375257330296,-0.02830010287816375,0.2882994926046411,-1.8980418876613516
1.5579999177658144,12.218873327832544,-0.027904308403146363,0.27283305737036684,-1.8800339417083252
1.553015384692086,12.171144312124934,-0.027479392416057367,0.2574893393808727,-1.8568854352841297
1.5481102766174852,12.126165376871437,-0.027021808412838876,0.24227660788020336,-1.8282336858256556
1.5432908220777906,12.08391210939163,-0.026527686472659028,0.2272041418954228,-1.7936967744575403
1.5385639803766926,12.044358330022138,-0.02599277687287525,0.21228229554336117,-1.7528747058459313
1.5339375163295472,12.007475894590595,-0.025412379206516848,0.19752254258490737,-1.7053518798355072
1.529420089616113,11.973234492214871,-0.02478125094275197,0.18293748381202643,-1.6507014836122447
1.5250213632808363,11.941601447307953,-0.02409348611587896,0.1685407929314952,-1.588492656311436
1.5207521380573894,11.912541540018978,-0.023342349700196153,0.15434706583488925,-1.518301600419305
1.5166245225194932,11.886016866905027,-0.022520045165315708,0.1403715243201159,-1.439728221313472
1.5126521542453533,11.861986773869234,-0.021617380102906602,0.12662950941091203,-1.3524203443555625
1.5088504952586774,11.84040790634931,-0.020623275304601812,0.11313568525491229,-1.2561079930943135
1.5052372375255754,11.821234436162996,-0.0195240328409792,0.09990287237077189,-1.1506503621534958
1.5018328735532158,11.804418536116525,-0.018302233518570618,0.08694046147890594,-1.0360974345945704
1.4986615166998214,11.789911172219433,-0.0169350648524803,0.07425247071100402,-0.912765633159802
1.4957521019302322,11.777663248085606,-0.015391765920730693,0.061835575220404615,-0.781320824045246
1.4931401750818813,11.767627029253003,-0.0136296435053907,0.049677967364062936,-0.6428506777191559
1.490870632670255,11.759757536711287,-0.011587494401570746,0.03776083865501211,-0.4988920417981324
1.489002172660753,11.754013123897135,-0.009173172370674249,0.02606597039112645,-0.35136366787938256
1.487615591396804,11.750353388497071,-0.006233286117645756,0.014597756276242276,-0.20235406528903374
1.4868349994285,11.748728393218684,-0.0024399579746238556,0.003457746816938145,-0.05375278263298572
