x,y,v_x,v_y,omega
2.375,32.48,0.0,2.9743589743589745,-4.326530612244898
2.3739327321753434,31.86281498970898,-0.010164455472922046,2.9035935046031036,-4.046047956792626
2.3708909039192894,31.260182399642233,-0.018805337441876804,2.8357644960325814,-3.7927954380230284
2.366171481740581,30.671506129559617,-0.02614154045058715,2.7706761714208876,-3.563346611928443
2.3600290464110616,30.096229287001414,-0.03235784364007068,2.708150900562014,-3.354785037911509
2.3526823422767755,29.533830612710915,-0.037610767162651215,2.6480269498236977,-3.1646178060196437
2.344319712974408,28.98382134083255,-0.04203332143132769,2.5901565918749987,-2.9907054504314705
2.3351036319001386,28.44574242570767,-0.04573887927599969,2.5344045045524193,-2.8312048177882585
2.3251744929722147,27.9191620802836,-0.04882434860898901,2.480646404248269,-2.6845222471385277
2.3146537940646863,27.40367358134477,-0.051372783843664095,2.4287678713596197,-2.5492750089876406
2.303646819590419,26.89889330473638,-0.053455544482686315,2.3786633344345884,-2.4242593978852676
2.292244908339372,26.404458960034376,-0.05513408647966854,2.3302351865368864,-2.308424214070022
2.2805273765485836,25.9200279991237,-0.05646145438498224,2.2833930126123763,-2.200848632061256
2.268563153333434,25.445276177175387,-0.05748352861644762,2.2380529107048894,-2.10072365738456
2.2564121753211044,24.97989624778259,-0.058240071500972455,2.194136893036016,-2.007336531205151
2.2441265790455613,24.523596776691008,-0.058765607313726285,2.1515723554552744,-1.9200575671299607
2.231751722965761,24.07610106076505,-0.05909016487484694,2.1102916057443077,-1.8383290027282941
2.219327065528431,23.637146140663603,-0.05923990595686839,2.0702314428409148,-1.7616555263493228
2.206886921259331,23.206481897231207,-0.05923765851074905,2.031332780324758,-1.6895962020762876
2.194461113233515,22.783870222900035,-0.05910337030654543,1.993540308543547,-1.621757565577759
2.1820755372890823,22.369084260489213,-0.05885449583091034,1.956802190607142,-1.5577877038243049
2.1697526508864025,21.961907702716953,-0.05850632705175522,1.92106978817628,-1.4973711641639755
2.1575118974772756,21.562134146535442,-0.05807227684469139,1.8862974135524198,-1.4402245646681475
2.1453700755572873,21.169566497081256,-0.05756412239329051,1.852442105058857,-1.3860927992009782
2.1333416601666433,20.784016416623636,-0.05699221466046221,1.819463423108961,-1.3347457482966756
2.1214390834291796,20.405303814403744,-0.05636565902966857,1.7873232646995179,-1.2859754214104497
2.109672979734986,20.033256373702798,-0.05569247139122546,1.7559856943571073,-1.239593468044629
2.0980524003457854,19.667709112865012,-0.054979713267825255,1.7254167898123087,-1.1954290051209258
2.0865850015067804,19.308503977341516,-0.054233609008411544,1.6955845008876365,-1.1533267161566734
2.0752772095618948,18.955489460120347,-0.0534596476095476,1.666458520266374,-1.1131451846145726
2.0641343660730933,18.608520248170976,-0.052662671331418914,1.6380101649657206,-1.0747554294796922
2.053160855523774,18.267456892764926,-0.05184695294781184,1.61021226747283,-1.0380396158742493
2.0423602178288194,17.93216550174022,-0.05101626319461489,1.5830390756196429,-1.0028899175122707
2.031735247569585,17.602517451960825,-0.05017392975047226,1.5564661603745824,-0.969207511154595
2.02128808161247,17.27838912038556,-0.04932288888872055,1.5304703308184182,-0.9369016860575257
2.011020276547722,16.9596616323064,-0.048465730775546965,1.5050295556497615,-0.9058890538039768
2.000932877194998,16.646220625446574,-0.047604739250393664,1.4801228906342994,-0.876092845936568
1.9910399030809505,16.337957954168132,-0.0466140618357732,1.4557120739223073,-0.843824077238839
1.9813536261910139,16.034769432188817,-0.0456361942588606,1.4317976592140258,-0.813074720917888
1.9718712630905804,15.73655272122847,-0.0446720257452682,1.4083614927892703,-0.7837548865451762
1.9625898607243375,15.443209205604688,-0.04372228250466498,1.3853862750562869,-0.7557810105672693
1.9535063285206058,15.154643818162615,-0.0427875480070639,1.3628555101063304,-0.7290753405590725
1.9446174664923637,14.870764876425518,-0.041868280833338295,1.3407534588183976,-0.7035654671076883
1.9359199898130384,14.591483928251126,-0.040964830398331514,1.3190650952234375,-0.6791838984225974
1.9274105502865386,14.316715606336892,-0.04007745080642766,1.2977760658645083,-0.6558676733238132
1.919085755079913,14.046377490970187,-0.03920631306619729,1.2768726519136409,-0.6335580087469196
1.9109421830424558,13.78038998046732,-0.038351515861965925,1.2563417338279423,-0.6121999783316412
1.9029763988961497,13.518676168788947,-0.03751309505523577,1.2361707583470243,-0.5917422190366814
1.8951849655482857,13.261161729859111,-0.036691032067278355,1.2163477076514035,-0.5721366630547371
1.8875644547472996,13.007774808151392,-0.035885261275445376,1.1968610705173537,-0.5533382925936592
1.8801114562767385,12.758445915138687,-0.03509567653942294,1.177699815317935,-0.5353049153476762
1.8728225858593575,12.51310783123336,-0.03432213695944356,1.1588533647328132,-0.517996958710732
1.865694491923227,12.271695512872096,-0.03356447195608319,1.1403115720411068,-0.5013772809860472
1.85872386136404,12.034146004425168,-0.032822485750460935,1.1220646988820335,-0.4854109980252111
1.851907424422249,11.8003983546329,-0.03209596131421473,1.1041033943776681,-0.4700653238892506
1.845241958779968,11.570393537293565,-0.03138466385036682,1.086418675520777,-0.4553094242656266
1.8387242929704886,11.344074375946334,-0.03068834385896103,1.0690019087385534,-0.44111428150110044
1.832351309182621,11.121385472311012,-0.03000673983501585,1.051844792550226,-0.427452570222723
1.8261199455326627,10.902273138262721,-0.02933958064077699,1.034939341243013,-0.4142985426194387
1.8200271978684972,10.686685331135038,-0.0286865875893702,1.0182778694968242,-0.4016279225463732
1.8140701211629837,10.474571592159052,-0.028047476272663095,1.001852977893512,-0.3894178076940056
1.8082458305473055,10.265882987858834,-0.027421958162368837,0.9856575392514133,-0.3776465791362009
1.8025566737777345,10.060716903983995,-0.02676048726211539,0.9683051643184976,-0.3938847888424373
1.7970027507553388,9.85918279692303,-0.026134017713082477,0.9510672838811804,-0.41204211340054786
1.791576751262312,9.661256957816573,-0.025542167934793907,0.9339407076088686,-0.4320063880319024
1.7862714539643818,9.466916334612552,-0.024984472997873073,0.9169223705246556,-0.45366847668346366
1.781079743099406,9.276138506287086,-0.024460392382848226,0.9000093278131155,-0.4769220287525874
1.7759946236035482,9.088901658112253,-0.023969317101512913,0.8831987500424444,-0.5016632434358426
1.7710092348040887,8.905184557885509,-0.023510576226673487,0.8664879187836876,-0.5277906407524082
1.766116862798702,8.724966533038934,-0.0230834428722477,0.8498742226122584,-0.5552048383178388
1.7613109516325998,8.548227448549312,-0.0226871396620585,0.8333551534793807,-0.5838083329628239
1.7565851133772457,8.374947685572412,-0.022320843722267204,0.8169283034434842,-0.613505286304044
1.7519331372073432,8.205108120726678,-0.02198369122918386,0.800591361753984,-0.644201313380329
1.7473489975664578,8.038690105952867,-0.021674781541154084,0.7843421122823061,-0.6758032734669737
1.7428268615059022,7.8756754488769865,-0.021393180940327133,0.7681784312975087,-0.7082190621741077
1.7383610952763977,7.716046393604174,-0.021137926007334988,0.7520982855864301,-0.7413574039212365
1.733946270247458,7.559785601870896,-0.020908026649234027,0.7360997309209911,-0.7751276438591594
1.7295771682254506,7.406876134481987,-0.02070246879845551,0.7201809108781468,-0.8094395382820849
1.7252487862378274,7.257301432957572,-0.020520216797955397,0.704340056021043,-0.8442030425364315
1.7209563408480935,7.111045301312771,-0.020360215485223696,0.6885754834532456,-0.8793280953880162
1.7166952720636903,6.968091887890221,-0.020221391985283672,0.6728855967615255,-0.9147243987554652
1.7124612468971088,6.828425667161763,-0.020102657220255837,0.6572688863666513,-0.9503011916540548
1.7082501626392341,6.69203142141113,-0.020002907140452927,0.6417239303060434,-0.9859670171199992
1.7040581499031622,6.558894222203904,-0.019921023679280885,0.6262493954770477,-1.0216294807996138
1.6998815754965393,6.4289994115444316,-0.019855875431414847,0.6108440393750845,-1.0571949997898353
1.6957170451809103,6.302332582611498,-0.01980631805076426,0.595506712367119,-1.0925685402053038
1.691561406377612,6.178879559955419,-0.01977119436159898,0.580236360547907,-1.1276533418215662
1.6874117508814965,6.058626379028276,-0.019749334172837023,0.5650320292344121,-1.162350628002953
1.6832654176462545,5.941559264906562,-0.019739553781847764,0.5498928671628441,-1.1965592989663438
1.6791199957083949,5.827664610050839,-0.01974065515014976,0.5348181314630802,-1.2301756062576288
1.6749733273210818,5.716928950930029,-0.019751424729021874,0.5198071934970235,-1.2630928061256954
1.6708235113741698,5.609338943318445,-0.019770631908233645,0.5048595456609379,-1.2952007892692916
1.6666689071829504,5.504881336050989,-0.01979702705576147,0.48997480926721937,-1.3263856842059503
1.662508138735503,5.403542942995866,-0.019829339110405086,0.4751527436387133,-1.3565294312713863
1.658340099497242,5.305310612974072,-0.01986627268255591,0.46039325656883856,-1.3855093240062453
1.6541639578814311,5.210171197320349,-0.019906504610879977,0.44569641632375484,-1.4131975144313667
1.6499791635062948,5.118111514740519,-0.019948679914228704,0.43106246538890625,-1.4394604784632195
1.6457854543731063,5.029118313074548,-0.019991407068518586,0.41649183619176544,-1.4641584374939811
1.6415828651155318,4.943178227522516,-0.020033252527429678,0.4019851690656846,-1.4871447319799975
1.6373717364888534,4.86027773483119,-0.020072734393315736,0.38754333275648045,-1.5082651427839413
1.633152726288865,4.78040310287134,-0.02010831513038173,0.3731674478135253,-1.5273571560524286
1.6289268219146422,4.703540334959666,-0.020138393195550133,0.35885891325003094,-1.544249167658758
1.6246953548176009,4.6296751081937515,-0.0201612934429395,0.34461943690153196,-1.5587596238108983
1.6204600171119465,4.558792704973836,-0.02017525613472083,0.3304510699548076,-1.5706960954785825
1.6162228806596703,4.490877936782059,-0.0201784243631475,0.31635624615736874,-1.579854286062594
1.611986418987863,4.425915059179999,-0.0201688296540655,0.3023378262431938,-1.5860169745494535
1.607753532448932,4.3638876768726576,-0.020144375478609915,0.2883991481124524,-1.5889529007503578
1.6035275770976551,4.3047786375781385,-0.020102818343075424,0.27454408326393065,-1.5884156058152257
1.5993123978362955,4.24856991334892,-0.020041746050824354,0.2607770998714721,-1.584142251055489
1.5951123664753792,4.195242467931227,-0.019958552624569675,0.24710333267797407,-1.5758524526723052
1.5909324254810284,4.144776108753778,-0.019850409226389604,0.23352865948820925,-1.5632471913991783
1.5867781383422654,4.097149322252843,-0.019714230190399164,0.220059783377843,-1.5460078874111778
1.5826557477128667,4.052339091539437,-0.019546632946733075,0.20670431865457964,-1.5237957765746708
1.578572242793391,4.0103206960070885,-0.01934389009589104,0.19347087689159934,-1.496251790592415
1.5745354378704295,3.971067493531418,-0.01910187107517271,0.18036914668620876,-1.462997239892049
1.570554064604245,3.9345506876732514,-0.018815969555154372,0.16740995672491057,-1.4236357368068704
1.5666378816876974,3.900739085125192,-0.018481010602444458,0.15460530563756952,-1.3777569946315238
1.562797807110031,3.8695988530471723,-0.018091128232472376,0.14196833320070495,-1.3249434168152612
1.55904608081218,3.841093292604981,-0.017639598413730237,0.1295131948201661,-1.2647807732529732
1.5553964696096512,3.8151826548014327,-0.017118603515115075,0.11725478426124966,-1.1968747641609043
1.5518645328480738,3.791824038421616,-0.016518889452288354,0.10520822887984586,-1.1208758832016839
1.5484679778869914,3.7709714279641666,-0.015829253034211403,0.09338806119109945,-1.0365156117537584
1.545227151608838,3.7525759504366114,-0.01503575913867541,0.0818069628808718,-0.943657303687055
1.5421657415125876,3.7365864480339646,-0.014120527492284318,0.0704740123824362,-0.8423644299280871
1.5393118036577653,3.7229504634264643,-0.013059833029832386,0.05939250768898603,-0.7329856731446364
1.5366993059711698,3.71161568166373,-0.01182109731869546,0.048557794813260974,-0.6162482654956731
1.5343705017413662,3.7025317040034444,-0.010357990584194829,0.03795627814183509,-0.4933353099001702
1.5323797213294372,3.695651637602314,-0.008601822862748095,0.027568163773690847,-0.3659002316551538
1.5307999671642158,3.6909321544923266,-0.006443454901264829,0.017379294416677796,-0.23595234011879876
1.529736989877872,3.6883284188061722,-0.0036801383020085583,0.0074181883086182135,-0.10555378466768808
