x,y,v_x,v_y,omega
2.375,32.48,0.0,3.8974358974358974,-2.0
2.374189094824324,31.597854239254385,-0.007051349353706358,3.7733968046998587,-1.8184168582134692
2.371924808859254,30.743407220866526,-0.012638093820810527,3.6565772682380397,-1.661921745634454
2.3685101805280944,29.91507172005515,-0.017054326450145103,3.546340130121762,-1.5261152373212796
2.3641879099032788,29.11139855039281,-0.02053063550477265,3.4421222147681427,-1.4074964110454633
2.3591532514776468,28.33106077458403,-0.02324900297898652,3.343423661829938,-1.3032569988898843
2.3535639150689467,27.57284015611615,-0.02535392231405417,3.2497991074559955,-1.2111273446580042
2.3475477258940978,26.835615470072373,-0.026960766162894778,3.1608503364029223,-1.129260039834005
2.341208592258003,26.118352367920195,-0.028162135020539058,3.0762201170942616,-1.0561412443445677
2.3346311850571206,25.420094549803924,-0.029032710204524578,2.9955869969602746,-0.9905225438363437
2.3278846295596516,24.739956043525048,-0.029632989773465564,2.9186608837256087,-0.9313681775759775
2.321025434616003,24.077114425308153,-0.03001218364956613,2.8451792746821645,-0.8778138676082956
2.314099829302784,23.430804845991048,-0.030210471247992452,2.7749040237274603,-0.8291344738516674
2.3071456362816947,22.80031474916514,-0.030260772413651587,2.7076185573673763,-0.7847184142549626
2.3001937808524464,22.18497918629441,-0.030190144362421616,2.643125467595501,-0.7440473073281386
2.293269511964395,21.58417664890723,-0.030020889446722383,2.5812444227277798,-0.7066796734400896
2.28639339430641,20.997325350304315,-0.029771438014012882,2.521810347732372,-0.6722378108549183
2.279582117567659,20.423879899408462,-0.029457055366429372,2.4646718339706943,-0.6403971702613178
2.2728491590021926,19.863328317824617,-0.029090410420238636,2.4096897450192567,-0.6108777071073491
2.266205327769949,19.31518935821434,-0.028682035077530456,2.3567359907222745,-0.5834368083233394
2.259659213601651,18.779010087979962,-0.028240696820712393,2.3056924460984054,-0.5578634790098502
2.253217557727193,18.25436370720808,-0.027773702087618958,2.2564499953962533,-0.533973542631855
2.246885560405164,17.740847574006033,-0.02728714419089633,2.208907684621524,-0.51160566047857
2.2406671365615702,17.238081413912198,-0.026786106622960222,2.1629719683683466,-0.49061801650151216
2.2345651288125272,16.745705693079067,-0.026274830325241215,2.1185560388762865,-0.4708855450006756
2.22858148537503,16.263380137505514,-0.025756851739952166,2.075579226980695,-0.45229760312555833
2.2227174089600137,15.790782382802465,-0.025235117086276345,2.03396646608928,-0.4347560093930837
2.2169734816145694,15.32760674087373,-0.024712077221935472,1.9936478115518872,-0.41817338460268394
2.2113497695752278,14.873563071529404,-0.02418976659842446,1.954558008833566,-0.40247174356238563
2.205845911464993,14.4283757484632,-0.023669869142750405,1.916636104785595,-0.3875812956236715
2.200461192577029,13.991782710250757,-0.023153773361281643,1.8798250970617316,-0.3734394196894294
2.195194607509262,13.563534588091201,-0.022642618532347378,1.8440716173691762,-0.359989785518017
2.190044913024343,13.143393902942503,-0.02213733351042458,1.8093256447934158,-0.34718159811419225
2.185010672691001,12.731134325511857,-0.021638669388203583,1.775540245907853,-0.33496894602053623
2.180090294601803,12.326539993272164,-0.021147227039604626,1.7426713387851203,-0.32331023759318617
2.1752820632478542,11.929404879298492,-0.020663480386036947,1.710677478377247,-0.3121677120138659
2.1705841664541095,11.539532208266102,-0.02018779608130814,1.679519661034832,-0.3015070139749574
2.1659947181328083,11.15673391543432,-0.01972045019087627,1.6491611461980533,-0.2912968227694982
2.161511777491381,10.78083014486667,-0.019261642343271882,1.6195672935206382,-0.2815085279979372
2.1571333652305076,10.41164878351482,-0.018811507751281414,1.5907054138867458,-0.27211594532756483
2.1528574771841407,10.049025028128103,-0.01837012743451738,1.5625446329542685,-0.26309506675617894
2.1486820957833,9.692800982247228,-0.01793753692061963,1.5350557660098638,-0.25442384067683504
2.144605199666829,9.342825280804874,-0.017513733657384418,1.5082112030540793,-0.24608197774613338
2.1406247717131794,8.998952740091202,-0.017098683330873693,1.4819848031517746,-0.23805077914919479
2.136745348454114,8.661044246931233,-0.016635431965348644,1.4563499199783774,-0.22865347337279215
2.132970918944998,8.32896622142837,-0.016185694200877652,1.4312850843943294,-0.2197324055824102
2.12929841226838,8.002590117075265,-0.01574914646536642,1.4067679969370093,-0.21125733473289182
2.125724833235317,7.68179238693779,-0.015325453822138197,1.3827774825193064,-0.20320030381389115
2.1222472645669193,7.366454233181631,-0.014914273729146266,1.3592934197081554,-0.19553544024782327
2.118862868282167,7.056461372258195,-0.014515259181744114,1.33629667527824,-0.18823877603353292
2.115568886423186,6.7517038145887796,-0.014128061331132518,1.3137690435862426,-0.18128808546001082
2.1123626412295744,6.452075657685498,-0.013752331656795813,1.2916931903553297,-0.17466273847810798
2.109241534856692,6.157474891737241,-0.01338772375956927,1.2700526004990695,-0.1683435680470544
2.1062030487186503,5.867803216770184,-0.013033894832101052,1.248831529649248,-0.16231274997162184
2.1032447425246223,5.582965870565911,-0.01269050685509883,1.2280149590835807,-0.15655369391918295
2.100364253066812,5.302871466586879,-0.01235722756064413,1.2075885537775517,-0.15105094445726167
2.0975592928095885,5.027431841219521,-0.012033731197817888,1.1875386233299172,-0.14579009108448995
2.0948276483218042,4.756561909700153,-0.01171969913074183,1.1678520855341366,-0.14075768634374805
2.092167178587871,4.490179530139059,-0.011414820294763138,1.148516432388419,-0.13594117120789762
2.0895758132277042,4.228205375103514,-0.011118791532777256,1.129519698355453,-0.1313288070177943
2.0870515506509273,3.970562810262198,-0.010831317830497825,1.1108504306994595,-0.12690961333081865
2.084592456166743,3.7171777796312995,-0.01055211246676063,1.0924976617431494,-0.12267331110738088
2.0821966600674138,3.4679786969972604,-0.01028089709262084,1.0744508829006731,-0.11861027072393467
2.079862355700396,3.2228963431228728,-0.010017401751010747,1.056700020354861,-0.11471146435501359
2.077587797541623,2.9818637683723814,-0.009761364847019135,1.0392354122581073,-0.11096842231457142
2.0753712992803157,2.7448162004178798,-0.009512533077391184,1.0220477873462692,-0.10737319298923702
2.073211231923857,2.511690956713693,-0.009270661326593967,1.005128244864052,-0.10391830603365786
2.0711060219296913,2.282427361447837,-0.00903551253571672,0.9884682357086032,-0.10059673853147864
2.069056037945351,2.057063570181345,-0.008790435154201102,0.9712169057391408,-0.11411444810094068
2.0670601045214894,1.8356532902372003,-0.008565507661988147,0.9540898763838582,-0.12981396715262505
2.065113513470714,1.6181683531689615,-0.00836137104040352,0.9370834894269032,-0.14757523824962096
2.0632114266190342,1.4045814151488756,-0.008178514626378213,0.9201942324868825,-0.16728193244304582
2.061348909211013,1.1948659242030786,-0.008017288921632275,0.903418732259164,-0.18882117819608393
2.059520960485468,0.9889960889439564,-0.007877917387454652,0.8867537482549296,-0.21208330048976615
2.0577225416462697,0.7869468486883662,-0.007760507301226315,0.8701961670110698,-0.2369615690474403
2.055948601436009,0.5886938448560812,-0.007665059744521324,0.8537429967479172,-0.2633519546538669
2.054194099504909,0.39421339354779406,-0.0075914787867822865,0.8373913624545912,-0.2911528925768262
2.0524540277532664,0.20348245920630603,-0.007539579923152949,0.8211385013844233,-0.32026505212418915
2.050723429812802,0.01647862926835586,-0.007509097820015291,0.8049817589455514,-0.3505911113876514
2.048997418820536,-0.1668199102824346,-0.007499693417079143,0.7889185849743616,-0.3820355362357564
2.047271193628068,-0.34643439854841773,-0.007510960430469347,0.7729465303820391,-0.4145043626233578
2.045540053579396,-0.522385522621569,-0.007542431297111548,0.757063244167085,-0.4479049812821396
2.0437994119815968,-0.6946934398415578,-0.007593582596797381,0.7412664707893226,-0.48214592384698074
2.0420448083847385,-0.8633777994912464,-0.007663839984579025,0.7255540479036515,-0.5171366494554991
2.0402719197803165,-1.0284577640124581,-0.007752582662568489,0.7099239044546894,-0.5527873308326159
2.0384765708211927,-1.1899520298254416,-0.007859147416765964,0.6943740591364742,-0.5890086388379321
2.036654743160529,-1.3478788478369736,-0.007982832241181091,0.6789026192246581,-0.6257115244104813
2.034802584002449,-1.5022560437239036,-0.00812289956820802,0.6635077797921468,-0.6628069967922772
2.0329164139531977,-1.6531010380821414,-0.008278579120935249,0.6481878233229859,-0.7002058968481539
2.030992734258316,-1.8004308665347892,-0.008449070399778914,0.6329411197435434,-0.7378186642236995
2.0290282335089054,-1.9442621998981906,-0.008633544812485652,0.6177661268947585,-0.7755550969944793
2.027019793898361,-2.084611364510657,-0.008831147453118181,0.6026613914745123,-0.8133241023569447
2.024964497110064,-2.221494362836019,-0.009040998532069779,0.5876255504851359,-0.851033436792975
2.0228596299165047,-2.354926894463013,-0.009262194455405258,0.572657333227827,-0.888589434004323
2.020702689571131,-2.4849243776319554,-0.009493808547843745,0.5577555638934343,-0.9258967187585586
2.018491389076045,-2.6115019714326024,-0.009734891409424158,0.5429191648078705,-0.9628579046125667
2.016223662411466,-2.7346745988315675,-0.009984470891263194,0.5281471604005085,-0.9993732732812692
2.013897669816834,-2.8544569707048097,-0.010241551670754795,0.5134386819755382,-1.0353404331960103
2.0115118032185837,-2.970863611070662,-0.010505114400987345,0.49879297337967354,-1.0706539545470197
2.009064691906128,-3.0839088837419624,-0.010774114402976898,0.48420939767510096,-1.1052049778258703
2.0065552085656067,-3.1936070206432206,-0.011047479862425415,0.4696874449445096,-1.138880792575639
2.0039824757906537,-3.299972152070062,-0.011324109484990836,0.4552267413758327,-1.1715643827182145
2.0013458732010134,-3.403018339205097,-0.01160286955536123,0.440827059798418,-1.2031339344609386
1.998645045313553,-3.5027596092469935,-0.011882590335597132,0.4264883318702315,-1.2334623023918048
1.9958799103263478,-3.5992099935590858,-0.012162061727056897,0.41221066214793456,-1.2624164289605584
1.9930506699953705,-3.6923835693016116,-0.012440028107529056,0.3979943443088344,-1.2898567121242397
1.9901578208053239,-3.782294505078312,-0.012715182240701565,0.3838398798363551,-1.3156363155298791
1.9872021666617177,-3.8689571112053613,-0.012986158138483722,0.36974799952931836,-1.3396004152457668
1.9841848333609713,-3.9523858953000186,-0.013251522737571714,0.355719688250281,-1.3615853767848831
1.981107285129756,-4.032595623988584,-0.01350976622951816,0.341756213389438,-1.3814178560642172
1.9779713435647164,-4.1096013916509335,-0.013759290857782042,0.32785915758752976,-1.3989138181240883
1.9747792093501055,-4.183418697251689,-0.01399839796492108,0.31403045633207655,-1.4138774680602915
1.971533487184883,-4.254063530457827,-0.014225273037011625,0.30027244111262436,-1.4261000899493754
1.9682372144140212,-4.321552468407681,-0.014437968448744934,0.28658788888613035,-1.4353587919461044
1.9648938939331597,-4.3859027846745775,-0.014634383558745901,0.27298007865210083,-1.4414151597556617
1.9615075320242308,-4.4471325721538335,-0.01481224173628766,0.2594528559501557,-1.4440138271541751
1.9580826818862875,-4.505260881782718,-0.014969063811046296,0.24601070604013647,-1.44288098237379
1.954624493756677,-4.560307879158515,-0.015102137316000139,0.23265883635808424,-1.4377228448062982
1.9511387726822926,-4.612295021215239,-0.015208480722124756,0.21940326848296562,-1.4282241703315675
1.947632045213839,-4.661245255096105,-0.015284801612254807,0.20625093917674245,-1.414046879700782
1.9441116365820437,-4.707183241122991,-0.015327447359878907,0.19320980888315142,-1.3948289588469622
1.9405857603133723,-4.7501356011651765,-0.015332346280742572,0.18028897409236433,-1.370183861739839
1.9370636228207643,-4.7901311925117085,-0.015294936263674279,0.1674987767470622,-1.3397007686952134
1.9335555463749674,-4.827201405188383,-0.015210076308472964,0.154850898702268,-1.302946235143319
1.9300731152164774,-4.861380476973956,-0.015071933765353032,0.1423584211722648,-1.2594680350021048
1.9266293517363673,-4.892705814335322,-0.014873835626909034,0.13003581675264034,-1.2088023956512512
1.9232389332021516,-4.9212182979457495,-0.014608064670617513,0.11789882333806175,-1.150486382522136
1.9199184654022317,-4.946962536838484,-0.014265568372164956,0.10596412355528864,-1.0840779615529799
1.9166868394820753,-4.969987013884236,-0.013835526585717545,0.09424872032080432,-1.0091872481456243
1.913565714931708,-4.990344036146055,-0.013304686895735739,0.08276886456458998,-0.925523505263503
1.9105801997803793,-5.008089368787786,-0.012656314420165541,0.07153837579830695,-0.8329630802388628
1.907759846175814,-5.023281401356549,-0.011868499532577,0.060566255234420274,-0.7316423478706459
1.9051401586830972,-5.035979701667436,-0.010911391708438826,0.049853747468979664,-0.622074000529692
1.9027649500618677,-5.046242927015179,-0.009742596302252634,0.0393916903374701,-0.5052698686636076
1.9006901486551793,-5.054126424385501,-0.008299155060255416,0.029160460708820272,-0.3828241781867995
1.898990350707631,-5.059680715715928,-0.006481696657556526,0.019137724773123463,-0.2568721191844614
1.8977719777447515,-5.062954186355327,-0.004112850845742224,0.009327237308633676,-0.12981655394762293
1.897213107477788,-5.064013128027781,-0.0007468906061136398,-0.00011904885248040058,-0.0037898032840261997
