x,y,v_x,v_y,omega
2.375,32.48,0.0,3.282051282051282,-7.877551020408164
2.373273884675102,31.86388987414171,-0.018169634998930605,3.203318463825438,-7.366623910468273
2.368352344427,31.26241795608214,-0.03363605182318864,3.127964884170022,-6.905433987697521
2.3607121595497054,30.674965368970213,-0.046786946885177406,3.0557465591134028,-6.487673916765562
2.3507622433655615,30.10095712687315,-0.05794901294791721,2.9864454629609583,-6.107990787891988
2.3388542108392714,29.539857566974412,-0.06739869785513714,2.919865693867882,-5.7618195181064396
2.325291106200777,28.991166441248275,-0.07537082465532707,2.8558303664072224,-5.44524926486536
2.310334650346481,28.454415545079836,-0.08206555275831874,2.7941790669447513,-5.154915499674257
2.2942112891445294,27.92916578751548,-0.08765403884117222,2.7347657495221616,-4.8879122140132605
2.2771172638753705,27.41500462819723,-0.09228306925523422,2.6774569801436106,-4.641720054617017
2.2592228794374063,26.911543821443576,-0.09607887219701981,2.622130459368552,-4.414147159641402
2.240676110841759,26.418417419717628,-0.09915027091505924,2.5686737693256427,-4.203280192683335
2.221605661224045,25.93527999781581,-0.10159130400824433,2.5169833033250426,-4.007443617577808
2.202123563186476,25.461805066195677,-0.10348341217669389,2.466963345307977,-3.825165671901486
2.1823273983472595,24.997683647433398,-0.10489727034137337,2.4185252732423197,-3.6551498154720927
2.162302196481756,24.542622994221777,-0.10589432824287502,2.3715868658273886,-3.4962506764118797
2.142122064819641,24.096345430855358,-0.10652811030570598,2.326071695924395,-3.347453709338576
2.1218515893329126,23.658587303000807,-0.10684531587037978,2.2819085972813578,-3.2078579309929465
2.101547042768179,23.22909802286778,-0.10688675323208355,2.239031193592645,-3.076661217752746
2.081257428403148,22.807639198792344,-0.10668813482087121,2.197377480885642,-2.9531477442214253
2.061025383778209,22.393983839809025,-0.10628075596795891,2.156889455780885,-2.8366772178434707
2.0408879647637486,21.987915627085165,-0.10569207576320257,2.117512783417589,-2.72667562540908
2.0208773271109015,21.589228245175516,-0.10494621531939718,2.0791964998419044,-2.622627256523997
2.001021319969898,21.19772476696567,-0.10406438616485236,2.0418927444722406,-2.5240678090676654
1.981344003644413,20.813217086943016,-0.10306525936656834,2.0055565189241404,-2.4305784142311286
1.961866102001,20.435525398087655,-0.10196528424830598,1.9701454690270133,-2.341780445388335
1.942605398404395,20.064477708234676,-0.10077896413700935,1.9356196873201585,-2.257330996967101
1.9235770827494296,19.699909392238293,-0.09951909538894217,1.9019415336943954,-2.176918937562033
1.904794056065611,19.341662776681865,-0.09819697496704474,1.8690754721627398,-2.1002614564955233
1.886267198246248,18.989586754235418,-0.09682258102624883,1.8369879220103813,-2.027101035462087
1.8680056036717774,18.64353642507345,-0.09540473028396812,1.8056471217998051,-1.9572027872483428
1.8500167888332584,18.30337276303711,-0.0939512153846521,1.7750230048985345,-1.890352112177818
1.8323068754976028,17.9689623044625,-0.09246892499067144,1.7450870853604872,-1.8263526301869712
1.814880752475038,17.64017685780571,-0.09096394893106124,1.7158123531320542,-1.7650243525398746
1.7977422186384096,17.31689323237908,-0.08944167040187086,1.6871731776745618,-1.7062020623320735
1.7808941094922157,16.998992984676104,-0.08790684692648558,1.659145219198885,-1.6497338772810597
1.7643384092876506,16.68636218090638,-0.08636368154262025,1.6317053467982217,-1.5954799719840993
1.7480763504207308,16.378891174490413,-0.08481588547758866,1.604831562843524,-1.543311439952812
1.7321085016274524,16.076474397378195,-0.08326673339902434,1.578502933074563,-1.4931092783977213
1.7164348462974852,15.779010164157555,-0.0817191121795776,1.5526995218795498,-1.4447634810092407
1.701054852061643,15.486400488009657,-0.08017556398718059,1.5274023323088475,-1.3981722259258245
1.6859675326644927,15.198550907650926,-0.07863832440387597,1.5025932504146289,-1.3532411477464794
1.6711715030087277,14.91537032447436,-0.07710935618312413,1.4782549935492146,-1.3098826838761923
1.656676595084932,14.636774983626633,-0.07546862196209617,1.4543275416899932,-1.264516343630816
1.642490785991162,14.362683951503172,-0.0738556842881152,1.4308412175043286,-1.221131437944271
1.6286087538060599,14.093014861071673,-0.07227097029190563,1.4077807870377497,-1.1796186129863697
1.6150251087186662,13.827688175932302,-0.07071476747013326,1.3851316881135345,-1.1398756943708983
1.6017344178697681,13.566627066245363,-0.06918724146563345,1.3628799928016144,-1.1018071403687104
1.5887312270103175,13.309757291551598,-0.06768845179174254,1.3410123723959282,-1.0653235423524374
1.5760100793447371,13.057007090027117,-0.06621836574068142,1.3195160647038837,-1.0303411679184067
1.563565531884127,12.808307073750672,-0.06477687068679316,1.2983788434692267,-0.9967815426155012
1.5513921695967305,12.563590129593376,-0.06336378497001335,1.2775889897654626,-0.9645710666386589
1.5394846176099182,12.322791325370588,-0.0619788675227484,1.2571352652112324,-0.9336406632235588
1.5278375516887843,12.085847820922691,-0.060621826383925055,1.2370068868718875,-0.903925455814875
1.5164457071907478,11.85269878381617,-0.05929232622698336,1.2171935037230934,-0.87536447137859
1.5053038866728832,11.623285309379014,-0.05798999501369763,1.1976851745627641,-0.8479003674938291
1.4944069663086799,11.397550344805175,-0.05671442987265152,1.1784723472670982,-0.8214791810955104
1.4837499012532538,11.17543861708177,-0.055465202289727844,1.1595458392950702,-0.7960500969492482
1.4733277300803795,10.956896564510156,-0.05424186268789702,1.1408968193535123,-0.7715652341274558
1.4631355784008806,10.741872271608084,-0.053043944464723235,1.1225167901419872,-0.7479794489230885
1.4531686617596526,10.530315407194802,-0.0518709675482019,1.104397572103085,-0.7252501527872712
1.4434222878977305,10.322177165474596,-0.0507224415246625,1.08653128810962,-0.7033371440111893
1.4338918584561795,10.117410209946755,-0.04959786838640289,1.0689103490255412,-0.6822024519928613
1.4245728701900415,9.915968619981516,-0.04849674494136366,1.0515274400822254,-0.6618101930373148
1.4154609157529823,9.717807839912158,-0.0474185649224179,1.0343755080162738,-0.6421264367356249
1.4065516841065344,9.52288463050331,-0.046362820829665884,1.0174477489189824,-0.6231190820554581
1.3978409606018511,9.331157022664623,-0.04532900553542016,1.0007375967513814,-0.604757742354248
1.389324626776549,9.14258427328744,-0.04431661367828614,0.9842387124821371,-0.5870136385968608
1.3810078062848186,8.957339458580677,-0.043228865182034566,0.9657067054837807,-0.6146528551678833
1.3728924741137565,8.775605377802034,-0.042195683987040225,0.9472836185019341,-0.6437993435404185
1.3649684250915188,8.597361605573571,-0.04121535835230427,0.9289666154818943,-0.674340743896348
1.3572257805444725,8.422588244414563,-0.040286163195552595,0.9107529756655754,-0.706166846187799
1.34965499052035,8.251265903175728,-0.03940636337415737,0.8926400900063761,-0.7391693380283458
1.3422468354230201,8.08337567611553,-0.03857421659773619,0.874625457995708,-0.7732415566271287
1.334992427126515,7.918899122540882,-0.0377879759970556,0.85670668489531,-0.8082782436812719
1.3278832096315394,7.7578182469354395,-0.0370458923711093,0.8388814793724959,-0.8441753021395237
1.320910959323783,7.600115479498886,-0.03634621613158746,0.8211476515386068,-0.8808295537391707
1.3140677848899514,7.445773657020268,-0.035687198961379,0.8035031113942088,-0.9181384961987202
1.3073461269445035,7.294776004007456,-0.03506709520123009,0.7859458676880333,-0.9560000589202773
1.300738757417648,7.147106113993061,-0.034484162976195304,0.7684740272003502,-0.9943123560175032
1.2942387787531608,7.0027479309348095,-0.03393666507103934,0.7510857944654529,-1.0329734354370295
1.2878396229630933,6.861685730625126,-0.03342286956124984,0.7337794719522783,-1.071881022882586
1.2815350505854155,6.723904102020597,-0.03294105020378065,0.7165534607269566,-1.1109322591811963
1.2753191495900986,6.589387928397031,-0.032489486589029455,0.6994062616263612,-1.1500234296488094
1.2691863342791214,6.4581223682296525,-0.03206646405283489,0.6823364769776091,-1.1890496839178322
1.263131344226382,6.330092835690802,-0.031670273344421775,0.6653428129050335,-1.2279047445803044
1.2571492433045586,6.2052849806488375,-0.031299210043193325,0.648424082273554,-1.2664806028769984
1.2512354188476227,6.083684668041908,-0.030951573714026143,0.6315792083257176,-1.3046671995236268
1.245385581000004,5.965277956488446,-0.030625666787223154,0.6148072290791475,-1.3423520886098241
1.239595762306398,5.850051075982549,-0.030319793145472982,0.5981073025618803,-1.379420082333998
1.2338623175999583,5.737990404506515,-0.030032256395996007,0.5814787129752957,-1.4157528741472747
1.2281819242511995,5.629082443374475,-0.02976135780146611,0.5649208778882705,-1.4512286376728616
1.22255158284543,5.523313791099795,-0.029505393838212688,0.5484333565820522,-1.485721598544339
1.2169686183630677,5.420671115554573,-0.029262653344549458,0.5320158596834351,-1.519101576070084
1.211430681944839,5.321141124161429,-0.029031414215752775,0.5156682602443897,-1.5512334913854888
1.2059357533328068,5.224710531825494,-0.028809939595114333,0.4993906064496624,-1.5819768385069033
1.200482144088534,5.131366026277547,-0.028596473502493714,0.4831831361602931,-1.6111851144622558
1.1950685017016867,5.041094230456899,-0.028389235832741475,0.467046293530746,-1.638705204459797
1.1896938147162002,4.953881661514274,-0.02818641664606412,0.4509807479705755,-1.6643767178931217
1.1843574190170651,4.869714685960034,-0.027986169660620494,0.4349874157582653,-1.6880312709040137
1.17905900543912,4.7885794704207925,-0.027786604844066566,0.41906748465481536,-1.709491711287708
1.1737986288803592,4.710461927397411,-0.027585779984991926,0.40322244190711465,-1.7285712818045187
1.168576719126653,4.635347655339139,-0.027381691106653176,0.3874541060747048,-1.7450727185678478
1.1633940936230063,4.56322187226225,-0.027172261563312237,0.3717646631556969,-1.7587872822700217
1.158251972459387,4.49406934204767,-0.026955329632679763,0.3561567075240963,-1.7694937218119573
1.1531519958777323,4.427874292452479,-0.026728634384738367,0.340633288214742,-1.7769571727471762
1.1480962446525074,4.3646203237682855,-0.026489799564997273,0.3251979610925636,-1.7809279973044225
1.1430872637522036,4.304290306961217,-0.026236315175043518,0.30985484740290614,-1.781140579290352
1.1381280897564763,4.246866270044098,-0.025965516358928988,0.29460869909308113,-1.7773120968640264
1.1332222825878078,4.1923292713774565,-0.025674559100738598,0.27946497108209795,-1.769141310413639
1.1283739622245774,4.140659258598518,-0.025360392091159804,0.2644299002751486,-1.7563074235612217
1.1235878512050133,4.091834911976704,-0.025019723904252073,0.249510590480793,-1.7384691055605361
1.1188693239256104,4.045833471252202,-0.02464898429998875,0.2347151013560753,-1.7152638071770772
1.114224464010067,4.002630545525012,-0.024244277968889373,0.2200525378775002,-1.6863075654493473
1.1096601314185923,3.962199906666033,-0.023801328257158527,0.2055331343222724,-1.6511955838541497
1.1051840415517582,3.924513268227102,-0.023315407183200788,0.19116832292962085,-1.609504004870231
1.10080485948978,3.8895400542347147,-0.022781246100781055,0.17697077172707126,-1.5607934772292367
1.0965323138785052,3.857247165987488,-0.0221929182284253,0.1629543677174136,-1.5046153798399058
1.0923773371209236,3.827598760614311,-0.021543679219801985,0.1491341098949774,-1.440521920428723
1.0883522419308718,3.800556063405452,-0.02082574383337526,0.1355258607245942,-1.3680817970021744
1.0844709497102671,3.7760772475612363,-0.02002996375193637,0.12214588500397315,-1.2869036892789554
1.0807492948157316,3.7541174304737623,-0.019145350927385958,0.10901008433787417,-1.196670464047829
1.07720544243274,3.7346288542615156,-0.018158358367263476,0.0961328231594615,-1.0971874025493076
1.0738604792899227,3.717561336208803,-0.01705177997818189,0.08352526160592966,-0.9884474229013877
1.0707392701460998,3.7028630813019596,-0.01580305311469018,0.07119321109769144,-0.8707139961064827
1.0678717261915955,3.6904819201124575,-0.014381620090617938,0.05913480142337796,-0.7446161872009955
1.0652947203161016,3.680366924675198,-0.012744757546159762,0.04733883475831898,-0.6112373885741327
1.0630550576620765,3.672470085392007,-0.010830638811998545,0.035785789275260715,-0.47215896650705036
1.0612143543891834,3.6667471708750554,-0.008545185113192402,0.024455416166334627,-0.32939847547194095
1.05985823989271,3.6631556280079707,-0.005729704323368454,0.013350298224039608,-0.18517692088200116
1.059120564381194,3.661642349560566,-0.0020353010610104846,0.002578948590743207,-0.04149326268744305
