x,y,v_x,v_y,omega
2.375,32.48,0.0,2.051282051282051,-3.3469387755102042
2.374575559224707,32.09374609768363,-0.004467797634660523,2.0145484994165908,-3.2012901806193415
2.3733475150435175,31.714380748451656,-0.008458983219966403,1.9787709661830737,-3.064574562373969
2.3714020227565107,31.341726416890676,-0.012019882959055761,1.943906208143052,-2.936054494484341
2.368816899058199,30.97561352670115,-0.015191945444226647,1.9099136885888106,-2.815066135587591
2.3656624946143916,30.615879968154605,-0.018012311859008957,1.8767553487432331,-2.701010761471043
2.3620024653389167,30.26237064663683,-0.02051431209335592,1.8443954040754542,-2.593347397928559
2.35789445543127,29.914937067830174,-0.0227278974608221,1.8128001623103818,-2.4915863945925407
2.353390703367893,29.573436955685935,-0.024680018995777604,1.7819378602605447,-2.3952838057343437
2.348538580467679,29.237733899840592,-0.026394958901213083,1.7517785170588807,-2.304036465138562
2.343381070324419,28.907697029554594,-0.02789462155415113,1.7222938017410994,-2.217477659610777
2.3379571962733743,28.583200711613163,-0.029198789509477727,1.6934569134318438,-2.135273320167653
2.3323024031019313,28.264124269936108,-0.030325349137294077,1.6652424726424262,-2.0571186620331843
2.3264488983977243,27.95035172490715,-0.03129048985435785,1.6376264223992472,-1.9827352146648731
2.320425958228938,27.641771550659826,-0.032108880343388685,1.6105859380989145,-1.911868191511142
2.314260201252087,27.33827644875262,-0.032793824676095734,1.584099345134822,-1.8442841563404626
2.307975834826966,27.03976313683559,-0.033357400851494794,1.558146043465513,-1.779768949013723
2.3015948762738616,26.746132151058212,-0.03381058391802507,1.5327064384015947,-1.7181258386814144
2.295137352023826,26.457287661097098,-0.03416335555603372,1.5077618769785537,-1.6591738767292876
2.288621477079936,26.173137296794916,-0.03442480174807216,1.4832945893601985,-1.602746425495587
2.282065563401813,25.89359424624377,-0.034584815916381954,1.4592638374939804,-1.5470191624719036
2.2754853657422847,25.618574759542927,-0.03468042260497027,1.4356781277780402,-1.49374787484959
2.268892546334593,25.347995745671007,-0.03471767642336322,1.412522018242191,-1.4427958979665867
2.2622976679596096,25.081776982293103,-0.03470209594487978,1.3897807541567693,-1.3940356120207995
2.2557102910933,24.81984098889196,-0.034638713174173545,1.3674402290131502,-1.3473477472994149
2.24913906211998,24.56211290705817,-0.03453211812393068,1.3454869481846425,-1.302620750021422
2.242591793491105,24.308520387450976,-0.034386499022122013,1.3239079950489818,-1.2597502028749963
2.2360755366159375,24.058993482980746,-0.034205678611218066,1.30269099937447,-1.2186382949708914
2.22959664818779,23.813464547800088,-0.033993146948230316,1.2818241077903672,-1.1791933364966696
2.2231608505762153,23.571868141723026,-0.03375209106834522,1.2612959561786954,-1.141329313854256
2.2167732868504526,23.334140939721305,-0.03348542183441726,1.241095643839418,-1.1049654815033725
2.210438570941583,23.10022164617361,-0.03319579825895249,1.221212709294208,-1.070025987123132
2.2041608333993694,22.8700509135681,-0.03288564955381706,1.2016371076059207,-1.0364395270497362
2.1979437631539125,22.643571265380885,-0.03255719513520355,1.182359189101572,-1.0041390292552406
2.191790645651311,22.420727022873592,-0.03221246278691609,1.1633696793962491,-0.973061361405417
2.1857043976960324,22.201464235571663,-0.03185330516338831,1.1446596606240644,-0.9431470617779669
2.179687599300016,21.98573061520232,-0.031481414794676935,1.1262205537900956,-0.9143400910392312
2.1737425228093477,21.773475472886645,-0.03109833773867512,1.108044102164354,-0.8865876030712366
2.167871159553157,21.564649659394735,-0.03070548601069942,1.0901223556452413,-0.8598397332140887
2.162075244235957,21.35920550828599,-0.030304148907193657,1.0724476560257825,-0.8340494024437397
2.1563562772735794,21.157096781768924,-0.029895503328361703,1.0550126231012142,-0.8091721361440973
2.1507155452539632,20.958278619125984,-0.029480623193914975,1.037810141561326,-0.7851658962570992
2.14515413968706,20.7627074875592,-0.029060488036646594,1.0208333486153294,-0.7619909257063637
2.1396729741928198,20.570341135322145,-0.02863599085008936,1.0040756223010314,-0.7396096040907304
2.13427280026246,20.381138547012345,-0.028207945258961763,0.9875305704337337,-0.7179863137346629
2.1289561312744794,20.19527385066759,-0.027756991456624188,0.9689399174057707,-0.741375975092921
2.1237224523649054,20.012930768595915,-0.027334365486259938,0.9504609465066228,-0.7663555978338287
2.118566423829166,19.834088359705824,-0.026939619100469783,0.9320907260206371,-0.7928120794243149
2.113482798287844,19.658726228684223,-0.02657222870292071,0.9138264426277947,-0.8206344324844763
2.1084664343818784,19.48682450385092,-0.02623160188618996,0.8956653977227986,-0.8497135425137559
2.103512309277881,19.318363815674065,-0.025917083419047235,0.8776050041388201,-0.8799419289321612
2.0986155300848504,19.15332527587017,-0.02562796071811641,0.8596427832705966,-0.9112135084418839
2.093771344277263,18.991690457012993,-0.025363468835435724,0.8417763625944357,-0.9434233597059527
2.088975149213831,18.833441372575884,-0.025122794990160277,0.824003473585644,-0.9764674883242956
2.084222500836164,18.67856045733173,-0.024905082669494497,0.8063219500370101,-1.0102425910634882
2.0795091216270785,18.527030548033615,-0.024709435320878888,0.7887297267852749,-1.0446458182641227
2.074830907904422,18.378834864297687,-0.024534919654456956,0.7712248388560572,-1.0795745333086844
2.070183936522919,18.233956989607414,-0.02438056857188772,0.7538054210415329,-1.1149260679825164
2.065564471053801,18.092380852355184,-0.024245383734618074,0.7364697079293366,-1.1505974725002575
2.060968967509745,17.954090706833348,-0.024128337781758172,0.7192160344057495,-1.1864852588993395
2.0563940796810334,17.81907111408198,-0.02402837620468081,0.7020428366613184,-1.2224851364199678
2.0518366641477646,17.687306922494546,-0.02394441888235979,0.6849486537327125,-1.2584917373966151
2.047293785032508,17.558783248075947,-0.02387536127823678,0.667932129620967,-1.2943983320785815
2.0427627185579533,17.433485454238784,-0.023820075296023202,0.6509920160333912,-1.3300965306756816
2.038240957474946,17.311399131014184,-0.02377740978826114,0.6341271758044733,-1.3654759707887745
2.0337262154278357,17.19251007354204,-0.023746190707638944,0.6173365870602325,-1.4004239882328569
2.0292164313263514,17.07680425969224,-0.023725220886932536,0.6006193482008206,-1.4348252690922199
2.0247097737963413,16.964267826653305,-0.02371327942896478,0.5839746837879503,-1.4685614806624756
2.020204645785697,16.85488704630692,-0.02370912068307936,0.5674019514371338,-1.5015108787333542
2.0156996894067767,16.74864829918655,-0.02371147277923953,0.5509006498299838,-1.533547888450173
2.011193791102683,16.645538046794673,-0.023719035684904174,0.5344704279792177,-1.5645426557630815
2.0066860872320125,16.54554280202626,-0.023730478743208563,0.5181110958987823,-1.5943605662357427
2.002175970175268,16.44864909741475,-0.02374443764357564,0.5018226368539568,-1.622861727745744
1.9976630950762084,16.354843450881418,-0.02375951076757597,0.4856052213916698,-1.649900413378285
1.9931473873431576,16.264112328628126,-0.02377425484348591,0.4694592233798083,-1.6753244606085007
1.9886290510489508,16.17644210476701,-0.02378717983237559,0.4533852383161647,-1.6989746227098297
1.9841085783840118,16.091819017227703,-0.02379674295645496,0.43738410420286505,-1.7206838682508439
1.9795867603353297,16.01022911942299,-0.02380134176651597,0.42145692532040246,-1.7402766246013222
1.9750646987852334,15.931658227086324,-0.02379930612923358,0.40560509927610083,-1.7575679616328428
1.970543820248309,15.85609185961945,-0.023788888996287644,0.38983034774362907,-1.7723627123744146
1.966025891493138,15.78351517520549,-0.02376825579498614,0.3741347513506984,-1.7844545284197073
1.961513037328558,15.713912898852477,-0.023735472253223873,0.3585207892073295,-1.7936248695942827
1.9570077608728345,15.647269242436671,-0.023688490438603188,0.3429913835906171,-1.7996419300867788
1.9525129666699192,15.583567815716727,-0.023625132749978482,0.3275499503035547,-1.8022595073684937
1.9480319870718108,15.5227915271949,-0.02354307354589817,0.3122004551893409,-1.8012158264039129
1.943568612372792,15.464922473619406,-0.023439818022720122,0.2969474771842752,-1.7962323407984147
1.939127125264253,15.409941816867907,-0.023312677856638566,0.28179627809468677,-1.7870125459427268
1.934712340284362,15.357829646950552,-0.023158742984319455,0.2667528789301025,-1.7732408587697677
1.9303296490749546,15.308564829959185,-0.02297484869365166,0.2518241420316477,-1.7545816471264362
1.9259850724442387,15.262124840024978,-0.022757536892834034,0.2370178572757921,-1.730678532828312
1.9216853204928726,15.218485574817024,-0.022503009963650403,0.2223428291237179,-1.7011541516865245
1.9174378624320128,15.177621154949403,-0.022207074887506336,0.20780895895650678,-1.6656106388938086
1.9132510082682692,15.139503709056257,-0.02186507420453002,0.1934273136029196,-1.6236312298263185
1.9091340053544614,15.104103148522189,-0.021471798572393275,0.17921016570305132,-1.5747835389346332
1.9050971540723105,15.071386939312273,-0.02102137281866823,0.16517098387500076,-1.5186253212526768
1.9011519488924526,15.041319883565471,-0.02050710275878376,0.15132433977555115,-1.4547138529823171
1.8973112541826556,15.01386393126877,-0.019921262607500788,0.137685684400275,-1.382620507360739
1.8935895291041307,14.988978053144557,-0.019254790850658,0.12427092743353615,-1.3019526485615927
1.8900031238553754,14.966618220356835,-0.01849684334676508,0.11109573348986325,-1.212385562447008
1.8865706821246357,14.946737554289953,-0.017634122239967437,0.09817443563522862,-1.1137075943859729
1.883313704567749,14.929286727332563,-0.016649852043051225,0.08551847970571247,-1.0058814846232305
1.8802573595924295,14.914214704142708,-0.015522200328734036,0.07313439597698866,-0.8891230510778501
1.8774316777099516,14.901469891258156,-0.014221819486822085,0.06102152912355235,-0.763993031280995
1.874873348985226,14.891001670026526,-0.012707956562920888,0.049170273314661214,-0.6314865843298465
1.8726285021639648,14.88276205324695,-0.010922009976671405,0.03756253489141843,-0.49308633044018146
1.870757233547684,14.876706710159649,-0.008775554405229808,0.02617791865912704,-0.35072337548270305
1.869341949055733,14.872793514514711,-0.006122177088994641,0.015013614445465309,-0.2065817452368406
1.8685078904726697,14.870972899930912,-0.0026573869432488274,0.004150749594545131,-0.06271187433975062
