x,y,v_x,v_y,omega
2.375,32.48,0.0,2.4615384615384617,-5.061224489795919
2.37379418565801,31.92022101813875,-0.01048534210426015,2.4061048589941048,-4.759227021963611
2.3703440558997237,31.372947048983868,-0.019515786228665934,2.3527992206135915,-4.48392397457005
2.364962118712257,30.83770439054976,-0.02728366757538905,2.301484765769957,-4.232222899269362
2.357919837284416,30.31404934345041,-0.033953562231925305,2.252037382920034,-4.0014590149637765
2.349453501285913,29.801565482993496,-0.03966675079853991,2.2043440123574887,-3.789327167736395
2.339769163823994,29.29986127246364,-0.044544879305101134,2.1583012965977617,-3.5938260289221144
2.3290468101173936,28.808567962211463,-0.048692979013161976,2.1138144447255307,-3.413212067883706
2.317443890942856,28.327337730090292,-0.05220197033064507,2.0707962693715865,-3.2459613868193005
2.3050983282424458,27.855842027230718,-0.055150748803355895,2.029166364189938,-3.0907379199218115
2.2921310801252566,27.39377009973563,-0.05760793047655044,1.9888503966369235,-2.946366815038874
2.278648336540858,26.940827662068582,-0.05963331808343944,1.9497794961200159,-2.8118120585498434
2.2647434041752574,26.496735702028584,-0.061279137269604406,1.911889721619097,-2.6861575920523935
2.2504983289008913,26.06122940050233,-0.06259108250749311,1.8751215960004939,-2.568591316099434
2.23598529585567,25.63405715184502,-0.06360920484225743,1.8394196966717897,-2.4583914915170295
2.2212678405179,25.214979672902746,-0.06436866766009226,1.8047322941305721,-2.3549151400736554
2.2064018986654252,24.80376919045909,-0.06490039192664497,1.7710110314664451,-2.2575881189227034
2.191436718611947,24.40020869834683,-0.065231608538381,1.738210639074965,-2.165896601422242
2.1764156554085026,24.00409127667577,-0.06538633236113484,1.706288679803817,-2.079379743779455
2.161376863632106,23.61521946663763,-0.06538577004231669,1.6752053205278343,-1.9976233548701574
2.1463539028367062,23.23340469519721,-0.06524867165681153,1.6449231267801807,-1.920254417396337
2.1313762676184775,22.858466744695477,-0.06499163458865283,1.6154068775826949,-1.846936333703541
2.1164698524716066,22.490233262998572,-0.06462936668848931,1.5866233980425575,-1.7773647902077703
2.101657360120719,22.128539310345843,-0.06417491462357666,1.5585414076333621,-1.711264151360723
2.0869586607621664,21.77322693949538,-0.06363986240731463,1.5311313823706316,-1.6483843081101
2.072391108588152,21.424144806149116,-0.06303450432324444,1.5043654293360114,-1.5884979174421328
2.057969821072237,21.081147806971366,-0.06236799581514865,1.4782171722096753,-1.531397979268655
2.0437349626655603,20.74410181080065,-0.06141338163421281,1.4526175771008965,-1.4707688301670734
2.029722169538073,20.4128779446689,-0.06043699338741434,1.4275899544795212,-1.4132306394085326
2.0159358742259834,20.08734725760371,-0.0594438354133642,1.4031116721743162,-1.3585859038202932
2.002379428302084,19.76738587006701,-0.05843830305532895,1.379161262927406,-1.3066521349673066
1.9890552343950145,19.452874714729138,-0.05742425265831649,1.3557183487062756,-1.2572605376334134
1.9759648630641835,19.143699293969746,-0.056405063261955254,1.3327635709406265,-1.2102548201072099
1.9631091563205656,18.839749452805755,-0.055383691030373015,1.310278526137565,-1.1654901216047102
1.9504883193601212,18.540919166065432,-0.054362717321318164,1.2882457063869626,-1.1228320439607669
1.938102001882748,18.247106338734124,-0.05334439117757841,1.2666484443200594,-1.0821557762797396
1.9259493702013726,17.958212618492425,-0.052330666921338524,1.2454708621294885,-1.043345302588241
1.9140291711993627,17.674143219553187,-0.05132323744396508,1.224697824298695,-1.0062926837085022
1.9023397890669214,17.394806756980586,-0.050323563707698346,1.2043148937239119,-0.9708974055950065
1.8908792956358758,17.120115090743887,-0.049332900910089496,1.1843082909430451,-0.93706578727074
1.8796454950351127,16.84998317882088,-0.04835232170524167,1.1646648562135085,-0.9047104422806823
1.8686359633039364,16.58432893872267,-0.04738273682672562,1.1453720142057,-0.8737497882643499
1.857848083526211,16.323073116862428,-0.04642491341436613,1.1264177411007714,-0.8441075998493737
1.8472790769829066,16.066139165237228,-0.04547949131001928,1.1077905339009684,-0.8157126005954214
1.836926030763406,15.813453124934103,-0.044546997555203784,1.0894793817783714,-0.7884980901818411
1.8267859222255927,15.564943516009677,-0.04362785929534796,1.0714737393035993,-0.7624016034414218
1.8168556406504741,15.320541233327596,-0.042722415270900274,1.0537635014101587,-0.7373645982037199
1.8071320063980942,15.080179447969702,-0.041830926054140745,1.0363389799628215,-0.7133321692305711
1.7976117878371105,14.843793513865844,-0.04095358317180692,1.0191908818098447,-0.6902527858089629
1.7882917162900682,14.61132087931366,-0.04009051723725498,1.0023102882091541,-0.6680780508169261
1.7791684992096106,14.382701003083895,-0.03924180520150693,0.985688635527927,-0.6467624793004657
1.7702463187465836,14.157993455191473,-0.03834237273785892,0.9682900417974905,-0.6469650274432919
1.7615272172350314,13.937272363232271,-0.03747590127563851,0.9510238013260162,-0.6497477097478676
1.753003584795954,13.720507751231406,-0.03664264167286117,0.9338858682467218,-0.6549701072333234
1.744667770723793,13.507670553900763,-0.03584269808506006,0.9168723694110321,-0.6624965280543478
1.736512115735903,13.298732577880209,-0.035076040940070004,0.8999795959850898,-0.6721956680898676
1.7285289813585027,13.093666464838485,-0.03434251886340945,0.8832039956820691,-0.6839402863919103
1.7207107766813021,12.89244565629173,-0.033641869633987756,0.8665421655940534,-0.6976068940435712
1.7130499826954169,12.695044360005426,-0.032973730243275975,0.8499908455911956,-0.713075455048561
1.7055391744130652,12.501437517852583,-0.03233764612499704,0.8335469122596189,-0.7302290979381136
1.6981710409527628,12.311600775007122,-0.03173307961676333,0.8172073733530824,-0.7489538368346329
1.6909384037602004,12.125510450356778,-0.03115941770986804,0.8009693627368665,-0.769138300755745
1.6838342331226293,11.943143508024388,-0.03061597913857722,0.7848301358056549,-0.7906734699777382
1.6768516631232835,11.764477529890286,-0.03010202085573201,0.7687870653604556,-0.8134524183039081
1.6699840051720947,11.589490689011559,-0.029616743937216635,0.7528376379328369,-0.8373700601012186
1.6632247602396228,11.418161723836263,-0.029159298953842717,0.7369794505479965,-0.8623229009779697
1.6565676299127086,11.250469913112273,-0.028728790845409934,0.7212102079214773,-0.8882087909757551
1.6500065263827555,11.086395051391214,-0.028324283328095237,0.7055277200877275,-0.9149266791407661
1.643535581470795,10.925917425027968,-0.02794480286286617,0.6899299004622239,-0.9423763683221874
1.6371491547874983,10.769017788575415,-0.02758934220927761,0.6744147643425858,-0.9704582690187239
1.6308418411210686,10.615677341472342,-0.02725686358576504,0.6589804278580521,-0.9990731510577501
1.6246084771414542,10.465877704919858,-0.02694630145436016,0.6436251073809429,-1.0281218918446946
1.6184441475055742,10.31960089883794,-0.026656564944595243,0.6283471194183409,-1.0575052198624397
1.612344190445203,10.176829318788993,-0.02638653992819826,0.6131448810072844,-1.08712345203107
1.606304202916868,10.037545712749285,-0.026135090752977763,0.598016910642353,-1.116876223456482
1.6003200453915583,9.901733157601779,-0.025901061641018765,0.5829618297707382,-1.1466622080013782
1.5943878463612553,9.769375035215006,-0.025683277752919897,0.5679783648968446,-1.1763788280031762
1.5885040066393001,9.640455007962046,-0.02548054591625659,0.5530653503462836,-1.205921951339576
1.582665203532469,9.51495699352121,-0.02529165501270938,0.5382217317479422,-1.2351855739032076
1.5768683949643627,9.392865138785375,-0.025115376014301027,0.5234465703028102,-1.2640614853913827
1.5711108236324063,9.274163792689798,-0.024950461654885753,0.5087390479195901,-1.292438916145276
1.5653900212844822,9.158837477748392,-0.02479564571836635,0.4940984733100315,-1.3202041625851146
1.5597038132060688,9.046870860065301,-0.024649641920011175,0.47952428915162026,-1.3472401885852534
1.5540503230148308,8.938248717562036,-0.024511142351623213,0.4650160804419932,-1.373426199917613
1.548427977867059,8.83295590612953,-0.024378815455086657,0.4505735841884753,-1.3986371886678988
1.5428355141893084,8.730977323379115,-0.02425130348187663,0.43619670059774596,-1.4227434443029456
1.5372719840592337,8.632297869625539,-0.024127219388339362,0.42188550595507596,-1.4456100278498114
1.5317367623721796,8.536902405688547,-0.02400514310778262,0.4076402674100773,-1.4670962054536918
1.5262295549447802,8.444775707045977,-0.023883617130474218,0.3934614599166092,-1.4870548374358563
1.5207504077239764,8.355902413810604,-0.023761141311296963,0.3793497856083874,-1.5053317189092812
1.515299717289826,8.27026697593384,-0.023636166811749463,0.3653061959286805,-1.5217648680789564
1.5098782428636763,8.187853592961812,-0.023507089067812275,0.3513319168715543,-1.5361837586291813
1.504487120060281,8.108646147582395,-0.023372239657365675,0.3374284777320627,-1.5484084931871798
1.4991278766539333,8.032628132106076,-0.023229876919570003,0.3235977438011258,-1.5582489159032713
1.493802450665614,7.9597825669195,-0.023078175152771847,0.3098419534734463,-1.5655036639215882
1.488513211121724,7.8900919098405,-0.02291521218540165,0.2961637602569982,-1.5699591602469503
1.4832629818869574,7.823537955191423,-0.02273895507344007,0.2825662801697495,-1.5713885546963855
1.4780550690367011,7.760101721300725,-0.022547243624439068,0.2690531449667672,-1.5695506259109568
1.4728932923116875,7.699763325053237,-0.0223377713756794,0.2556285615331204,-1.564188666736516
1.4677820212948687,7.6425018420568485,-0.02210806355317989,0.2422973775659197,-1.5550293890189888
1.4627262170759936,7.588295151008069,-0.021855451393560436,0.22906515329304072,-1.5417819039602556
1.4577314803360237,7.537119760969446,-0.021577041997481783,0.21593823834716527,-1.5241368634681784
1.4528041070117323,7.488950620591229,-0.021269682561571832,0.20292385189819442,-1.5017658904647901
1.4479511530229998,7.44376090892996,-0.02092991734045019,0.19003016254762156,-1.474321487679564
1.4431805100135362,7.401521808604873,-0.020553934915755353,0.17726636201836046,-1.4414377032196202
1.4385009947542078,7.362202263836284,-0.020137502121882922,0.16464272292588686,-1.4027319584743776
1.4339224559233839,7.32576872878613,-0.019675879015716283,0.15217062533632586,-1.357808624760008
1.4294559036328311,7.2921849160720775,-0.019163706119525736,0.13986252869892674,-1.30626518838173
1.4251136696712803,7.26141156202592,-0.018594850067872114,0.12773185431113543,-1.2477021899336624
1.420909610573886,7.233406235037272,-0.017962185561642273,0.11579272819883513,-1.1817385770291566
1.416859372228409,7.208123226988608,-0.01725727831207218,0.1040595157025752,-1.1080346580167806
1.41298074527353,7.1855135857021,-0.016469912599920162,0.09254606070182372,-1.0263254007905984
1.409294157320839,7.16552536719529,-0.015587373945216258,0.08126453500957934,-0.9364671232733206
1.405823374547468,7.148104204892256,-0.014593345823230065,0.07022383284288532,-0.8385000456948123
1.4025965269620955,7.133194294137198,-0.013466198397399124,0.0594275650271755,-0.7327264558291334
1.3996476384963272,7.120739842585582,-0.012176310000585727,0.04887201368252933,-0.6197972814194289
1.3970189586481214,7.11068688093652,-0.010681775635987812,0.03854504413540897,-0.5007863180991684
1.3947646340346247,7.102984965454034,-0.008921047090068591,0.02842813397314524,-0.3772114167572738
1.3929569349554858,7.097587546523211,-0.006798075337227738,0.018505943686193196,-0.2509438713923714
1.391698889616145,7.094447871355332,-0.00414144935269152,0.008795579512751589,-0.12394953249071425
