x,y,v_x,v_y,omega
2.375,32.48,0.0,3.3846153846153846,-6.775510204081632
2.373453659846361,31.84478021534451,-0.016277264775148022,3.3019086643897366,-6.324050636111059
2.369051096665057,31.22493274822917,-0.030065505554368405,3.2228015157717502,-5.91778295154565
2.3622304213756977,30.6197981369437,-0.041731076438886676,3.147036497759492,-5.550840378858489
2.3533657242895902,30.028763314078795,-0.051581524467508647,3.0743826902921363,-5.2182601656252245
2.342777252345129,29.451256924341994,-0.05987607494787138,3.004631938516297,-4.915823943720487
2.33073979207004,28.88674529060981,-0.06683403321095795,2.937595784980375,-4.639929852064301
2.3174896102841425,28.334728911980665,-0.07264156453533212,2.8731029374316774,-4.387489370391861
2.303230227651674,27.79473940287116,-0.07745720001696851,2.810997158457881,-4.155843548427914
2.2881372419791712,27.266336801170674,-0.08141633337779798,2.751135491020927,-3.9426945784194265
2.272362373599078,26.74910718787339,-0.08463491272844538,2.693386754213624,-3.746049592812624
2.256036870737544,26.242660571662977,-0.08721248581401767,2.6376302585275506,-3.5641742667538256
2.239274385904689,25.746629000501198,-0.08923472295287574,2.5837547010701303,-3.3955543319882864
2.2221734132308866,25.260664868990972,-0.09077551571873119,2.5316572095638485,-3.2388635102322945
2.2048193599549393,24.78443939559972,-0.09189872929124043,2.4812425103440687,-3.092936682650408
2.187286311947438,24.317641248072214,-0.09265967078771907,2.432422200471796,-2.956747351052179
2.169638542472548,23.859975298779432,-0.09310632368480615,2.38511410787325,-2.8293886328513635
2.1519318047832874,23.411161494524986,-0.09328038883372806,2.339241726384067,-2.710057178229807
2.1342144421723863,22.970933827601733,-0.09321816496523352,2.2947337149133284,-2.5980395136219774
2.1165283434262876,22.539039396763997,-0.09295129552001433,2.2515234517996903,-2.4927004075576082
2.098909766992114,22.11523754833573,-0.09250740378707609,2.209548636918901,-2.3934729283377996
2.0813900533618166,21.699299088974776,-0.09191063442658105,2.168750935301658,-2.2998499219856026
2.0639962420431877,21.291005562706545,-0.09118211629583073,2.1290756569955254,-2.211376686481064
2.046751606896438,20.890148585765267,-0.09034035893311392,2.0904714687021264,-2.127644656836532
2.029676121466203,20.4965292335677,-0.0894015929640927,2.0528901333775305,-2.048285946933794
2.0127868641510167,20.10995747481669,-0.08838006298524129,2.0162862745278702,-1.9729686196697083
1.996098371560334,19.730251648309896,-0.08728828007457316,1.9806171623857483,-1.901392577971596
1.9796229471605735,19.357237978527607,-0.08613723992290775,1.9458425195330662,-1.8332859865396771
1.9633709312637457,18.99075012650563,-0.08493661162264735,1.9119243438561593,-1.7684021484585035
1.9473509375305613,18.63062877287522,-0.08369490135823975,1.8788267469902669,-1.7065167726560133
1.931570060416112,18.276721230280245,-0.0824195945833352,1.846515806641055,-1.6474255780281615
1.9160340573572892,17.928881082669385,-0.0811172797200617,1.8149594313680169,-1.5909421882510502
1.900747508968025,17.58696784921397,-0.07979375595640292,1.784127236583723,-1.5368962781629942
1.8857139600555697,17.250846670825,-0.07845412733259888,1.7539904306686012,-1.4851319383522081
1.870936043885496,16.920388017439926,-0.07710288498396566,1.7245217102269135,-1.4355062294237155
1.856415591794188,16.59546741442457,-0.07574397913506688,1.695695163618933,-1.3878879014979748
1.8421537299663895,16.27596518659082,-0.07438088221018106,1.6674861819994846,-1.3421562579414876
1.82815096495453,15.961766218469137,-0.07301664423044482,1.6398713771761442,-1.2982001452511263
1.814407259309843,15.65275972959845,-0.07165394150310203,1.612828505673185,-1.2559170534953856
1.8009220985175733,15.348839063706624,-0.07029511946815731,1.5863363984513068,-1.2152123138283775
1.7876945502754964,15.049901490753747,-0.06894223044844339,1.5603748957894918,-1.1759983813950399
1.774723317022894,14.755848020899666,-0.06759706694736947,1.534924786885052,-1.1381941934875845
1.762006782512985,14.466583229537253,-0.06626119105167481,1.5099677537719198,-1.1017245941342702
1.749543053122978,14.182015092605276,-0.06493596042208052,1.4854863191962635,-1.0665198174360684
1.737340128923802,13.902057657126488,-0.063515873253459,1.4614340542646553,-1.0294944486166835
1.7254044984906498,13.626627900910986,-0.06212234183235412,1.4378265374774846,-0.9940904524003558
1.7137311029837754,13.355642780256563,-0.06075550560842763,1.4146484167796012,-0.9602181549404163
1.7023148667253145,13.089022104175932,-0.059415402375370664,1.3918850156480762,-0.9277937814430516
1.691150715206442,12.826688409613404,-0.05810198203381532,1.369522295536449,-0.8967390061230606
1.6802335906349413,12.568566843560589,-0.05681511871882124,1.3475468208089485,-0.8669805410909781
1.669558465315459,12.31458505161639,-0.05555462148625803,1.325945725972081,-0.8384497604133906
1.6591203531200596,12.06467307257138,-0.05432024372846966,1.304706685028004,-0.8110823559880285
1.6489143192763223,11.818763238628723,-0.053111691468765,1.28381788278944,-0.7848180222285859
1.6389354886735092,11.576790080902803,-0.05192863066610841,1.2632679880097075,-0.7596001668670289
1.629179052863904,11.338690239863457,-0.05077069364552517,1.2430461281939262,-0.7353756454584357
1.6196402759157706,11.104402380418005,-0.04963748475588031,1.2231418659687319,-0.7120945174195384
1.6103144992562282,10.87386711134566,-0.04852858534456862,1.20354517689805,-0.6897098216508937
1.60119714562633,10.647026908819381,-0.047443558128041546,1.1842464286417342,-0.6681773699872887
1.5922837222565256,10.423826043769001,-0.0463819510277952,1.165236361362264,-0.6474555568944649
1.5835698233582232,10.204210512856815,-0.04534330053328337,1.1465060692923357,-0.6275051839850032
1.5750511320161862,9.988127972852649,-0.044327134646053194,1.1280469833831102,-0.6082892980644603
1.5667234215567665,9.775527678210128,-0.04333297545310268,1.1098508549592023,-0.5897730415424702
1.5585825564583895,9.56636042165934,-0.04236034137191798,1.0919097403122535,-0.5719235141542112
1.550624492863104,9.360578477643507,-0.04140874910476912,1.0742159861701825,-0.554709645036848
1.5428452787412743,9.15813554843886,-0.040477715335543625,1.0567622159840089,-0.538102074294584
1.5352410537555303,8.95898671280742,-0.03956675819860512,1.0395413169785297,-0.5220730432659207
1.5278080488648103,8.76308837704233,-0.03867539854581732,1.022546427917147,-0.5065962927786409
1.5205425857046404,8.570398228274392,-0.037803161034917286,1.0057709275348181,-0.4916469687427544
1.5134410757756416,8.380875189916917,-0.03694957505980865,0.9892084235964785,-0.4772015344899834
1.5065075661537852,8.194686638088033,-0.03603473674920492,0.9706710693391498,-0.5068516619410462
1.4997430517648471,8.012009887126844,-0.03517067787119686,0.9522420986733819,-0.5379755536377481
1.4931380311820484,7.8328246119434475,-0.03435585457931553,0.9339186927307773,-0.5704636290350908
1.486683298139468,7.657111012352363,-0.03358870376363608,0.9156981450701136,-0.6042083767219861
1.4803699448536576,7.484849792044482,-0.032867646613313956,0.8975778581707577,-0.6391041110482508
1.4741893647046398,7.316022138187755,-0.032191091797402316,0.8795553403211185,-0.6750467324281669
1.4681332543464096,7.1506097015820735,-0.03155743828922892,0.861628202896567,-0.711933490281369
1.462193615312536,6.988594577294606,-0.030965077856808007,0.8437941580241421,-0.7496627475666405
1.4563627551784284,6.829959285702049,-0.030412397239063953,0.8260510166343341,-0.7881337458508857
1.45063328833834,6.674686753865966,-0.029897780025024624,0.808396686903375,-0.8272463698337771
1.4449981364521576,6.522760297166332,-0.029419608250579946,0.7908291730927669,-0.8669009102179819
1.4394505286144896,6.374163601116869,-0.028976263724870388,0.7733465747963303,-0.9069978237749489
1.4339840012965217,6.228880703283373,-0.028566129095845917,0.7559470866088835,-0.947437489406422
1.428592398109527,6.086895975223218,-0.028187588661992335,0.7386289982348493,-0.9881199589414493
1.4232698694378478,5.948194104360237,-0.0278390289346309,0.7213906950596827,-1.0289447013369166
1.4180108719885673,5.812760075704418,-0.02751883895252926,0.7042306592121141,-1.0698103388656692
1.4128101683050376,5.680579153319933,-0.027225410347785545,0.6871474711508843,-1.1106143737791485
1.4076628262918902,5.551636861438077,-0.02695713715902791,0.6701398118160243,-1.1512529038201083
1.4025642188002199,5.425918965103321,-0.026712415384872106,0.65320646539192,-1.1916203248343156
1.3975100233232676,5.303411450231025,-0.02648964226725739,0.6363463227375235,-1.2316090185870283
1.3924962218552626,5.1841005029438705,-0.026287215290691047,0.6195583855483101,-1.2711090237294294
1.3875191009690921,5.067972488040898,-0.02610353087952241,0.6028417713250784,-1.3100076876810582
1.382575252172285,4.95501392643753,-0.025936982771081408,0.5861957192366798,-1.3481892969958884
1.377661572605442,4.845211471397189,-0.025785960037789626,0.5696195969774585,-1.3855346835616822
1.3727752661528716,4.738551883354425,-0.02564884472611079,0.5531129087358422,-1.4219208037449158
1.367913845041826,4.635022003105718,-0.025524009074369084,0.5366753044084367,-1.457220287338205
1.3630751320145924,4.534608723116541,-0.025409812264932403,0.5203065902144574,-1.4913009528966388
1.3582572631668262,4.437298956661742,-0.025304596658923165,0.504006740888703,-1.5240252857688537
1.35345869155616,4.343079604479815,-0.025206683453352252,0.48777591365789846,-1.5552498748465267
1.3486781916974258,4.25193751857995,-0.025114367691218893,0.4716144642354142,-1.584824803785559
1.3439148650750328,4.163859462792761,-0.02502591254449569,0.4555229651034153,-1.6125929922138857
1.3391681468194152,4.078832069600928,-0.024939542777795285,0.4395022263895568,-1.6383894822650398
1.3344378137132973,3.9968417927236146,-0.024853437286604992,0.4235533196874181,-1.6620406657082547
1.329723993715219,3.917874854857832,-0.024765720587902607,0.40767760521557417,-1.6833634470508092
1.3250271772127566,3.841917189900286,-0.024674453122227616,0.3918767627586081,-1.7021643383622065
1.3203482302467477,3.76895437888437,-0.024577620204181323,0.37615282688261037,-1.7182384823513241
1.3156884099813222,3.6989715787688944,-0.02447311943187606,0.36050822696448376,-1.7313686016174672
1.3110493827336023,3.6319534431090226,-0.024358746333596887,0.34494583261312084,-1.741323874284058
1.3064332449228886,3.5678840335279673,-0.02423217798970448,0.3294690050821943,-1.747858739828139
1.301842547353821,3.5067467207950287,-0.024090954316268412,0.314081655264531,-1.7507116444450534
1.29728032331403,3.4485240742094376,-0.023932456628900648,0.2987883087943091,-1.7496037436110206
1.2927501210480876,3.393197737904053,-0.02375388301259803,0.2835941786307723,-1.7442375918945243
1.288256041272048,3.340748292639912,-0.023552219893082392,0.26850524520230057,-1.7342958683572987
1.2838027805256669,3.291155101696944,-0.02332420901619441,0.25352834367103416,-1.7194402127384092
1.2793956813368932,3.244396139631988,-0.02306630876037099,0.2386712570126982,-1.6993102868802263
1.2750407904182794,3.200447803055887,-0.02277464827766878,0.22394281220942822,-1.673523233081379
1.2707449264643236,3.1592847033040066,-0.022444972290286833,0.2093529746524616,-1.6416737841867057
1.2665157596320513,3.1208794421292723,-0.0220725733125784,0.19491293245001232,-1.6033354004527924
1.2623619055615556,3.0852023736151004,-0.021652206376849382,0.1806351571728668,-1.5580629810090487
1.2582930379878519,3.052221358794167,-0.02117797860950563,0.16653341988957662,-1.505397943488639
1.2543200258709921,3.0219015245349112,-0.02064320156796584,0.15262273020783632,-1.444876809012663
1.2504551039543441,2.994205045868142,-0.02004018702832841,0.13891915049499554,-1.3760448963217102
1.2467120904446827,2.969090981949684,-0.019359955178634758,0.12543941706771775,-1.2984773303690909
1.2431066732079277,2.946515211068366,-0.018591805208260388,0.11220027641982187,-1.2118102709685736
1.2396567982582511,2.926430529511258,-0.01772266794623049,0.09921742418130343,-1.1157859023913086
1.2363832141359452,2.908787000285983,-0.016736112288567945,0.0865039360847415,-1.0103148409590277
1.2333102572765788,2.893532652427755,-0.015610802020551375,0.07406814663345233,-0.8955581834460266
1.2304670136087494,2.880614619461195,-0.014318078693441306,0.06191114775138448,-0.7720264590616344
1.2278890741115749,2.8699807243074353,-0.012818126539975397,0.05002459070922617,-0.6406813011325
1.2256212546652758,2.8615812923350106,-0.011053657105276966,0.03839048268470776,-0.5030053500867719
1.2237220100718418,2.8553704790380046,-0.008938391246659821,0.0269864993890423,-0.36098013323086897
1.2222714371652423,2.851305327508584,-0.006330797243860492,0.015804569341720084,-0.2168965928094646
1.221390271674896,2.849337273349615,-0.0029446289703107726,0.0049117902263610055,-0.07294698469170482
