x,y,v_x,v_y,omega
2.375,32.48,0.0,3.7948717948717947,-2.4897959183673475
2.3741871671815247,31.694509115651954,-0.0077412649378596305,3.685993770347679,-2.287858041553612
2.3719000457993613,30.93128907244366,-0.014040843463694745,3.5827685459217458,-2.1107877530258525
2.3684141582293874,30.189199968050563,-0.01915808577415597,3.484746734012536,-1.9546777792753245
2.363955843345516,29.467191297910603,-0.0233020559770006,3.3915263149394668,-1.816338560750512
2.358711701216167,28.76429266672005,-0.02664215477870252,3.302746363065797,-1.69314985483809
2.3528360626910167,28.07960571096012,-0.029316307365583046,3.2180817870287677,-1.5829461614709712
2.346456932010315,27.412297040122436,-0.03143731816491228,3.137238887615852,-1.483927587947145
2.339680740946959,26.761592040845944,-0.033097834819430405,3.0599515816840706,-1.3945900078382132
2.332596172107843,26.126769416547045,-0.03437424936262241,2.985978173543529,-1.3136699680031714
2.325277248842049,25.507156357430677,-0.03532978174018069,2.915098579945708,-1.240100951840951
2.3177858440806927,24.902124253509136,-0.03601693027273823,2.8471119335927884,-1.1729784477025553
2.310173726353535,24.31108487750572,-0.03647942903352404,2.7818345045349804,-1.111531889276974
2.302484235312206,23.733486976071383,-0.03675381897913463,2.7190978900777516,-1.055101992578799
2.294753659256125,23.168813217181704,-0.036870714888303485,2.6587474326811,-1.0031223559859743
2.287012371885208,22.616577449350743,-0.03685583150138323,2.600640832375661,-0.9551044468462756
2.2792857736759844,22.076322234735233,-0.03673081811026886,2.544646925867305,-0.9106252928326007
2.2715950740675646,21.5476166235673,-0.03651394006515608,2.490644609065369,-0.8693173445917952
2.2639579434342236,21.030054141849604,-0.03622063739523581,2.438521883484139,-0.8308600900113795
2.256389058149491,20.523250968032688,-0.035863984364122234,2.3881750100103,-0.7949730882005615
2.2489005575632355,20.026844277597707,-0.035455068838309914,2.33950775603714,-0.7614101593728931
2.2415024281530713,19.540490737189117,-0.03500330649658923,2.29243072404465,-0.72995451992572
2.234202827272022,19.06386513226368,-0.03451670189435578,2.246860751435741,-0.7004146936470749
2.227008356640325,18.596659114209757,-0.03400206602656819,2.2027203728872915,-0.6726210627837633
2.219924293900634,18.13858005459892,-0.03346519816096434,2.1599373376921536,-0.646422948671647
2.2129547890797827,17.689349995703708,-0.03291103822809784,2.118444175595528,-0.6216861322790611
2.2061030316042776,17.24870468768875,-0.032343794871949015,2.078177805499318,-0.5982907415079677
2.19937139254422,16.8163927039858,-0.03176705331907739,2.039079182147821,-0.576129445327236
2.1927615459668757,16.392174627323673,-0.031183866465153767,2.001092976539117,-0.5551059054676002
2.1862745726315858,15.975822299720686,-0.030596831966175433,1.9641672863464523,-0.5351334450232427
2.1799110487242714,15.567118130479088,-0.030008157627297787,1.9282533730973406,-0.5161339002976283
2.173671121890379,15.16585445686188,-0.029419716981203436,1.8933054232570192,-0.4980366279276853
2.1675545764620865,14.771832952695636,-0.028833096621579665,1.8592803307071981,-0.48077764397749556
2.161560889474782,14.384864080638433,-0.028249636590844777,1.8261374984090057,-0.4642988755131005
2.155689278817919,14.004766584289246,-0.027670464903085917,1.7938386572975367,-0.44854750831460605
2.1499387446571774,13.631367016701581,-0.027096527103978408,1.7623477006802137,-0.4334754169784081
2.144308105090964,13.26449930220641,-0.02652861162186218,1.7316305326071346,-0.41903866581328203
2.1387960268587327,12.904004328753121,-0.02596737154224631,1.7016549288527587,-0.4051970707211985
2.133401051796406,12.549729568247276,-0.025413343337056943,1.6723904092981585,-0.39191381374297296
2.1281216196314223,12.201528722604344,-0.02486696299612027,1.6438081206345352,-0.379155103193433
2.122956087623277,11.85926139345317,-0.024328579938598726,1.6158807284242644,-0.3668898733537999
2.1179027474822165,11.522792773614583,-0.02379846902387918,1.5885823176575231,-0.35508951856542975
2.112959839936774,11.191993358652148,-0.02327684093271861,1.5618883010323499,-0.3437276573074994
2.1081255672682317,10.866738676945886,-0.022763851148634332,1.5357753342653766,-0.3327799224649747
2.103398104085426,10.546909036877892,-0.022259607735232688,1.5102212378107578,-0.32222377452138995
2.098775606575215,10.23238928984291,-0.02176417807629765,1.4852049244271674,-0.3120383348593296
2.0942623441052493,9.923068920822313,-0.02121927401861444,1.4607033519594737,-0.30054160928980916
2.0898620186847077,9.618841505492089,-0.020688587129398802,1.4367006035664651,-0.28958562584536934
2.0855716734683805,9.319604202788316,-0.020171843502291266,1.413178469802816,-0.2791384339639762
2.0813884108207414,9.02525790605431,-0.019668753141886586,1.390119594330568,-0.26917032907714417
2.0773093952909063,8.735707069138037,-0.01917901380892502,1.3675074239196712,-0.2596536697633049
2.073331855839207,8.45085954262434,-0.01870231430249768,1.345326161925057,-0.2505627117639219
2.069453087425534,8.170626419501346,-0.01823833725629159,1.3235607249606032,-0.24187345712889233
2.0656704520545235,7.89492188961632,-0.01778676151524132,1.3021967025158236,-0.23356351695388516
2.0619813793596915,7.623663102327338,-0.01734726414982465,1.2812203192839915,-0.2256119863442076
2.0583833667974316,7.356770036803464,-0.016919522157409564,1.2606183999909961,-0.21799933039078093
2.054873979512103,7.094165379468468,-0.016503213893336557,1.2403783365327699,-0.2107072800766088
2.0514508499250956,6.835774408121711,-0.016098020268639723,1.220488057245849,-0.20371873714909347
2.0481116770935235,6.581524882305072,-0.01570362574633505,1.200935998150726,-0.1970176870967449
2.044854225877947,6.331346939517008,-0.015319719163917599,1.1817110760213037,-0.19058911945998475
2.0416763259531043,6.085172996904429,-0.01494599440601173,1.1628026631461168,-0.1844189547863903
2.038575870690941,5.84293765808998,-0.014582150947926253,1.1442005636581736,-0.17849397761216182
2.0355508159411575,5.604577624817228,-0.01422789428810732,1.1258949913204275,-0.17280177491496804
2.032599178730971,5.370031613118957,-0.013882936285095529,1.1078765486631073,-0.16733067953961228
2.0297190359027204,5.139240273734693,-0.013546995412527574,1.0901362073775094,-0.16206971814802237
2.026908522705292,4.912146116522813,-0.01321979694393263,1.072665289878485,-0.15700856328964566
2.0241658313530397,4.688693438630317,-0.01290107307752142,1.0554554519547958,-0.15213748922807716
2.021489209563869,4.468828256199615,-0.012590563009818959,1.0384986664328446,-0.14744733119522804
2.0188769590864264,4.252498239406734,-0.012288012965822404,1.0217872077850638,-0.14292944777605032
2.0163274342248183,4.039652650639251,-0.01199317619234927,1.0053136376195224,-0.13857568615520613
2.0138390403679844,3.830242285635027,-0.011705812920357857,0.9890707909921368,-0.13437834998248321
2.011412567970042,3.6243547835663747,-0.011403448012424162,0.9717625620426488,-0.15588115636806288
2.0090467732108026,3.4220902628856855,-0.011127930647001766,0.9545662063448628,-0.17916563371128852
2.006736025432014,3.2234255531067575,-0.010879191055744602,0.9374786486925454,-0.20412700852654037
2.004474718400559,3.0283381172811055,-0.010657066386684679,0.9204969305993713,-0.23066321470535078
2.0022572890004917,2.8368060279836413,-0.01046130885205061,0.903618205566968,-0.2586746730734761
2.0000782342824364,2.648807944253015,-0.010291593224665913,0.8868397347246997,-0.2880640771727738
1.9979321270022823,2.4643230894101364,-0.010147523729184224,0.8701588828265381,-0.3187361844355724
1.9958136297718134,2.2833312296811314,-0.010028640370519043,0.8535731145925405,-0.3505976119349083
1.9937175079354006,2.1058126535535315,-0.009934424738173587,0.8370799913845923,-0.3835566359041232
1.9916386412791094,1.9317481517962882,-0.009864305321743141,0.8206771682082104,-0.4175229942237959
1.9895720346715162,1.761118998075819,-0.009817662369620712,0.804362391034351,-0.45240769107273093
1.9875128277291205,1.5939069301012871,-0.00979383231986096,0.7881334944373652,-0.4881228029325576
1.985456303593467,1.4300941312328774,-0.009792111829222037,0.7719883995475033,-0.5245812851221703
1.9833978969019221,1.2696632124869218,-0.009811761423585696,0.7559251123187352,-0.5616967780184555
1.9813332010294715,1.1125971948713662,-0.009852008790228205,0.7399417221151438,-0.5993834120931189
1.9792579746748735,0.9588794919839856,-0.009912051729754153,0.7240364006218065,-0.6375556108614808
1.977168147861046,0.808493892804357,-0.009991060782886991,0.7082074010889443,-0.6761278907973071
1.9750598274166487,0.6614245446082876,-0.010088181544708795,0.6924530579212332,-0.7150146572174316
1.9729293020034395,0.5176559359306623,-0.010202536676330625,0.6767717866275923,-0.7541299950803871
1.9707730467521856,0.37717287949895706,-0.010333227621325792,0.6611620841505412,-0.7933874535736207
1.9685877275686345,0.23996049505531403,-0.010479336031541575,0.6456225295984344,-0.8326998232831977
1.9663702051703933,0.10600419197957933,-0.010639924904088062,0.6301517854085941,-0.8719789046471054
1.9641175389154872,-0.024710348380665437,-0.010814039428350755,0.6147485989746866,-0.9111352662871806
1.9618269904839418,-0.15219719077466465,-0.011000707538748017,0.5994118047777024,-0.950077991693986
1.9594960274749842,-0.2764701646183312,-0.011198940165612617,0.5841403270667531,-0.9887144126022682
1.9571223269844327,-0.3975428831904324,-0.01140773117297162,0.5689331831437043,-1.0269498272404343
1.9547037792296225,-0.5154287635885524,-0.011626056968077543,0.5537894873146088,-1.0646872014642765
1.9522384912928334,-0.630141047592609,-0.011852875763247027,0.5387084555811598,-1.1018268505914264
1.949724791058781,-0.7416928236001326,-0.01208712646582433,0.523689411157181,-1.138266099537338
1.9471612314273523,-0.8500970498170517,-0.012327727166829882,0.508731790908746,-1.173898918614849
1.9445465948895708,-0.955366578909846,-0.012573573192993258,0.493835152832175,-1.2086155320968746
1.9418798985628745,-1.057514184350957,-0.012823534680306756,0.4789991847022031,-1.242301996355708
1.9391603997913571,-1.1565525887192507,-0.013076453619857981,0.4642237140434207,-1.2748397440841577
1.9363876024278424,-1.2524944942520264,-0.01333114031837762,0.4495087196020538,-1.3061050907767298
1.933561263927728,-1.345352615985128,-0.013586369206521374,0.43485434452270366,-1.335968699309658
1.9306814033997355,-1.4351397178639687,-0.01384087391721598,0.4202609114662504,-1.3642949981175987
1.9277483107762838,-1.5218686522617446,-0.014093341544228796,0.4057289399411629,-1.390941548139608
1.9247625572865323,-1.6055524034025055,-0.014342405977215198,0.39125916616131734,-1.4157583534245666
1.9217250074386023,-1.68620413525732,-0.014586640193545941,0.37685256578930865,-1.4385871100875032
1.9186368327445535,-1.7638372445625805,-0.014824547368822556,0.36251037997507657,-1.4592603882547206
1.9154995274529303,-1.8384654197012225,-0.015054550646638281,0.34823414515487344,-1.4776007418184898
1.9123149265898034,-1.910102706291525,-0.01527498138314058,0.33402572713375084,-1.493419741375989
1.909085226651079,-1.9787635804440384,-0.015484065652331111,0.31988736003302853,-1.5065169268501546
1.905813009337532,-2.0444630307749563,-0.01567990876240178,0.30582169073761356,-1.5166786782727932
1.9025012687810645,-2.107216650401803,-0.015860477489669778,0.29183182951803927,-1.5236770064789722
1.8991534427780756,-2.16704074029024,-0.01602357968165342,0.2779214075146899,-1.527268270641715
1.895773448626501,-2.223952425461384,-0.016166840809533487,0.26409464173432284,-1.527191837585654
1.8923657242612557,-2.2779697856925125,-0.01628767695470607,0.2503564080859184,-1.5231687100072864
1.88893527550496,-2.3291120024269176,-0.016383263581444787,0.23671232271791948,-1.5149001690838406
1.885487730406957,-2.377399523611892,-0.016450499256678363,0.2231688314246754,-1.502066504395904
1.882029401849691,-2.4228542480447928,-0.016485963193473306,0.2097333060314884,-1.4843259449211557
1.8785673598832437,-2.4654997304281707,-0.016485865058406452,0.19641414523875056,-1.4613139653858944
1.8751095156485145,-2.505361407563143,-0.016445984796158022,0.18322087509429463,-1.4326432316845832
1.8716647193372034,-2.542466844711612,-0.016361599121089837,0.1701642406054144,-1.397904580647704
1.8682428755295,-2.576845998779426,-0.016227389523703478,0.15725627432612488,-1.3566696218473175
1.8648550806449553,-2.608531491092286,-0.01603732366243694,0.1445103191297097,-1.3084958277357637
1.8615137894700258,-2.637558876410118,-0.015784497051178608,0.13194096961152318,-1.252935375114533
1.858233021345989,-2.663966885450918,-0.01546091365393261,0.11956387839608142,-1.1895495495324546
1.8550286225510253,-2.6877976043673186,-0.015057170107625058,0.10739534937916978,-1.1179312436538595
1.8519186112503845,-2.7090965352519234,-0.014561985136574111,0.09545161142656894,-1.0377389290377002
1.8489236476809991,-2.7279124568688644,-0.01396147742899964,0.08374764206813971,-0.9487462457324664
1.8460676991338698,-2.7442969780453197,-0.013238032543661843,0.07229541675524427,-0.8509114203228534
1.8433790135516244,-2.7583036601485986,-0.012368496811056121,0.061101555656904546,-0.7444686557513184
1.8408915889663282,-2.769986611639304,-0.011321261144146774,0.050164649016481724,-0.630036664718117
1.8386474542399267,-2.779398593329681,-0.01005145053586805,0.03947327184422872,-0.50872364144445
1.83670033770289,-2.7865890379382776,-0.008492516483527432,0.02900715299956319,-0.38218086368926935
1.8351220068712728,-2.791603205455665,-0.0065392057223522485,0.018746823356500356,-0.2525264974619478
1.8340153118060871,-2.7944857620097565,-0.004000747279416385,0.008706096206291288,-0.1220528948593759
