x,y,v_x,v_y,omega
2.375,32.48,0.0,3.230769230769231,-2.612244897959184
2.3743549172214347,31.84170703783368,-0.00645082778565275,3.1521603908939446,-2.4376828542565567
2.3725198578572013,31.218803466699217,-0.011899765856680613,3.07687532045068,-2.2806236333120813
2.3696802788043017,30.610646544232775,-0.01649602467231592,3.0046939042137413,-2.138800048651683
2.365994196965324,30.016635600963617,-0.020364793717460927,2.9354155284778174,-2.010290812285909
2.3615965702344264,29.436208360291406,-0.02361147359151594,2.8688568782443227,-1.893460780226226
2.3566029133763737,28.868837668138934,-0.026325094989010336,2.8048500432803816,-1.7869126412799194
2.3511122944817013,28.314028575780476,-0.028581093957713025,2.743240880304192,-1.6894476521474233
2.345209827610153,27.771315728822422,-0.030443574757773408,2.683887589276337,-1.6000335659769758
2.338968753857186,27.24026102289708,-0.03196716277189571,2.6266594699771164,-1.517778312689044
2.332452184794445,26.72045149276,-0.033198527855511764,2.5714358313936825,-1.4419083023726906
2.3257145678540923,26.211497406480408,-0.034177641548016696,2.518105031402246,-1.371750462965055
2.3188029218557826,25.713030540525086,-0.03493881843508004,2.46656362815096,-1.3067173085066164
2.3117578818390956,25.22470261494236,-0.03551158173179015,2.4167156276763384,-1.246294477915879
2.3046145851500377,24.746183870694445,-0.0359213851587883,2.368471814802784,-1.1900302963597282
2.2974034249448145,24.27716177357249,-0.03619021689344299,2.3217491564167503,-1.1375269992988777
2.2901506926147506,23.81733983114318,-0.03633710640719717,2.2764702678763737,-1.0884333287082228
2.2828791268686377,23.36643651088638,-0.03637855105393024,2.232562934691596,-1.0424382660006157
2.2756083841504715,22.924184249142385,-0.03632887612773249,2.189959682748365,-0.9992657100060286
2.268355442578758,22.490328541737604,-0.036200539589403204,2.1485973912994565,-0.958669943412978
2.2611349495561983,22.064627108233687,-0.036004390636192964,2.1084169437397344,-0.9204317592391703
2.253959521527013,21.646849122674354,-0.03574988965566056,2.0693629118535664,-0.8843551416119513
2.246840002983282,21.236774504510095,-0.03544529578165282,2.0313832697890506,-0.8502644135314524
2.239785690685569,20.834193264081627,-0.03509782719547352,1.9944291344956364,-0.8180017792385544
2.2328045281221334,20.43890489765476,-0.03471379843888284,1.9584545297730427,-0.7874252010045568
2.2259032744493767,20.050717827534275,-0.03429873828868331,1.9234161714317943,-0.7584065601420672
2.219087651505066,19.669448883254226,-0.03385749115442562,1.8892732713687015,-0.7308300602359776
2.2123624719419577,19.294922820255152,-0.03339430447665821,1.855987358622013,-0.7045908373499914
2.205731751073936,18.92697187282323,-0.03291290420355718,1.8235221156971944,-0.67959374754945
2.1991988046442783,18.56543533838845,-0.03241656009301918,1.7918432286506307,-0.6557523067123188
2.192766334403699,18.21015919056444,-0.03190814231277374,1.7609182495894522,-0.6329877614515046
2.1864365031141606,17.860995718566016,-0.03139017058261053,1.7307164703948192,-0.6112282731836711
2.1802110003646793,17.517803190865884,-0.03086485691220443,1.7012088066064832,-0.5904082000659755
2.1740911003905996,17.180445541153148,-0.030334142828589736,1.6723676905208573,-0.5704674637747839
2.1680777129223743,16.848792074835522,-0.029799731853663143,1.6441669726553991,-0.5513509899943845
2.1621714279490325,16.522717194487917,-0.02926311787975697,1.6165818308206914,-0.5330082130801771
2.1563725551613864,16.202100142793867,-0.028725609996701196,1.5895886861197936,-0.5153926367098333
2.150681158737325,15.886824761655529,-0.028188354243914398,1.5631651252635865,-0.49846144347860155
2.1450970880435847,15.576779266263959,-0.027652352693487797,1.5372898286520988,-0.48217514736510253
2.139620004752942,15.271856033026129,-0.027118480212938948,1.5119425037262006,-0.4664972838195481
2.1342494068108837,14.971951400339268,-0.026587499207647084,1.4871038231424045,-0.4513941329304343
2.128990360890943,14.676966003380873,-0.02600295999175999,1.462750146441538,-0.43521019647007614
2.1238471759152326,14.386804043117525,-0.025428889765343406,1.438869456191946,-0.41976310381036624
2.118817741444447,14.101372600611882,-0.02486545494250848,1.415444968864501,-0.40501061720952974
2.113899919507232,13.82058203757179,-0.02431276442964425,1.3924606615364201,-0.39091337826197514
2.109091555329827,13.54434584855387,-0.023770877344407616,1.3699012286427823,-0.3774346804950503
2.104390486616039,13.272580521524954,-0.023239809793470553,1.347752041646375,-0.36454026231459785
2.099794551554194,13.005205406220544,-0.022719540824979276,1.325999111397731,-0.35219811826911823
2.0953015957060157,12.742142589783029,-0.022210017656804765,1.3046290529774316,-0.34037832682532443
2.0909094779134554,12.483316779202188,-0.021711160268795267,1.283629052830987,-0.32905289304416263
2.086616075342967,12.228655190116786,-0.021222865436093866,1.2629868380230276,-0.31819560471942904
2.082419287772266,11.978087441569244,-0.02074501027091531,1.242690647452396,-0.3077819006939095
2.0783170412119962,11.731545456335688,-0.020277455331779513,1.22272920488315,-0.29778875020306295
2.0743072909436284,11.48896336648151,-0.019820047351898323,1.2030916936586409,-0.2881945422158885
2.070388024045233,11.250277423817963,-0.019372621632056695,1.1837677329768503,-0.27897898384866315
2.0665572614682484,11.015425914958762,-0.018935004137790864,1.1647473556151582,-0.2701230070213896
2.062813059720886,10.784349080697066,-0.018507013335833745,1.1460209870018008,-0.2616086826104849
2.059153512207245,10.556989039442932,-0.018088461800577438,1.1275794255395275,-0.253419141425733
2.0555767502654256,10.33328971447953,-0.017679157617612747,1.1094138240944826,-0.245538501405908
2.0520809439428467,10.113196764813065,-0.017278905608176288,1.0915156725701842,-0.23795180048670572
2.0486643025424787,9.896657519406773,-0.01688750839550668,1.0738767814927173,-0.2306449346475354
2.0453250749697647,9.683620914603605,-0.01650476733163062,1.0564892665389587,-0.2236046006910427
2.0420615499065096,9.474037434555221,-0.016130483300922364,1.0393455339448618,-0.21681824335160815
2.0388720558349305,9.267859054487175,-0.01576445741486751,1.022438266735592,-0.21027400636704519
2.0357549609323655,9.06503918664125,-0.015406491610780346,1.0057604117236656,-0.20396068718180377
2.0327086728547132,8.865532628746358,-0.015056389165744314,0.9893051672252453,-0.19786769498060303
2.029734483581344,8.669468834533944,-0.014685503567950427,0.9713327748988985,-0.22634128350774807
2.0268311297393624,8.476988587840822,-0.014348034851861898,0.9534696920323202,-0.2563826345590646
2.023991987796483,8.28807031863332,-0.014043384576934007,0.9357130000426872,-0.287887613668996
2.0212105602510064,8.102693029487966,-0.013770890877831198,0.9180598914108535,-0.32075433612160337
2.018480487699397,7.920836273775265,-0.01352983463826089,0.9005076657161646,-0.3548829443611274
2.0157955597221475,7.742480134600093,-0.013319445134238267,0.8830537260355397,-0.3901753897409856
2.013149724690419,7.567605204426787,-0.013138905183045016,0.8656955756975178,-0.42653521772160385
2.0105370985890394,7.3961925653186,-0.01298735583075317,0.8484308153843363,-0.4638673556282418
2.0079519729451674,7.228223769722412,-0.012863900607966,0.8312571405775313,-0.5020779020741113
2.0053888219463354,7.063680821730156,-0.012767609380354473,0.8141723393450366,-0.5410739171413603
2.0028423088265384,6.902546158748617,-0.012697521817614323,0.797174290470353,-0.5807632123925806
2.000307291594616,6.744802633508872,-0.012652650501609252,0.780260961927089,-0.6210541397579967
1.9977788281752877,6.5904334963456535,-0.012631983691674271,0.7634304097050859,-0.6618553783079136
1.99525218102989,6.439422377675399,-0.012634487762303222,0.7466807769974708,-0.7030757178757461
1.9927228213210888,6.291753270599514,-0.012659109325708759,0.730010293761387,-0.7446238384433509
1.9901864326836185,6.147410513556487,-0.0127047770489931,0.7134172766688834,-0.7864080841366156
1.987638914661432,6.0063787729427425,-0.012770403172873509,0.696900129468571,-0.8283362306044253
1.985076385870541,5.868643025617562,-0.012854884736035587,0.6804573437832505,-0.8703152444671881
1.9824951869463168,5.734188541201849,-0.012957104506205453,0.664087500373864,-0.9122510334208831
1.9798918833341062,5.60300086407387,-0.013075931615900758,0.6477892709059249,-0.9540481854678209
1.9772632679827664,5.475065794957164,-0.013210221897498995,0.631561420261152,-0.9956096956145442
1.974606364002146,5.350369371986599,-0.013358817908703618,0.615402809444507,-1.0368366782290288
1.9719184273477115,5.228897851127613,-0.013520548635643186,0.599312399145359,-1.0776280630819433
1.9691969495984822,5.11063768581095,-0.013694228856648932,0.5832892540212715,-1.1178802729085295
1.9664396608983015,4.995575505630413,-0.013878658145157688,0.5673325477841051,-1.1574868801170295
1.963644533135275,4.883698093933898,-0.014072619485107608,0.5514415691810286,-1.1963382400349856
1.960809783440109,4.77499236411801,-0.014274877466551482,0.5356157289778704,-1.2343210978249621
1.9579338780911626,4.669445334413286,-0.014484176022913532,0.5198545680693671,-1.27131816591559
1.955015536922446,4.567044100920288,-0.014699235664253681,0.5041577668606144,-1.3072076684825389
1.9520537383407248,4.467775808625547,-0.014918750152956302,0.4885251560867972,-1.3418628491787241
1.9490477250695006,4.371627620090415,-0.015141382559287276,0.47295672926452476,-1.3751514379576304
1.945997010751162,4.278586681464134,-0.015365760624099658,0.4574526569982705,-1.4069350724652812
1.9429013875543097,4.1886400854243035,-0.015590471344421718,0.44201330340001616,-1.4370686691073018
1.9397609349514173,4.101774830592333,-0.015814054684502137,0.4266392449196814,-1.465399738547271
1.9365760298529833,4.0179777769075,-0.016034996299837834,0.4113312919286678,-1.4917676400914672
1.933347358308557,3.9372355963697245,-0.016251719144426656,0.3960905134490762,-1.516002769209366
1.930075929012961,3.8595347184771427,-0.016462573811532703,0.38091826547674795,-1.5379256723980295
1.9267630888883023,3.784861269588813,-0.016665827435054216,0.3658162234065383,-1.5573460838247326
1.9234105410496602,3.7132010053350086,-0.016859650951365712,0.3507864191314985,-1.5740618788277465
1.9200203655056058,3.644539235076792,-0.017042104489177954,0.33583128345067237,-1.5878579406439084
1.9165950429950942,3.578860737284,-0.017211120615938408,0.32095369447723965,-1.5985049389922459
1.9131374824213792,3.5161496645582773,-0.017364485121211394,0.30615703277998374,-1.6057580228583985
1.9096510524135895,3.456389436880233,-0.01749981495668616,0.2914452440004681,-1.6093554357044142
1.9061396176305978,3.399562621516182,-0.01761453287322982,0.27682290964002493,-1.6090170704159867
1.9026075805244202,3.3456507978958143,-0.017705838188547516,0.26229532656365695,-1.6044429951302681
1.8990599294086048,3.294634405693671,-0.017770672969606646,0.24786859545778475,-1.595312001925248
1.895502293841897,3.246492574357383,-0.017805682697470432,0.23354971790507809,-1.5812802615325052
1.8919410085563713,3.2012029324921336,-0.017807170157787284,0.21934670074741747,-1.5619802136722076
1.8883831874606283,3.1587413959413695,-0.01777104079964335,0.20526866476020764,-1.5370198915164102
1.8848368096792765,3.119081934265413,-0.017692737013874235,0.19132595199935715,-1.5059829806847431
1.8813108202274045,3.0821963168680853,-0.0175671575048456,0.1775302219739112,-1.4684300632149947
1.8778152488931739,3.048053842643313,-0.017388555837460375,0.1638945202738126,-1.4239017164448113
1.8743613524319822,3.0166210612774265,-0.017150408774457938,0.15043329338503555,-1.371924454429828
1.8709617876313387,2.9878615010567557,-0.01684523923197598,0.1371623088216606,-1.312020951044941
1.8676308268095982,2.9617354282706536,-0.016464368985430137,0.12409841903935089,-1.2437266055251186
1.8643846339090362,2.9381996783313475,-0.015997560020189993,0.11125908035369336,-1.1666153182515282
1.8612416302707993,2.9172076196002337,-0.015432476362177023,0.09866150695744373,-1.080338273725519
1.8582229972805675,2.8987093372443304,-0.014753853540142681,0.08632131660158912,-0.9846803007814311
1.8553533929479056,2.882652151511323,-0.013942189786475606,0.0742505407284933,-0.879638221064064
1.85266200862912,2.8689815972093733,-0.01297165340138164,0.06245500229098809,-0.7655227410375592
1.850184173918654,2.8576429513417203,-0.011806693703277714,0.050931456385546026,-0.6430765944375664
1.8479638629847153,2.848583227194325,-0.01039641563610972,0.03966578508840621,-0.5135823779465374
1.8460577636770548,2.8417531194439967,-0.008664577440495515,0.02863529241488784,-0.37890235596330146
1.8445424581047418,2.8371074184253118,-0.006488478282632383,0.01782171777195591,-0.2413609408467056
1.8435300003911446,2.834599776462774,-0.0036360988533414643,0.007254701853408508,-0.10338016572665853
