x,y,v_x,v_y,omega
2.375,32.48,0.0,3.8974358974358974,-5.3061224489795915
2.372884550251348,31.597919056303898,-0.018395215205668516,3.7728331781823634,-4.823966548075176
2.36697316832612,30.743648608914736,-0.03300810588327425,3.655605494766869,-4.4084514408427395
2.3580492728196125,29.915570507649154,-0.04459098547765871,3.5450736466729635,-4.047876545686663
2.346741801776087,29.11221291653055,-0.053734849683429585,3.440644536967077,-3.7329407547453335
2.3335579726214166,28.332232165983456,-0.06090714296587865,3.3417967721380863,-3.456187701440392
2.318908464443189,27.574397564185027,-0.06647988467088466,3.2480693304569273,-3.2115929165361106
2.303126932330129,26.837578553600913,-0.07075082935572533,3.15905250070928,-2.9942531816093303
2.28648524080747,26.120733754501273,-0.07395953171087313,3.0743805349397952,-2.8001504366849397
2.2692054356392197,25.422901546830968,-0.07629964366521595,2.9937256187150236,-2.625970701932545
2.2514692108130427,24.743191920570595,-0.07792839830154288,2.9167928705056236,-2.4689640178630503
2.2334254378934135,24.080779382472574,-0.07897397491262155,2.8433161564336724,-2.3268352603632065
2.2151961864094116,23.434896750173174,-0.07954125538304657,2.7730545592132954,-2.197658399373942
2.196881561762691,22.804829697410803,-0.07971635024061366,2.705789377850777,-2.079808703513991
2.1785636110939857,22.189911939301524,-0.0795701773133461,2.641321562229909,-1.971908786489045
2.1603094904878946,21.589520966321416,-0.07916130621788146,2.5794695071623517,-1.8727854056916844
2.142174043762832,21.003074251220262,-0.07853823052179246,2.5200671458911756,-1.7814346689482146
2.1242019102599894,20.430025865540408,-0.07774119124205403,2.4629622948031735,-1.6969938579723591
2.106429253889778,19.869863452464394,-0.07680364675978558,2.4080152102056847,-1.6187184899748954
2.088885186303538,19.3221055108994,-0.0757534626857802,2.355097325142064,-1.545963549701508
2.0715929420252963,18.786298952425724,-0.07461387886414825,2.3040901398464437,-1.4781680598161653
2.0545708516603383,18.262016898291648,-0.07340429822244249,2.2548842439280947,-1.4148423373910803
2.0378331501162767,17.748856688261153,-0.07214093259548462,2.2073784519892667,-1.3555574223887283
2.0213906495436356,17.246438076991538,-0.07083733325356883,2.161479037311726,-1.2999362707412458
2.0052513009849906,16.754401596876825,-0.06950482812595117,2.1170990506422838,-1.2476463875592363
1.9894206641785543,16.27240706904907,-0.06815288323436396,2.074157713077328,-1.1983936407914495
1.9739023013370387,15.800132246572428,-0.06678940234403424,2.0325798736760845,-1.1519170465395294
1.958698107818369,15.33727157586404,-0.06542097607917911,1.992295523788155,-1.1079843573923591
1.9438085902689668,14.883535064088722,-0.06405308956779619,1.9532393612146195,-1.0663883169935784
1.9292331009346004,14.438647241747475,-0.06269029594843441,1.915350398274495,-1.0269434694296597
1.9149700353060386,14.002346210950918,-0.06133636169123341,1.8785716086520796,-0.9894834323302819
1.9010169990247061,13.574382770969034,-0.05999438858122363,1.8428496085816894,-0.9538585588895432
1.8873709489604666,13.154519613604009,-0.05866691632520617,1.8081343685054723,-0.919933927182676
1.8740283125447244,12.742530581764935,-0.05735600902907394,1.7743789518343078,-0.8875876058187123
1.8609850887616814,12.338199985349494,-0.05606332821477935,1.7415392778651666,-0.8567091536428577
1.848236933640561,11.941321969173721,-0.054790194577570464,1.7095739062719941,-0.8271983182813595
1.8357792326293176,11.551699928248873,-0.05353764030280636,1.67844384090059,-0.7989639041201063
1.8236071618476966,11.169145966195398,-0.052306453450421286,1.6481123508687663,-0.7719227850741003
1.8117157398999626,10.793480393016601,-0.05109721566031004,1.618544807207721,-0.7459990414352977
1.8000998716634136,10.424531258837007,-0.0499103342227238,1.5897085334844034,-0.7211232033380981
1.788754385248461,10.062133920548753,-0.04874606938555841,1.5615726690221547,-0.6972315860806005
1.7776740631418706,9.706130638609643,-0.04760455762827303,1.5341080434918482,-0.6742657047864944
1.7668536683904463,9.356370201503232,-0.04648583151454709,1.5072870617812986,-0.6521717577683886
1.7562879665528806,9.012707575608886,-0.04538983663819822,1.4810835981695467,-0.6309001695242092
1.7459890496178305,8.675005096637985,-0.04416596279702003,1.4554596972295977,-0.6059973182069082
1.7359675607829952,8.343130532749402,-0.04297741837545919,1.4304060757146024,-0.5823565890463049
1.7262154682739124,8.016955290683427,-0.041823386051348686,1.4059003770330027,-0.5598978084715294
1.7167249321058438,7.696355789077572,-0.04070301541011869,1.3819213760613842,-0.5385468618896285
1.7074883105290852,7.381213206458423,-0.039615433083432364,1.358448907583396,-0.5182351637596299
1.6984981643303558,7.07141324507397,-0.038559751253346326,1.335463800107495,-0.4988991801420421
1.6897472593384264,6.766845909383157,-0.03753507476342939,1.312947814595213,-0.4804799979350787
1.6812285674307488,6.467405298121747,-0.03654050704246363,1.2908835876779028,-0.462922935711236
1.6729352662940222,6.172989408955964,-0.03557515501602681,1.269254578981069,-0.4461771916774326
1.6648607381542924,5.8834999548187525,-0.03463813315553872,1.2480450222120552,-0.4301955248119473
1.6569985676602659,5.598842191098914,-0.03372856679251624,1.227239879699581,-0.4149339656930884
1.6493425390762968,5.318924752921632,-0.032845594807214246,1.2068248001028707,-0.40035155393740013
1.6418866329181896,5.0436595018208585,-0.03198837178502285,1.1867860790342886,-0.38641009951735705
1.6346250221450522,4.7729613811601865,-0.03115606972051935,1.1671106223628627,-0.373073965536814
1.627552068003371,4.506748279709935,-0.030347879337578654,1.1477859119871456,-0.36030987031286044
1.6206623156048747,4.244940902834664,-0.029563011084127837,1.1287999738847856,-0.3480867068502144
1.6139504893072503,3.9874626507876414,-0.028800695851736433,1.1101413482632267,-0.3363753780032104
1.6074114879560497,3.734239503647469,-0.028060185463050634,1.091799061651309,-0.325148645804498
1.6010403800369475,3.485199912467248,-0.027340752963926945,1.0737626007853946,-0.31438099360197264
1.5948323987796333,3.24027469623897,-0.026641692751846892,1.0560218881561656,-0.30404849978895687
1.5887829372478888,2.9993969443052535,-0.025962320567670186,1.0385672590935535,-0.29412872203962576
1.5828875434446084,2.762501923877579,-0.025301973373900184,1.0213894402775203,-0.28460059107417285
1.5771419154555901,2.5295269923449197,-0.024660009139299714,1.0044795295716957,-0.27544431307803446
1.5715418966516854,2.3004115140793644,-0.024035806546828707,0.9878289770853144,-0.2666412799881676
1.5660887076353107,2.0752000138378897,-0.023383228378169044,0.9705318945796889,-0.27622628045309616
1.5607818752319087,1.85395227719032,-0.022763140347066536,0.953361467573079,-0.2881226306690834
1.5556139134674036,1.6366396077771412,-0.02217565760515009,0.9363139186284757,-0.30220300588892296
1.550577324813407,1.423234160252651,-0.02162076547308112,0.9193856250627573,-0.3183441958407845
1.5456646286968105,1.2137089055360306,-0.021098331192975342,0.9025731116034923,-0.33642680582213086
1.5408683874168596,1.008037597688233,-0.020608114719641017,0.8858730435947397,-0.3563349699671089
1.5361812296823558,0.8061947422918223,-0.020149778623870965,0.8692822207218647,-0.3779560754549329
1.5315958719654938,0.6081555662175084,-0.019722897174926455,0.8527975712287054,-0.40118049648100484
1.527105137854051,0.4138959886667948,-0.019326964663709433,0.8364161466035989,-0.4259013368582653
1.5227019755700923,0.2233925933852916,-0.018961403022887832,0.8201351167138108,-0.4520141801538567
1.5183794738109921,0.036622601945552447,-0.018625568795373228,0.8039517653708613,-0.4794168462958154
1.5141308760572532,-0.14643615199798887,-0.01831875949801067,0.7878634863121218,-0.5080091536063398
1.5099495934813265,-0.3258052475763762,-0.018040219423088977,0.7718677795869082,-0.5376926852322389
1.505829216582299,-0.5015057007877601,-0.017789144916280995,0.7559622483381538,-0.5683705589494226
1.5017635256628548,-0.673557987883612,-0.017564689165843493,0.74014459597363,-0.5999471993166158
1.4977465002573367,-0.8419820681488019,-0.01736596653431262,0.724412623723651,-0.6323281111436516
1.4937723276129342,-1.0067974061643312,-0.01719205646049234,0.708764228585274,-0.6654196532214084
1.4898354103200124,-1.1680229936421043,-0.017042006956218287,0.6931974016562363,-0.6991288112332966
1.4859303731823443,-1.3256773709220795,-0.01691483771915736,0.6777102268653105,-0.7333629687316606
1.482052069413471,-1.4797786482241762,-0.016809542879742973,0.662300880109449,-0.7680296750159203
1.4781955862416205,-1.6303445267501573,-0.016725093397214768,0.6469676288121049,-0.803036408692004
1.4743562500025322,-1.777392319734524,-0.016660439116596926,0.6317088319215092,-0.8382903356237669
1.470529630797167,-1.9209389735483384,-0.01661451049527585,0.6165229403725527,-0.8736980599056776
1.4667115467896825,-2.061001088965938,-0.01658622000458896,0.6014084980413354,-0.9091653663909899
1.4628980682201804,-2.1975949427118593,-0.016574463208471658,0.5863641432275224,-0.9445969531996821
1.4590855212066722,-2.3307365094142725,-0.016578119517686105,0.5713886107065022,-0.9798961525043178
1.4552704914114793,-2.4604414841016506,-0.01659605261442575,0.556480734401111,-1.0149646377482286
1.4514498276489387,-2.5867253053919015,-0.016627110538101356,0.5416394507315339,-1.0497021152875725
1.447620645513894,-2.709603179537922,-0.016670125418809696,0.5268638027120983,-1.0840059982653945
1.4437803311140964,-2.829090105510467,-0.01672391284029991,0.5121529448752576,-1.1177710603204118
1.4399265449944139,-2.9452009013195024,-0.01678727080911206,0.4975061491163566,-1.1508890665046945
1.4360572263467644,-3.057950231798209,-0.016858978300885067,0.48292281156806455,-1.1832483785319672
1.4321705976070822,-3.1673526381011,-0.016937793348523335,0.4684024606309716,-1.2147335312018985
1.4282651695495676,-3.273422569198978,-0.01702245062986578,0.45394476630711833,-1.2452247765466293
1.4243397469991046,-3.376174415690052,-0.017111658504594736,0.43954955100657034,-1.274597591926892
1.420393435295337,-3.4756225462885624,-0.017204095441212004,0.4252168020239734,-1.3027221479721414
1.4164256476566424,-3.5717813474012914,-0.017298405764827975,0.4109466859127784,-1.3294627319220078
1.4124361136095054,-3.6646652662585524,-0.01739319464505797,0.39673956501993085,-1.354677121601099
1.4084248886688442,-3.754288858131467,-0.0174870222302571,0.3825960164836601,-1.378215904970672
1.404392365478139,-3.8406668382418943,-0.017578396819353873,0.36851685404181195,-1.3999217399870862
1.4003392866452054,-3.923814139057214,-0.01766576694528659,0.35450315304792923,-1.4196285494155514
1.3962667595407359,-4.003745973759571,-0.01774751222401284,0.34055627914651104,-1.4371606453837846
1.392176273363022,-4.080477906789795,-0.017821932799586104,0.3266779211163127,-1.4523317789399812
1.3880697188144557,-4.154025932489766,-0.017887237187945496,0.31287012844863155,-1.4649441108887848
1.3839494107846644,-4.224406563003747,-0.01794152828850223,0.29913535428165267,-1.4747871019908452
1.3798181144929835,-4.291636926746875,-0.01798278729133095,0.2854765043542246,-1.481636323627134
1.3756790756115718,-4.3557348789034975,-0.018008855155727897,0.27189699265987827,-1.4852521948374655
1.3715360549728086,-4.416719125571532,-0.018017411268300025,0.2584008044534667,-1.4853786591093805
1.3673933685651862,-4.474609363306506,-0.01800594879798209,0.2449925671550222,-1.4817418256924926
1.3632559336474188,-4.529426435916733,-0.017971746139125895,0.23167762945563852,-1.4740486174206897
1.3591293219714498,-4.581192510378905,-0.01791183365190873,0.21846214847626638,-1.4619854928050222
1.3550198213180584,-4.6299312736177285,-0.017822954638450104,0.20535318403522626,-1.4452173485858661
1.3509345068407006,-4.675668151522942,-0.017701519077704123,0.19235879774922449,-1.4233867659873196
1.3468813241279882,-4.7184305508051025,-0.017543547989360374,0.17948815253041672,-1.39611384834177
1.3428691865054727,-4.758248122876019,-0.01734460524990417,0.16675160460796398,-1.3629970221822738
1.3389080900242778,-4.795153046514272,-0.017099711977877734,0.15416077485512328,-1.3236153562337092
1.3350092510306673,-4.829180322097912,-0.016803235792649543,0.14172857804611685,-1.2775332174241234
1.3311852735181773,-4.86036806387532,-0.01644874257682833,0.12946917654006523,-1.2243084612458366
1.3274503572060166,-4.888757767041767,-0.016028790572395885,0.11739780751601234,-1.1635058795561597
1.323820563423611,-4.914394511994608,-0.015534633622434315,0.1055304094652439,-1.0947183243500975
1.320314166002137,-4.937327047821128,-0.014955778738210836,0.09388294554797508,-1.0175987599356073
1.3169521310789776,-4.9576076706317025,-0.014279307550131995,0.0824702962831109,-0.9319072832024377
1.3137587971888622,-4.97529178310225,-0.013488813233480007,0.07130459476515331,-0.8375773369658266
1.3107628719435025,-4.990437001840277,-0.012562710639213687,0.06039295947857226,-0.7348036016641124
1.307998935393076,-5.003101700693989,-0.011471520234059273,0.04973485664065756,-0.6241477717311457
1.3055097668390792,-5.013343008365538,-0.010173423713741093,0.03931999267713531,-0.5066436749486523
1.3033500629933472,-5.021214640642569,-0.008606609727406619,0.02912898364488177,-0.38385723951027173
1.301592774866089,-5.0267657626533975,-0.006674156596577737,0.01914164253623145,-0.25782597406027064
1.3003417766308003,-5.030044057569015,-0.004204088927671201,0.009365269773479871,-0.13079094677730152
1.2997701714890086,-5.031115596338488,-0.0007663905661690297,-4.754134326309667e-05,-0.004710007901595148
