x,y,v_x,v_y,omega
2.375,32.48,0.0,3.8974358974358974,-3.7142857142857144
2.373760031215793,31.673559896260212,-0.011809226516258141,3.782946042942999,-3.4052978715392337
2.3702756728870673,30.890518605225033,-0.021375138519225727,3.6745900621539627,-3.13536591718308
2.3649747763985673,30.12964116805433,-0.029109589942675877,3.5718617204241543,-2.898199066399678
2.358207262139209,29.38979303366666,-0.03534292681311654,3.474310988029834,-2.68869103351539
2.3502603894268863,28.66992909687524,-0.04034157520900483,3.3815360290313197,-2.502668774015368
2.341370766100947,27.969084268979888,-0.04432150408565524,3.2931766175910906,-2.336700074069848
2.3317338542039225,27.286365313633233,-0.047458609219342,3.2089086714246418,-2.187944961486707
2.321511538453933,26.620943737583733,-0.049896778875796036,3.1284396719039465,-2.0540400585229324
2.310838185691418,25.9720495683828,-0.05175419981482182,3.051504796676379,-1.9330079147172872
2.299825521352874,25.338965883458386,-0.053128317695122586,2.977863631175186,-1.823185435973475
2.288566573048193,24.721023979905624,-0.05409976139707254,2.9072973550415906,-1.7231670225092486
2.277138874335824,24.117599093866374,-0.05473546443501814,2.8396063215226763,-1.6317591166953727
2.2656070787295977,23.528106593829026,-0.055091160386186326,2.774607964547304,-1.5479436608342299
2.254025101202437,22.951998584555753,-0.05521338749153073,2.712134980912418,-1.4708485565671814
2.2424378793514337,22.38876086834818,-0.05514110632754812,2.652033744874002,-1.399723659197801
2.230882827042936,21.837910218519205,-0.054907010896241545,2.5941629201638645,-1.3339211723041238
2.219391038359008,21.298991926642127,-0.05453859561735887,2.5383922405702033,-1.272879559510456
2.2079882879763173,20.771577590695962,-0.054059027074932195,2.484601435107545,-1.2161102820255203
2.1966958649483113,20.255263115846923,-0.0534878589060776,2.4326792777404864,-1.1631868176524809
2.185531269648132,19.749666903477596,-0.05284162014324807,2.382522744824505,-1.1137355305062817
2.174508797922402,19.254428207336467,-0.052134301054181806,2.334036266043398,-1.0674280487953676
2.163640031969859,18.769205638440376,-0.05137775563670362,2.2871310567764986,-1.0239748767969672
2.152934253837901,18.293675802709572,-0.0505820360962278,2.2417245216121136,-0.9831200211056
2.1423987945277427,17.827532057318432,-0.04975567161956721,2.197739720208282,-0.944636453768394
2.132039329363254,17.370483373462424,-0.04890590137556418,2.1551048879441854,-0.9083222686141623
2.121860128391812,16.922253294719056,-0.048038869781024125,2.1137530048498023,-0.8739974138958261
2.111864269055775,16.482578981455617,-0.04715979056218533,2.0736214071829626,-0.8415009057968755
2.102053817128574,16.05121033284053,-0.046273084934969004,2.034651436770227,-0.810688444554926
2.0924299808933404,15.627909178973958,-0.045382498257731496,1.9967881238637843,-0.7814303688198917
2.0829932427097697,15.212448536488274,-0.0444911987286559,1.959979899809388,-0.7536098950825942
2.0737434714311576,14.804611921698324,-0.04360186106765128,1.924178336285364,-0.7271215981213431
2.0646800185700633,14.404192716019768,-0.04271673760943444,1.8893379082723274,-0.7018700958419506
2.055801800645332,14.010993578934123,-0.04183771881657762,1.8554157782576375,-0.6777689079634663
2.0471073697571964,13.624825904272061,-0.0409663848799551,1.8223715994762872,-0.6547394629904941
2.038594974116394,13.245509316021025,-0.040104049794351476,1.790167336247884,-0.6327102320218163
2.030262609985932,12.872871200247179,-0.03925179906719101,1.7587670996934908,-0.6116159713402611
2.0221080662708335,12.506746270061676,-0.03841052202898681,1.7281369973112892,-0.5913970585430323
2.0141289628042367,12.146976160862646,-0.03758093955764766,1.698244995060417,-0.5719989093115676
2.0063227832212718,11.793409053352406,-0.03676362789916218,1.6690607907514106,-0.5533714638711127
1.9986869031801096,11.445899322067906,-0.03595903915952498,1.6405556976723898,-0.5354687338218327
1.9912186145782804,11.104307207375332,-0.03516751895313517,1.6127025374949657,-0.518248401391542
1.9839151463183018,10.76849850906984,-0.03438932161808877,1.5854755416049429,-0.5016714643106348
1.976773682097051,10.438344299891654,-0.03362462334620623,1.5588502600920644,-0.48570192047973926
1.9697913756257666,10.113720657422245,-0.032873533523168144,1.5328034777118362,-0.4703064874204394
1.9629653636301791,9.794508412961267,-0.03213610453004639,1.5073131362022245,-0.45545435219405517
1.9562927769313825,9.480592916108048,-0.031412340220397114,1.4823582623998692,-0.4411169480635021
1.9497795119479642,9.17186445308997,-0.03061875485977711,1.457912813962785,-0.4248852632077573
1.9434306735161933,8.868217356805381,-0.029846373061852213,1.4339642935094987,-0.4094158192760101
1.9372418567566998,8.569549176081726,-0.02909473893332262,1.410494570525315,-0.39466364107933855
1.9312087543641199,8.275761177988528,-0.028363379091248173,1.3874863636956178,-0.38058691086409147
1.925327159759451,7.986758174733055,-0.027651807619883305,1.3649231911184176,-0.3671467115749473
1.9195929692797478,7.702448360647512,-0.02695953028205367,1.3427893239819784,-0.3543067937685918
1.914002183550894,7.422743158569428,-0.02628604808798231,1.321069743428336,-0.3420333637493094
1.908550908169086,7.147557074972806,-0.025630860310189525,1.29975010034901,-0.3302948907722845
1.903235353799326,6.876807563258538,-0.024993467020856752,1.278816677882106,-0.3190619314011024
1.898051835784293,6.610414894658852,-0.024373371217553126,1.2582563564005993,-0.3083069693173427
1.8929967733440574,6.348302036252775,-0.023770080594215915,1.2380565808001212,-0.2980042690661054
1.8880666884359787,6.090394535628079,-0.0231831090065331,1.21820532991129,-0.28812974238512284
1.8832582043345,5.8366204117603395,-0.02261197767421402,1.1986910878767125,-0.27866082590963365
1.8785680439822336,5.586910051711911,-0.022056216156894726,1.1795028173464135,-0.26957636917288186
1.873993028156535,5.341196112782971,-0.021515363135476317,1.1606299343577924,-0.26085653193507785
1.8695300734895355,5.099413429773779,-0.02098896702642342,1.1420622847773767,-0.2524826899737472
1.8651761903742106,4.8614989270420175,-0.020476586452860716,1.1237901221917768,-0.2444373485571904
1.860928480784383,4.627391535061715,-0.019977790593115462,1.1058040871444452,-0.2367040629016578
1.8567841360325237,4.397032111211111,-0.019492159424594015,1.0880951876232046,-0.2292673649830029
1.8527404344856997,4.1703633645360085,-0.019019283878490265,1.0706547807111106,-0.22211269613606588
1.8487947392569892,3.9473297842527266,-0.018558765918752898,1.0534745553201488,-0.21522634493075332
1.8449444958870411,3.727877571771085,-0.018110218556942618,1.0365465159335663,-0.20859538986352316
1.8411872300281917,3.511954576032778,-0.017673265813052366,1.0198629672884114,-0.2022076464474439
1.8375205451415648,3.2995102319743097,-0.017247542631011064,1.0034164999351054,-0.19605161832378123
1.833942120215885,3.090495501936477,-0.016832694756416616,0.9871999766156834,-0.1901164520537063
1.830453149066674,2.885001139501437,-0.01639560190273605,0.9698891894323222,-0.21060729805582665
1.8270527309371798,2.683130259006642,-0.015989332663876782,0.9526906248038175,-0.23290506062192057
1.8237344187489424,2.4848596184622274,-0.015613640557431151,0.9356011899049076,-0.25690325543375864
1.8204918261658265,2.290166612932204,-0.015268193567480567,0.9186179103810199,-0.2824981801090014
1.8173186447409058,2.0990292501622854,-0.014952581907955951,0.9017379255229734,-0.3095886876040198
1.8142086594993059,1.9114261271808672,-0.014666325154899632,0.8849584838238664,-0.3380759662113305
1.8111557630848072,1.7273364077945565,-0.01440887879270683,0.8682769389028934,-0.3678633252845261
1.8081539685889343,1.5467398009025288,-0.01417964021560534,0.8516907457830827,-0.39885598584189563
1.8051974211729802,1.369616539556528,-0.013977954222053937,0.8351974575121739,-0.43096087521240933
1.8022804085858453,1.195947360695353,-0.013803118036375591,0.818794722118058,-0.4640864248943441
1.7993973706737054,1.0257134854842533,-0.013654385888764104,0.8024802798924318,-0.4981423707974812
1.7965429079712978,0.8588966001906968,-0.013530973181787058,0.7862519609985809,-0.5330395550343524
1.793711789459004,0.6954788375286824,-0.013432060268629227,0.770107683401539,-0.5686897284142356
1.7908989595649145,0.5354427584037857,-0.01335679586555486,0.7540454511212988,-0.6050053527752101
1.7880995444866004,0.37877133399075547,-0.013304300118390604,0.7380633528123125,-0.641899402264222
1.7853088579034462,0.2254479280745585,-0.013273667340219399,0.722159560675244,-0.6792851626423282
1.7825224061470584,0.07545627958412382,-0.01326396843490505,0.7063323297098709,-0.7170760276515635
1.7797358928944496,-0.07121951475414079,-0.013274253018512427,0.6905799973212213,-0.7551852914305967
1.7769452234464527,-0.21459501771879275,-0.013303551248123229,0.6749009832945232,-0.7935259359077778
1.7741465086520805,-0.35468546893135056,-0.013350875364944535,0.6592937901584061,-0.8320104120315457
1.771336068538388,-0.4915058023137888,-0.013415220955937696,0.6437570039600852,-0.8705504136185142
1.7685104357047947,-0.6250706637551104,-0.013495567935426868,0.6282892954810658,-0.9090566425078832
1.765666358540824,-0.7553944290829904,-0.013590881245245608,0.6128894219273162,-0.9474385636059929
1.762800804326838,-0.882491222444429,-0.013700111268908688,0.597556229133976,-0.985604148285613
1.759910962278641,-1.0063749352083136,-0.013822193952013484,0.5822886543316164,-1.023459604469643
1.7569942465988384,-1.1270592455136779,-0.013956050617534846,0.5670857295289895,-1.0609090915768982
1.7540482996006104,-1.24455763859973,-0.014100587460828077,0.5519465855762573,-1.0978544183372092
1.7510709949732048,-1.3588834280684594,-0.014254694704938975,0.5368704569830648,-1.1341947212928227
1.748060441263008,-1.4700497782473434,-0.014417245392173044,0.5218566875777316,-1.1698261215919243
1.745014985649644,-1.5780697278392992,-0.01458709378272461,0.5069047371075283,-1.2046413574471708
1.7419332181032878,-1.6829562150696447,-0.014763073325427431,0.4920141888957538,-1.2385293893771794
1.738813976017395,-1.784722104566093,-0.01494399415926638,0.47718475868946164,-1.2713749750726608
1.7356563494204793,-1.8833802162380024,-0.015128640097075785,0.4624163048525317,-1.3030582104334327
1.7324596868816409,-1.978943356456206,-0.015315765034718066,0.44770884008274503,-1.3334540330122464
1.7292236022374123,-2.0714243518750877,-0.015504088719839508,0.433062544858975,-1.3624316837838277
1.7259479822824233,-2.1608360862851583,-0.015692291803865423,0.4184777828559756,-1.3898541228452217
1.7226329955836706,-2.247191540938026,-0.015879010089017508,0.40395511859988137,-1.415577394366019
1.7192791025981249,-2.3305038388471715,-0.016062827868560278,0.3894953376777203,-1.439449935874224
1.715887067296422,-2.4107862936385374,-0.016242270242896456,0.37509946985906467,-1.4613118268303542
1.712457970521924,-2.4880524636051433,-0.016415794276131056,0.3607688155371672,-1.4809939714756235
1.7089932253450686,-2.56231621171127,-0.016581778836778104,0.34650497594973173,-1.4983172112382206
1.705494594708332,-2.6335917723938707,-0.01673851294166539,0.33230988769408565,-1.5130913626892486
1.701964211698216,-2.701893826122742,-0.016884182392772944,0.31818586210467964,-1.5251141783682887
1.6984046028285467,-2.7672375828049525,-0.017016854461220088,0.3041356301068433,-1.534170230056747
1.6948187147756113,-2.8296388752511348,-0.0171344603286408,0.2901623931901121,-1.540029717716531
1.6912099450723734,-2.8891142640559906,-0.01723477494029124,0.27626988114186596,-1.5424472129919187
1.6875821773492912,-2.945681155373805,-0.017315393850970702,0.2624624171230536,-1.5411603548589554
1.6839398218076604,-2.9993579331756948,-0.017373706545511194,0.24874499051400734,-1.535888528112902
1.680287861734889,-3.0501641076329093,-0.017406865576121706,0.23512333764995189,-1.526331574982123
1.676631907030493,-3.0981204812372454,-0.017411750656220394,0.22160403001038853,-1.512168619283453
1.6729782559242063,-3.1432493340790018,-0.01738492654650835,0.20819456848252477,-1.4930571256357041
1.6693339663612525,-3.1855746292506737,-0.01732259310067172,0.19490348077150646,-1.4686323798098342
1.665706938950239,-3.2251222384702203,-0.01722052509945815,0.18174041655747747,-1.4385076697050247
1.6621060139916841,-3.261920186477198,-0.017073998315349444,0.16871623112799344,-1.4022755831032374
1.6585410860553078,-3.2959989101837834,-0.016877696316806846,0.15584304226808804,-1.3595110369328645
1.6550232410615102,-3.327391524428407,-0.016625589338408117,0.14313423625211244,-1.3097769380822712
1.6515649231977887,-3.3561340797357317,-0.016310771268462892,0.13060438572243988,-1.2526337779756116
1.6481801428506755,-3.3822657877526083,-0.01592523203737732,0.11826902396211028,-1.1876550114678848
1.6448847430332563,-3.405829175880143,-0.015459528128519646,0.10614419630013502,-1.1144507739097245
1.6416967521424413,-3.42687011318327,-0.014902289879243578,0.09424568277723651,-1.032703285421491
1.6386368678934358,-3.4454376254277364,-0.01423946487318917,0.08258776717004225,-0.9422179256948561
1.6357291451240124,-3.461583392632164,-0.01345313293084361,0.07118144430068182,-0.8429937532803924
1.6330020055937036,-3.4753608120952393,-0.012519624500668807,0.06003207439526251,-0.7353146717161736
1.630489762929876,-3.4868235475642564,-0.011406496107212042,0.049136834833443666,-0.6198547259300766
1.628234987895798,-3.496023639568243,-0.010067551836389375,0.03848308901406245,-0.4977744702492901
1.6262923153698217,-3.5030096434482374,-0.00843409126814625,0.028050281271588838,-0.37075878806030726
1.624735071576658,-3.507826121706188,-0.006396802000080356,0.01782094023268104,-0.2409194623196264
1.6236692456600208,-3.510518073909033,-0.0037539210155128995,0.00781669979439359,-0.11048420022377764
