x,y,v_x,v_y,omega
2.375,32.48,0.0,3.0769230769230766,-4.816326530612245
2.373889859120208,31.871870050508374,-0.011101408797920424,3.004376417993145,-4.508084947363537
2.3707237642276064,31.27795184175762,-0.020559540128094356,2.934805669514411,-4.229344863105067
2.3658070718686246,30.697669935144965,-0.02860738346172472,2.8680133966121124,-3.976440885921937
2.3594021277576456,30.13048654511497,-0.035442057648066516,2.8038205036878434,-3.7462470467941715
2.351734831534116,29.575898100802096,-0.04123090458722733,2.742063939440897,-3.536086225970746
2.3430000970746554,29.0334322295026,-0.046116440007380334,2.6825947735540696,-3.343656609076193
2.333366413302636,28.50264509504322,-0.05022039771281252,2.62527657103972,-3.1669716266242034
2.3229796685484225,27.983119037196076,-0.05364704982932176,2.5699840074317435,-3.0043106425865056
2.311966369043863,27.474460468379792,-0.056485945216273224,2.5166016807310805,-2.854178266413494
2.3004363567580723,26.976297991753697,-0.05881417764163286,2.465023085529889,-2.7152706237166035
2.2884851118005534,26.488280711007302,-0.06069827193355885,2.415149721934058,-2.586447272739481
2.276195708778788,26.010076707074198,-0.062195758284092205,2.366890317396955,-2.466707724678381
2.2636404838647137,25.541371660953292,-0.06335649085665376,2.320160143812121,-2.355171736052728
2.2508824591921868,25.081867605021305,-0.06422375586861272,2.2748804155077407,-2.2510627054364423
2.2379765630386346,24.63128178783327,-0.06483520566690955,2.230977756372614,-2.153693635838956
2.224970677626461,24.18934563955684,-0.06522364845482752,2.18838372639169,-2.0624552259930806
2.2119065409949745,23.755803826967224,-0.06541771786003693,2.147034399504493,-1.9768057348670791
2.198820524993625,23.33041338841522,-0.06544244215345722,2.106869986015528,-1.8962623284912323
2.185744307838029,22.912942940428433,-0.06531972940250633,2.067834493852349,-1.8203936701993717
2.172705456698606,22.503171948659418,-0.06506878199171813,2.029875423837813,-1.7488135573396144
2.159727933336472,22.10089005678976,-0.06470645162962851,1.9929434948587939,-1.6811754414972182
2.1468325337660104,21.7058964677633,-0.06424754407498505,1.95699239540577,-1.6171676969215765
2.1340372712312283,21.317999372377678,-0.06370508127283657,1.9219785584504625,-1.5565095244293605
2.1213577103714436,20.93701542082851,-0.0630905273250084,1.8878609570411988,-1.4989473965648208
2.1088072592712543,20.562769233290112,-0.06241398367688492,1.854600918342775,-1.4442519650242915
2.0963974250994504,20.19509294604172,-0.06168435804115453,1.822161954141196,-1.3922153639200239
2.0841380382087804,19.833825790019276,-0.06090951086554758,1.7905096060831884,-1.3426488528665206
2.0720374488663653,19.47881369899762,-0.06009638255859964,1.7596113041333972,-1.2953807525188774
2.0601027001911705,19.129908944892797,-0.059251104193348024,1.7294362369147995,-1.2502546323971604
2.0483396803722322,18.786969797925813,-0.05837909399603619,1.6999552327550573,-1.2071277168514916
2.0367532568145186,18.449860209610577,-0.05748514158110263,1.6711406503973296,-1.1658694800679503
2.0253473944960714,18.11844951672566,-0.05657348160336579,1.6429662784518146,-1.1263604052550786
2.014125260510343,17.79261216460381,-0.05564785825391811,1.6154072427667083,-1.0884908867227387
2.0030893165029457,17.472227448228473,-0.05471158182005798,1.5884399209866422,-1.0521602565821275
1.992241400485414,17.157179269765322,-0.053767578355255974,1.562041863644883,-1.0172759203503898
1.9815827993141455,16.84735591128041,-0.05281843335743089,1.536191721204222,-0.9837525879115449
1.9711143129555646,16.5426498215078,-0.05186643022837846,1.510869176521889,-0.9515115881300367
1.9608363115146796,16.2429574156289,-0.05091358418047049,1.4860548822671087,-0.920480256986022
1.9507596334636759,15.948180925166682,-0.04985319632956677,1.4617100223550652,-0.8874706445140486
1.9408935438460975,15.658226057335671,-0.048807699846216954,1.4378386559550296,-0.855965149645224
1.9312349927658512,15.372999799237665,-0.04777781095624569,1.4144239250250505,-0.8258774615943318
1.9217808012937798,15.09241243272962,-0.04676410376447016,1.3914497400553838,-0.7971271607560436
1.9125276881389102,14.816377385126618,-0.04576702778422556,1.3689007359746264,-0.7696392527509217
1.9034722930192487,14.54481108842213,-0.04478692341238743,1.3467622310702458,-0.7433437442377191
1.8946111971183646,14.27763284644675,-0.04382403559645416,1.3250201886835504,-0.7181752563164938
1.8859409409677927,14.0147647094323,-0.0428785259092655,1.3036611814609431,-0.6940726718067948
1.8774580400548608,13.756131355489917,-0.04195048322005228,1.2826723579628725,-0.6709788130897136
1.869158998420139,13.50165997854868,-0.04103993312716427,1.262041411449485,-0.648840147559117
1.861040320477671,13.25128018233595,-0.04014684629751669,1.2417565506778252,-0.6276065180420303
1.8530985212639082,13.004923880012196,-0.039271145840113625,1.2218064725597109,-0.6072308958262587
1.8453301352973377,12.762525199101994,-0.03841271382559046,1.2021803365423005,-0.587669154179495
1.8377317242097524,12.52402039138926,-0.03757139705026147,1.182867740585029,-0.5688798604623418
1.8302998832915862,12.289347747469044,-0.036747012131400095,1.1638586986171324,-0.5508240851313199
1.823031247077427,12.058447515670377,-0.03593935001019306,1.1451436193695443,-0.5334652261000123
1.8159224940834275,11.831261825085061,-0.03514817992980062,1.1267132864836158,-0.5167688470796317
1.8089703507956418,11.607734612456,-0.03437325294805798,1.1085588398069937,-0.500702528656712
1.8021715949970938,11.387811552695887,-0.033614305037421854,1.0906717577941503,-0.4852357309873379
1.7955230585114839,11.171439992822915,-0.032871059818678196,1.0730438409355818,-0.4703396670960048
1.7890216294326586,10.958568889114794,-0.032143230969573625,1.0556671961456363,-0.45598718586439835
1.7826642539012192,10.749148747295795,-0.03143052434482177,1.0385342220443503,-0.44215266388237934
1.7764479374827584,10.543131565583998,-0.030732639839785265,1.021637595073627,-0.42881190541143227
1.7703697461961325,10.340470780437375,-0.03004927302647484,1.0049702563926124,-0.4159420497807925
1.764426807234757,10.141121214847988,-0.029380116587277856,0.9885253995012664,-0.4035214855992971
1.7586219488466357,9.945218246841161,-0.028668467293934657,0.9705042805670141,-0.4272961929491433
1.752955301194631,9.752908319678273,-0.027998009226112088,0.9525949910618696,-0.4527623739937898
1.7474187157563361,9.564169369364215,-0.02736784515683823,0.934794512078713,-0.4798093672419929
1.7420042288819988,9.378979923820815,-0.026777023586535335,0.9170999433553007,-0.5083290440969419
1.7367040720665077,9.19731907959277,-0.02622454456837627,0.8995084989251415,-0.5382155668207472
1.7315106811081877,9.019166479383347,-0.02570936501482374,0.8820175031690934,-0.5693651520520345
1.726416704254551,8.844502290340813,-0.0252304035215411,0.8646243872562375,-0.6016758388934113
1.7214150094282479,8.673307183018668,-0.02478654474149322,0.8473266859652097,-0.6350472605948463
1.7164986906202122,8.505562310934167,-0.024376643338863246,0.8301220348798197,-0.6693804188610997
1.7116610735313889,8.341249290650637,-0.023999527549369924,0.8130081679554868,-0.704577459806108
1.7068957205393862,8.180350182309507,-0.02365400237065599,0.795982915455817,-0.7405414505644647
1.70219643506196,8.02284747053777,-0.02333885240360501,0.7790442022615653,-0.7771761555495252
1.6975572653853286,7.868724045655881,-0.023052844362708172,0.7621900465573087,-0.8143858113188288
1.692972508021966,7.717963185109706,-0.02279472927091766,0.7454185589044553,-0.8520748989699993
1.6884367106596978,7.570548535047983,-0.0225632443517647,0.7287279417127703,-0.8901479129434835
1.6839446747616353,7.426464091964057,-0.022357114628860534,0.7121164891264751,-0.9285091250517692
1.6794914578747282,7.285694184316885,-0.022175054240210268,0.695582587345233,-0.9670623424873225
1.6750723757035049,7.148223454041858,-0.02201576747202279,0.6791247154050472,-1.0057106584825513
1.6706830040049163,7.01403683785642,-0.021877949513863213,0.6627414464493436,-1.044356194203686
1.6663191803601265,6.883119548258847,-0.021760286934033375,0.6464314495263992,-1.0828998303555357
1.661977005879629,6.755457054110618,-0.021661457870943684,0.6301934919558979,-1.1212409268545138
1.657652846899243,6.631035060683537,-0.02158013193291493,0.614026442314899,-1.1592770287919814
1.6533433367264239,6.509839489041845,-0.02151496979527673,0.5979292741020095,-1.1969035567576516
1.6490453774989202,6.391856454616818,-0.021464622479759568,0.5819010701482498,-1.2340134794224322
1.6447561422212489,6.277072244816576,-0.02142773029695406,0.5659410278541637,-1.2704969660906902
1.6404730770487563,6.165473295496621,-0.021402921427970942,0.5500484653453805,-1.3062410167228329
1.6361939038943285,6.05704616609675,-0.0213888101163072,0.5342228286533215,-1.3411290667001383
1.631916623439175,5.951777513226983,-0.021383994435227024,0.5184637000443407,-1.3750405633555676
1.6276395186366917,5.849654062458587,-0.021387053589608303,0.5027708076395991,-1.4078505110286952
1.6233611588073227,5.750662578045656,-0.021396544704080225,0.4871440364897205,-1.4394289811236307
1.6190804044327884,5.654789830267372,-0.02141099904126124,0.4715834412931193,-1.4696405833622994
1.6147964127701768,5.562022560040543,-0.021428917584854445,0.45608926097517194,-1.4983438941422083
1.610508644420482,5.472347440405279,-0.02144876591209577,0.4406619353774461,-1.5253908376441212
1.6062168710024354,5.385751034433309,-0.021468968268368728,0.4253021243422646,-1.5506260151157019
1.601921184101255,5.302219749047275,-0.02148790074343599,0.4100107295180688,-1.5738859776190737
1.5976220056835757,5.221739784169948,-0.021503883433358163,0.39478891925520054,-1.5949984375279327
1.5933201001948065,5.144297076543502,-0.021515171454334188,0.3796381570092508,-1.6137814142730906
1.5890165885839922,5.06987723747071,-0.021519944653808395,0.36456023371868096,-1.630042310380327
1.5847129645346703,4.998465483631591,-0.021516295839410518,0.34955730467251683,-1.6435769148898822
1.5804111132190872,4.93004656002152,-0.02150221731642001,0.33463193142819636,-1.6541683330373793
1.5761133329386765,4.864604653941509,-0.021475585487686306,0.3197871293719125,-1.6615858439657192
1.57182236006755,4.802123298852077,-0.021434143223578447,0.30502642152240866,-1.6655836927400496
1.567541397780254,4.742585266785262,-0.021375479649382488,0.2903538991457432,-1.6658998297980223
1.5632741491236144,4.685972447906259,-0.021297006917013372,0.2757742896442849,-1.6622546212664564
1.5590248550902683,4.632265715745465,-0.021195933416446024,0.2612930319636516,-1.6543495688842929
1.5547983384763264,4.581444776613278,-0.02106923272297392,0.2469163593582247,-1.6418661008739295
1.5506000544698506,4.533488001810916,-0.02091360734178493,0.23265138866538632,-1.624464528315488
1.5464361491400274,4.488372241533984,-0.02072544595644692,0.21850621410394053,-1.6017833102066708
1.5423135273105057,4.446072619943681,-0.020500772338768687,0.20449000179909238,-1.5734388413584528
1.53823993175543,4.4065623119237465,-0.02023518321198886,0.1906130784002679,-1.5390260804574254
1.5342240363367277,4.369812303803389,-0.019923770975033644,0.17688700280329733,-1.4981204848418859
1.5302755567434811,4.3357911431802485,-0.019561024957430347,0.16332460342809735,-1.450281932518029
1.526405384124931,4.304464687452885,-0.01914070122807366,0.14993995384554223,-1.3950616145555448
1.5226257495005842,4.2757958674901175,-0.018655645015393612,0.1367482457821233,-1.3320132990171616
1.5189504309959792,4.249744492923469,-0.018097540030657482,0.12376549988434615,-1.260710921713227
1.5153950226874686,4.226267139778059,-0.017456543054445668,0.11100803156975622,-1.1807751389894772
1.5119772947461758,4.205317180020565,-0.016720736358482202,0.09849156600517311,-1.0919121818224728
1.5087176921836125,4.186845034822191,-0.015875289267150625,0.08622988597855752,-0.9939687558117887
1.5056400477802412,4.1707987530334485,-0.014901154766564383,0.0742329319088611,-0.8870060475338484
1.5027726300690172,4.157125017462267,-0.013773022345675175,0.06250442380294827,-0.7713924938805121
1.5001497211619812,4.145770628427584,-0.012456066724682479,0.05103946654386024,-0.6479061115664453
1.497814050208026,4.136684339476698,-0.010900642814870961,0.03982342296500803,-0.5178198234535306
1.4958206918671202,4.1298185106528145,-0.00903294059418708,0.02883486527381804,-0.3829178836198917
1.4942438719050544,4.125129170520264,-0.006735259026470947,0.018058536051685503,-0.2453697764801166
1.4931916093967372,4.122570685069562,-0.003787366056700379,0.007526318455346986,-0.1073948431831552
