x,y,v_x,v_y,omega
2.375,32.48,0.0,3.435897435897436,-2.1224489795918373
2.3742489122412707,31.701064372878236,-0.006531197901994766,3.3374558434222195,-1.9513164629437254
2.372135013559846,30.944187773525275,-0.011850529762570491,3.2440798031252553,-1.801084864975322
2.3689120934492887,30.208251105945646,-0.016174862503142227,3.1553694801758847,-1.6684922835646188
2.364788872084442,29.49222243256288,-0.019679236321612455,3.070966810109042,-1.5508722857140451
2.3599376096752644,28.79514799596327,-0.022505654192971826,2.990550029887561,-1.4460315223568403
2.3545009246982747,28.11614439835791,-0.024769867346069792,2.9138290797242563,-1.3521550706476517
2.34859722528895,27.454391757528946,-0.026566649256756898,2.840541710092816,-1.2677326730669884
2.3423250597088394,26.80912769185087,-0.027973921005071834,2.77045016536875,-1.1915008547659516
2.3357666190749895,26.179642013387884,-0.02905599755014578,2.70333834300503,-1.1223971987212127
2.3289905713318664,25.565272028940303,-0.02986615673788141,2.639009347843485,-1.0595239974356723
2.322054364733523,24.965398365585678,-0.030448683247714617,2.5772833769793455,-1.0021191856211984
2.3150061083080002,24.379441250706883,-0.030840503061178248,2.51799588283627,-0.9495329632363997
2.3078861133246433,23.80685718743647,-0.03107249679409715,2.460995971689041,-0.9012088930678369
2.3007281618130047,23.247135975410973,-0.031170559828849923,2.406145002445741,-0.8566685373752653
2.2935605543261572,22.699798034127,-0.031156461795909682,2.3533153565453544,-0.8154989092864545
2.286406978397733,22.164391992334956,-0.031048546277342853,2.302389354689771,-0.7773421747676207
2.279287230766369,21.640492512037437,-0.030862302691039754,2.2532583000712765,-0.7418871632215297
2.272217819877775,21.12769831996722,-0.030610835470650667,2.2058216309740843,-0.708862338624236
2.265212470005741,20.62563042305405,-0.030305250373120082,2.159986168270859,-0.6780299556074474
2.25828254424352,20.133930487468366,-0.02995497364619565,2.11566544551771,-0.6491811812011149
2.2514374003662034,19.652259363450046,-0.029568016591338626,2.0727791111633223,-0.6221320069182227
2.2446846909696654,19.180295740367775,-0.029151195552469835,2.031252393899881,-0.5967198103708173
2.2380306172113738,18.717734918372457,-0.028710315389197556,1.9910156234507128,-0.5728004528214515
2.2314801438041743,18.264287684657674,-0.028250322934275426,1.9520038001561142,-0.5502458206394331
2.2250371815615355,17.819679283763413,-0.027775435697367064,1.9141562076200846,-0.5289417357969604
2.2187047426959228,17.383648472590927,-0.027289250090567298,1.8774160634449915,-0.5087861742635045
2.212485073179429,16.955946651865613,-0.02679483266155237,1.8417302037316623,-0.48968774217415206
2.206379765746964,16.536337066715024,-0.026294797185969627,1.8070487975778093,-0.47156436852843486
2.2003898565252547,16.124594069840985,-0.025791369959330467,1.7733250882833949,-0.4543421803627943
2.194515907780209,15.720502441474672,-0.025286445214975927,1.740515158380204,-0.437954532177437
2.188758078870718,15.32385676092613,-0.02478163225886342,1.7085777159549398,-0.42234116615749684
2.1831161871625295,14.934460825086799,-0.024278295638428142,1.6774739000392433,-0.40744748362206185
2.1775897603785865,14.552127109725394,-0.023777589439334914,1.6471671031034039,-0.39322391133107915
2.1721780816316665,14.176676269842801,-0.023280486620838568,1.6176228089191402,-0.37962534891293476
2.1668802281930217,13.807936675727682,-0.022787804149988614,1.5888084442558001,-0.3666106858509995
2.161695104890121,13.445743981687762,-0.02230022457088558,1.5606932430478413,-0.35414237827065576
2.1566214728920596,13.089940724727597,-0.02181831454268996,1.5332481218231437,-0.3421860772675
2.1516579745282094,12.740375950706763,-0.021342540795140127,1.506445565314557,-0.33071030176747357
2.1468031546905957,12.396904865746812,-0.020873283879762308,1.480259521293708,-0.3196861499549842
2.1420635638990047,12.059388865082823,-0.02034054909059271,1.4546622236105438,-0.3070660359654133
2.1374449741157573,11.727694848738214,-0.019821101198514324,1.4296335706904153,-0.2950857895572654
2.132944342106579,11.401694585266714,-0.01931482931608091,1.4051513290617443,-0.2837047618233453
2.1285586547983435,11.081264828051033,-0.01882158205988072,1.3811943858572344,-0.27288537500615534
2.124284937754296,10.766287065668529,-0.018341174844879245,1.3577426783384525,-0.262592854039888
2.1201202620925006,10.456647287861621,-0.01787339612725277,1.3347771286781316,-0.25279498465471767
2.11606175007231,10.152235765955751,-0.017418012743972217,1.312279583546814,-0.24346189511625285
2.112106579542022,9.852946846666978,-0.016974774475920856,1.2902327580946997,-0.23456585902771965
2.108251987413835,9.558678758330803,-0.016543417943101144,1.268620183958993,-0.22608111693037203
2.1044952723090042,9.269333428664861,-0.016123669924989755,1.2474261609622397,-0.2179837147054238
2.1008337964962513,8.984816313251365,-0.0157152501859066,1.2266357121986076,-0.21025135701411624
2.0972649872293605,8.705036233991702,-0.015317873874014386,1.2062345422332268,-0.20286327421616626
2.093786337575258,8.42990522684591,-0.014931253552960445,1.1862089981649524,-0.1958001013848636
2.090395406811217,8.159338398224499,-0.014555100916960282,1.1665460333255728,-0.18904376819297644
2.0870898204589614,7.893253789450039,-0.014189128233091954,1.147233173408856,-0.18257739858035887
2.083867270014073,7.6315722487512865,-0.013833049548543985,1.1282584848411557,-0.17638521923426986
2.080725512421021,7.374217310294046,-0.013486581695387669,1.1096105452218126,-0.17045247601909624
2.077662369337136,7.121115079790741,-0.013149445121001066,1.091278415676497,-0.16476535758529545
2.0746757262228495,6.872194126265235,-0.012821364568449744,1.0732516149800848,-0.15931092546954753
2.0717635312902765,6.627385379580975,-0.012502069627838343,1.055520095317842,-0.15407705007072608
2.0689237943377417,6.3866220333694805,-0.012191295176810365,1.0380742195647068,-0.1490523519505606
2.066154585493927,6.149839453022707,-0.011888781725926344,1.020904739972443,-0.14422614796481098
2.063454033891954,5.9169750884370735,-0.011594275682537281,1.0040027781635072,-0.13958840178130533
2.0608203262907936,5.6879683912193215,-0.01130752954494377,0.9873598063386968,-0.13512967838609172
2.0582540065129833,5.462859804453743,-0.011008294609927522,0.9701061655359058,-0.14797295068130106
2.0557540274545096,5.241705229658937,-0.010730653724624522,0.9529770935493488,-0.16301551667641356
2.0533153560133997,5.02447643838266,-0.010475184893724208,0.9359689175487127,-0.18013625915285184
2.050932843290483,4.811146030011816,-0.010242317044680488,0.9190781117629834,-0.19921783712061827
2.048601257419415,4.601687398734132,-0.010032342703741036,0.9023012906516616,-0.22014641094760834
2.046315313597039,4.396074702012516,-0.009845429664743128,0.8856352025797701,-0.2428113779093186
2.0440697015370617,4.194282830459262,-0.009681631726363478,0.8690767239702779,-0.2671051170733667
2.041859110553298,3.9962873790029683,-0.009540898567230897,0.8526228539105308,-0.292922742473997
2.039678252463479,3.8020646192461633,-0.009423084822503308,0.8362707091921091,-0.32016186356528137
2.0375218824905765,3.6115914729159506,-0.009327958420125043,0.8200175197662757,-0.3487223519682018
2.0353848183258156,3.4248454863138456,-0.009255208229970845,0.8038606245998494,-0.37850611354630653
2.033261957505812,3.2418048056741817,-0.009204451074407283,0.7877974679189712,-0.4094168648571756
2.031148293245647,3.0624481533429524,-0.009175238144421147,0.7718255958308539,-0.44135991303244987
2.0290389288599844,2.8867548046910336,-0.009167060861340667,0.7559426533162533,-0.4742419381375255
2.0269290908955986,2.714704565677035,-0.009179356220273868,0.7401463815880955,-0.5079707770529643
2.0248141410907845,2.54627775097574,-0.00921151164767523,0.7244346158144813,-0.5424552079029076
2.022689587270084,2.381455162588246,-0.009262869401893812,0.7088052832072042,-0.5776047340308984
2.0205510932765223,2.220218068849217,-0.009332730542120806,0.6932564014800011,-0.6133293664900138
2.0183944880380804,2.062548183745349,-0.009420358487809309,0.6777860776840531,-0.6495394039714656
2.016215773860437,1.9084276464570245,-0.009524982187350975,0.6623925074318213,-0.6861452090431318
2.0140111340340656,1.7578390010320817,-0.009645798911529169,0.6470739745242041,-0.7230569795059751
2.0117769398405807,1.6107651760967627,-0.009781976683990869,0.6318288510002952,-0.7601845136010149
2.009509757040792,1.4671894645038428,-0.009932656357652392,0.6166555976338,-0.7974369677113325
2.0072063519252703,1.3270955028118223,-0.010096953342537324,0.6015527649055136,-0.8347226051012364
2.004863697007374,1.1904672504816496,-0.010273958986995397,0.5865189944872831,-0.87194853411679
2.0024789764386592,1.0572889686684448,-0.010462741610521699,0.5715530212797018,-0.9090204341368496
2.0000495912274694,0.9275451984751228,-0.010662347182434556,0.5566536760535463,-0.945842267409875
1.9975731643433012,0.8012207385222716,-0.010871799636420383,0.5418198887538446,-0.982315974737248
1.9950475457923824,0.67830062167398,-0.011090100806350613,0.52705069253564,-1.0183411527667894
1.992470817753821,0.558770090741973,-0.011316229963747681,0.512345228612233,-1.0538147104386868
1.98984129987084,0.44261457297039897,-0.01154914293174267,0.4977027520101787,-1.0886305018783846
1.9871575547981024,0.3298196530800226,-0.011787770744234777,0.48312263834091995,-1.1226789327556115
1.9844183941141207,0.22037104462336288,-0.01203101781212753,0.46860439171697305,-1.1558465368247046
1.9816228847173774,0.11425455937034457,-0.012277759550858896,0.454147653961458,-1.1880155190287098
1.9787703558363237,0.01145607440712837,-0.012526839414824716,0.43975221528392183,-1.2190632611899337
1.9758604067970447,-0.08803850341220709,-0.012777065274557903,0.4254180266233316,-1.2488617859266171
1.9728929157083999,-0.1842432760713919,-0.01302720506148456,0.4111452138913456,-1.2772771740368143
1.96986804924319,-0.27717239652329084,-0.013275981592514093,0.39693409438605254,-1.3041689301895238
1.9667862737157278,-0.36684011488190293,-0.013522066472373483,0.3827851956888304,-1.3293892913810668
1.9636483676815626,-0.4532608292877214,-0.013764072955149923,0.3686992774052628,-1.3527824722852788
1.96045543631455,-0.5364491421483493,-0.0140005476275686,0.3546773561654077,-1.3741838414010663
1.9572089278506004,-0.6164199225586557,-0.014229960754602797,0.3407207343590106,-1.3934190218586422
1.9539106524270413,-0.693188375821812,-0.014450695102431401,0.3268310331466881,-1.4103029110039855
1.950562803692545,-0.7667701211247078,-0.014661033023623168,0.3130102303567226,-1.4246386136152014
1.9471679836161804,-0.8371812785694175,-0.014859141553461297,0.2992607039450795,-1.4362162850752245
1.9437292309869272,-0.9044385669251227,-0.015043055222653624,0.28558528175668535,-1.4448118834194563
1.9402500541690135,-0.9685594136393618,-0.015210656237466426,0.2719872983671239,-1.4501858334678377
1.936734468766652,-1.0295620788269915,-0.015359651609155521,0.2584706597862009,-1.452081613088988
1.9331870409584075,-1.087465795127116,-0.01548754672340502,0.2450399167366089,-1.4502242822921592
1.9296129373928892,-1.1422909254604363,-0.015591614715884695,0.23170034703141634,-1.4443189921779618
1.9260179827036006,-1.1940591407950762,-0.015668860843145505,0.21845804718284115,-1.4340495355942806
1.9224087259172353,-1.2427936199764673,-0.015715980777422773,0.20532003265531662,-1.4190770387966338
1.9187925173218359,-1.2885192733989257,-0.01572931135648593,0.19229434493128794,-1.3990389496815099
1.915177597770867,-1.331262991636791,-0.015704771695417355,0.17939016148491266,-1.373548562395349
1.911573202996233,-1.3710539188680215,-0.015637791562270523,0.16661790139533142,-1.3421954437526118
1.9079896864055272,-1.40792374863738,-0.015523222269951207,0.15398931399040755,-1.3045473133333259
1.9044386652468175,-1.4419070356509565,-0.015355222588394881,0.1415175296058968,-1.2601542036104703
1.900933197280449,-1.4730415110335286,-0.015127107553940011,0.12921703893819347,-1.2085561251327828
1.8974879987874036,-1.5013683786428444,-0.014831140211671666,0.11710354896891188,-1.1492960273472257
1.8941197208670506,-1.5269325551114221,-0.014458233008788497,0.10519363771435376,-1.0819406144529773
1.8908473112273017,-1.5497827946791531,-0.01399750298902835,0.09350409765720091,-1.0061125377747484
1.8876925058827547,-1.5699716108229396,-0.013435586963553988,0.08205082533225512,-0.9215384818567437
1.884680524028112,-1.5875548727797693,-0.012755559598556702,0.07084710472711178,-0.8281181460622715
1.8818410875138718,-1.6025909281776975,-0.011935192699183757,0.05990120308098393,-0.7260177055054207
1.8792099669802367,-1.6151391162354187,-0.0109441162889481,0.04921347568183965,-0.6157850936027449
1.8768313969627715,-1.6252576635037315,-0.009739101254227271,0.03877389186872599,-0.4984686447868713
1.8747619809670621,-1.6330013368836234,-0.008255820447593393,0.028562398391204266,-0.3756911820261505
1.8730774382719293,-1.6384201257159035,-0.006392376901386161,0.01855750449821394,-0.24959427822098418
1.8718863389986573,-1.6415624588215394,-0.00396500808358894,0.008767131202939236,-0.12254983411021123
