x,y,v_x,v_y,omega
2.375,32.48,0.0,3.230769230769231,-4.204081632653061
2.3740769889586004,31.873356010477732,-0.009715905698943676,3.154956974728279,-3.9358335158819853
2.371444549690902,31.280823859056152,-0.017993981329460014,3.0822235665515123,-3.693177933781992
2.367356522227391,30.70183756746001,-0.02503788670749832,3.012368976565789,-3.472947960829465
2.3620310212202114,30.135867463623537,-0.03102001863123304,2.945211063818119,-3.2724400635140194
2.3556558745475904,29.582416984078886,-0.03608678844898856,2.8805834577045157,-3.0893369476995454
2.3483931521557206,29.04101984823966,-0.04036292093911424,2.8183337616557784,-2.9216447373680223
2.3403829522026416,28.511237549135462,-0.043954973303821324,2.75832201838842,-2.76764154958448
2.3317465779891227,27.99265711537246,-0.04695422894374891,2.7004193896431623,-2.6258351881986077
2.3225892129521424,27.484889107085362,-0.04943908723499157,2.644507013378935,-2.4949281761645317
2.313002180393962,26.987565814959773,-0.0514770449563795,2.590475008995674,-2.3737887257199963
2.3030648583196545,26.500339636442288,-0.05312634529948943,2.5382216069778614,-2.261426537295678
2.292846306783391,26.02288160731388,-0.0544373550822323,2.487652383847451,-2.1569725438381053
2.28240665476317,25.55488007010013,-0.05545371881483139,2.4386795868236333,-2.059661893251921
2.2717982852351875,25.096039463493618,-0.05621332884814167,2.391221535350184,-1.9688195997318139
2.2610668503733464,24.646079219194924,-0.056749143381763796,2.3452020888465794,-1.8838484036753858
2.2502521433248277,24.204732754433692,-0.05708987818158922,2.3005501717979855,-1.804218466264271
2.2393888485513513,23.771746549984513,-0.05726059311816277,2.257199348719673,-1.7294585936800058
2.2285071890760437,23.34687930480086,-0.05728319083244635,2.2150874426871945,-1.6591487410992143
2.2176334859790825,22.929901159498854,-0.05717684176714466,2.174156192070761,-1.5929135910161127
2.2067906430160757,22.52059298186724,-0.056958347317137455,2.134350940893624,-1.5304170363272194
2.1959985671918174,22.118745708388467,-0.05664245083294654,2.095620358882914,-1.4713574277359796
2.1852745344291513,21.724159736451394,-0.056242104563538634,2.057916187823129,-1.4154634687610317
2.1746335080644,21.336644362536845,-0.05576869927594969,2.0211930112773655,-1.3624906610333822
2.164088416725955,20.956017262178584,-0.05523226218136561,1.985408045125424,-1.3122182184897202
2.1536503971696996,20.582104007955763,-0.054641627884480015,1.9505209466936941,-1.2644463821803569
2.1433290068204114,20.21473762216958,-0.054004586318554974,1.9164936405293336,-1.2189940782425577
2.133132410074833,19.85375816120395,-0.05332801100332459,1.883290159108861,-1.1756968705678263
2.1230675418374174,19.49901232887594,-0.05261797044315682,1.8508764969754603,-1.1344051671552349
2.1131402512655924,19.150353116350608,-0.05187982504973805,1.81922047697539,-1.0949826453658382
2.1033554282827644,18.807639466433393,-0.05111831161160737,1.7882916274163505,-1.0573048664965712
2.0937171150618425,18.47073596026405,-0.05033761702967374,1.7580610691030456,-1.0212580544548076
2.084228604379615,18.13951252462381,-0.04954144278324823,1.7285014113205317,-0.986738016982521
2.0748925264844083,17.81384415823437,-0.04873306137682325,1.699586655936738,-0.9536491909703988
2.0657109258990913,17.493610675576413,-0.04791536583704121,1.671292108883862,-0.9219037960144251
2.0566853293928107,17.178696466888635,-0.04709091317643891,1.6435942983559324,-0.8914210825800183
2.0478168061930004,16.868990273127643,-0.046261962611037835,1.6164708991281824,-0.8621266630173431
2.0391060213701078,16.564384974776367,-0.04543050920888247,1.5899006624641954,-0.8339519152700007
2.0305532832077224,16.264777393484902,-0.04459831355306908,1.5638633511301803,-0.8068334504826928
2.022158585267491,15.970068105614644,-0.043766927923051646,1.5383396790830615,-0.7807126368787848
2.013921643768961,15.680161266834844,-0.04293771942989297,1.513311255441129,-0.755535173276835
2.0058419308272515,15.394964446991512,-0.042111890482841356,1.4887605323834328,-0.7312507064718697
1.9979251896302355,15.114389730242891,-0.0412222273804863,1.4646575386546972,-0.7058373146176893
1.9901761142446766,14.838352238404546,-0.040346987204343356,1.4410002701700027,-0.6815384851290016
1.9825919342230631,14.566768741798025,-0.039486486707378116,1.4177733783196729,-0.6582925106307956
1.975169827053795,14.299558863120765,-0.038640957179653,1.3949621867041164,-0.636041745878222
1.9679069333762038,14.036644953249883,-0.03781055521604365,1.372552654042015,-0.6147322977459823
1.960800370268517,13.77795197386233,-0.036995372233290476,1.3505313395111933,-0.5943137420355619
1.9538472428323983,13.523407386426776,-0.03619544288375102,1.328885370336748,-0.5747388645123874
1.9470446542714068,13.272941047156362,-0.03541075249510533,1.3076024114570959,-0.5559634238600534
1.9403897146376696,13.026485107542193,-0.034641243649496146,1.2866706371131185,-0.5379459344819569
1.933879548400793,12.78397392011567,-0.033886822001838984,1.2660787042186994,-0.5206474672959888
1.9275113009752394,12.545343949113526,-0.033147361425040364,1.2458157273828243,-0.504031466858807
1.9212821443267194,12.31053368574306,-0.03242270855938041,1.2258712554641722,-0.48806358332567806
1.9151892817643341,12.079483567766818,-0.031712686834147664,1.2062352495488828,-0.47271151790249455
1.9092299520130394,11.852135903145825,-0.031017100021585853,1.1868980622510503,-0.45794488058064153
1.9034014326502522,11.628434797498837,-0.03033573537617501,1.1678504182435459,-0.44373505906485483
1.8977010429809367,11.408326085151959,-0.02966836640609456,1.1490833959341082,-0.4300550979108055
1.8921261464171197,11.19175726356843,-0.029014755318292312,1.1305884102083186,-0.41687958698436717
1.8866741524203696,10.978677430962758,-0.02837465517381493,1.1123571961671712,-0.4041845584396804
1.8813425180592005,10.769037226916588,-0.02774781178585912,1.0943817937925118,-0.39194739148937746
1.8761287492275598,10.562788775825823,-0.02713396538930666,1.0766545334786977,-0.3801467243086793
1.8710304015653871,10.359885633019864,-0.0265328521072477,1.0591680223734856,-0.36876237247640564
1.866045081117672,10.16028273340422,-0.025944205237121595,1.041915131475405,-0.35777525341103766
1.861170444764372,9.963936342487372,-0.025367756376565194,1.024888983438778,-0.34716731630951714
1.8564042004499508,9.77080400966178,-0.024803236406814384,1.0080829410411247,-0.336921477141068
1.8517441072380991,9.580844523617131,-0.024250376349519577,0.9914905962709712,-0.32702155828851887
1.8471925882984053,9.394220312299232,-0.023660349331469894,0.9729747860227133,-0.359830350152413
1.842749132492949,9.211103944543328,-0.023112869673331236,0.9545659271973463,-0.3940373341059453
1.8384057693773665,9.031475362469283,-0.022606742069641254,0.9362612525294365,-0.4295376168696314
1.8341547586687061,8.855315023774644,-0.022140739074153544,0.9180581021509667,-0.46622818568452606
1.8299885959581248,8.682603881641612,-0.021713605247755438,0.8999539203020023,-0.5040076796125181
1.8259000176743734,8.513323365233994,-0.021324060896996712,0.8819462524097462,-0.54277616365336
1.8218820053733484,8.347455360714562,-0.020970805429580557,0.8640327425316472,-0.5824349047109778
1.8179277894242623,8.184982192713768,-0.020652520350275157,0.8462111311609114,-0.622886148430027
1.8140308521587842,8.025886606180904,-0.020367871917913942,0.8284792533955676,-0.6640328959043236
1.8101849305458457,7.870151748548182,-0.02011551348144048,0.8108350374751854,-0.7057786792312986
1.8063840184516309,7.717761152137253,-0.019894087510294547,0.7932765036924905,-0.7480273348505164
1.8026223685416314,7.56869871673587,-0.019702227331803986,0.7758017636905024,-0.7906827735589791
1.7988944938794766,7.422948692270118,-0.01953855858561542,0.7584090201594978,-0.833648746040731
1.795195169275602,7.280495661494513,-0.01940170040253832,0.7410965669521352,-0.876828602682391
1.7915194324376769,7.141324522618305,-0.01929026631246127,0.7238627896395287,-0.920125046368757
1.7878625849740897,7.005420471781626,-0.01920286488319508,0.7067061665360223,-0.9634398768625432
1.784220193301715,6.8727689852892375,-0.01913810008917042,0.6896252702259649,-1.006673725268474
1.78058808950969,6.743355801502727,-0.019094571405830218,0.6726187696320411,-1.04972577696312
1.7769623722320205,6.617166902283863,-0.019070873622268315,0.6556854326717895,-1.0924934812366667
1.7733394075835978,6.49418849387213,-0.01906559636113016,0.6388241295569727,-1.1348722457398146
1.7697158302166494,6.374406987068252,-0.01907732329095812,0.6220338367996295,-1.1767551136567458
1.7660885445578707,6.257808976582371,-0.01910463101197664,0.6053136419991065,-1.218032421332068
1.7624547262905206,6.144381219390301,-0.019146087591707443,0.5886627494963687,-1.2585914338645277
1.758811824150746,6.034110611923559,-0.01920025072171039,0.5720804869956589,-1.2983159559419315
1.7551575621133808,5.926984165898379,-0.019265665461080366,0.5555663132694056,-1.3370859149294725
1.751489942049608,5.822988982565139,-0.01934086152600202,0.5391198270804746,-1.3747769129376401
1.747807246947269,5.7221122251322,-0.01942435007756655,0.5227407774767958,-1.4112597442873893
1.7441080447944537,5.624341089086347,-0.019514619952066364,0.5064290756374468,-1.446399874462441
1.7403911932384561,5.529662770095488,-0.01961013326896309,0.49018480847686885,-1.4800568762974382
1.7366558451454615,5.438064429136865,-0.019709320341506967,0.47400825424547116,-1.5120838188063088
1.7329014552016977,5.349533154445464,-0.019810573803374844,0.45789990040085626,-1.5423266037237864
1.7291277877144888,5.264055919821239,-0.019912241851453554,0.4418604640646575,-1.5706232445397346
1.725334925792076,5.181619538769652,-0.020012620489734095,0.42589091542574037,-1.5968030825887534
1.7215232821045774,5.102210613876586,-0.020109944641831662,0.409992504501274,-1.6206859346733622
1.7176936114555577,5.025815480735332,-0.020202377979428848,0.39416679172245106,-1.6420811668319473
1.7138470254249323,4.952420145649029,-0.020288001290310904,0.37841568287020294,-1.6607866893362369
1.7099850093800886,4.882010216226522,-0.020364799181729544,0.362741468945672,-1.676587868998285
1.7061094421940994,4.814570823873158,-0.02043064488131364,0.3471468716160483,-1.6892563566482122
1.7022226190589838,4.750086537052123,-0.020483282856746044,0.3316350949211533,-1.6985488305971448
1.6983272778398062,4.688541264059598,-0.020520308924069083,0.3162098839475295,-1.7042056615882397
1.6944266294844308,4.629918143924861,-0.020539147448303905,0.30087559115496265,-1.7059495119851862
1.6905243930874003,4.57419942392546,-0.02053702515201701,0.2856372509439837,-1.703483892955268
1.6866248363099672,4.521366322116652,-0.020510940926229255,0.270500662832935,-1.6964917199338896
1.682732821989774,4.47139887324413,-0.020457630865277934,0.25547248319360305,-1.6846339312883296
1.6788538619457545,4.424275756488704,-0.020373527492820395,0.24056032475825156,-1.6675482716059487
1.6749941792166982,4.379974103758098,-0.020254711760402794,0.2257728618797125,-1.6448483949323665
1.6711607802984332,4.338469287814117,-0.020096855800283517,0.21111993753062064,-1.6161235225989297
1.6673615394184702,4.2997346905863445,-0.019895153462484636,0.19661266486700596,-1.5809390065588458
1.6636052975970808,4.263741453853193,-0.01964423413108981,0.18226351127144055,-1.5388383187550467
1.6599019803378023,4.230458217477853,-0.019338052808682216,0.1680863453110956,-1.4893472324280106
1.6562627395145508,4.199850855161593,-0.01896974533080754,0.15409641591271264,-1.4319813115505957
1.652700127787629,4.171882225034011,-0.018531430742054357,0.14031021700921004,-1.3662583132326738
1.6492283183701626,4.146511963370436,-0.018013931547066132,0.12674516892315094,-1.2917177625536758
1.6458633903074733,4.1236963654002174,-0.01740636384966055,0.11341902023703383,-1.2079507715566349
1.6426237114627686,4.103388418131235,-0.0166955187261793,0.10034884575224803,-1.114644025633878
1.639530471071612,4.08553807495311,-0.01586490644389124,0.08754950349118046,-1.0116423587974175
1.6366084457133188,4.0700928836754855,-0.0148932552223527,0.07503145732593693,-0.8990335012691335
1.6338871344758166,4.056999079585708,-0.013752126225038984,0.06279805940855988,-0.7772543515149145
1.6314024852697173,4.046203190450356,-0.012402075944425467,0.05084287885830263,-0.6472070340470804
1.629199591012159,4.037653990032457,-0.010786284661450705,0.03914870448800237,-0.5103513091770268
1.6273370887556569,4.031304141630887,-0.008819002249099242,0.027691805002202387,-0.36870890210381224
1.6258951012107246,4.027109786425132,-0.006359814013346126,0.016459302426804837,-0.22469102393736565
1.6249936532771785,4.025022997265754,-0.003129111602930873,0.005506899250875264,-0.08067621281953802
