x,y,v_x,v_y,omega
2.375,32.48,0.0,2.3076923076923075,-6.775510204081632
2.374024318121931,32.045750744370466,-0.010270335558619732,2.2633524884079836,-6.450781792983635
2.3712086602504625,31.619796064629064,-0.019368168351578167,2.220380982554189,-6.148551795179764
2.366763879100664,31.20188321404443,-0.027419001646296917,2.1787016551788048,-5.866726980148691
2.3608783936735676,30.79177330999461,-0.03453347653366922,2.138244703240337,-5.603451242682896
2.3537208224197643,30.389240200904254,-0.04080937876952337,2.098945918763401,-5.357074116714417
2.3454422646806243,29.994069462773382,-0.04633333427405411,2.060746061561558,-5.126124109582604
2.3361782842927172,29.606057506314492,-0.051182248756543786,2.0235903222162386,-4.909286015336629
2.3260506397709944,29.22501077901887,-0.05542453568264761,1.987427859842958,-4.705381531284663
2.315168797910701,28.850745049126807,-0.059121168109911484,1.952211402178756,-4.5133526313093055
2.3036312615416583,28.483084760620624,-0.06232658314317014,1.917896897886323,-4.3322472512169155
2.2915267372114383,28.121862450101737,-0.06508946243809251,1.884443212838809,-4.161206922039228
2.278935164523153,27.766918217836597,-0.06745340796491027,1.8518118636363212,-3.9994560515741866
2.265928625522859,27.41809924642562,-0.06945752888029194,1.819966782795039,-3.846292606159246
2.2525721497772486,27.075259361514416,-0.07113695265244714,1.7888741110071127,-3.7010799864579234
2.238924428492395,26.738258629767607,-0.07252327139864874,1.758502012643487,-3.5632399250050044
2.2250384491110364,26.406962989992916,-0.07364493261564792,1.7288205113006534,-3.4322462610104885
2.2109620602199196,26.08124391386231,-0.07452758202768839,1.6998013427057277,-3.307619470717339
2.196738475244795,25.760978093147312,-0.07519436507888456,1.6714178227152896,-3.1889218504189154
2.1824067222647385,25.446047150782785,-0.07566619260591992,1.6436447284902647,-3.075753264834735
2.168002046303833,25.136337373410683,-0.07596197540361016,1.6164581912160907,-2.9677473865233024
2.153556269628182,24.83173946334245,-0.07609883170850888,1.589835598975819,-2.8645683628591434
2.139098114866169,24.53214830812439,-0.07609227104951898,1.5637555085826962,-2.765907856202357
2.1246534951606595,24.237462766101224,-0.0759563574295309,1.5381975653453555,-2.671482410551649
2.1102457750375696,23.94758546655493,-0.0757038543924687,1.5131424298788172,-2.5810311044452607
2.0958960052229108,23.662422623153134,-0.07534635418288928,1.4885717111927195,-2.494313455360599
2.0816316943248556,23.381891505870172,-0.0748042868492707,1.4643874181016043,-2.4073385643024787
2.0674763970493943,23.105912269203408,-0.07419884236610896,1.4406571783906763,-2.3242089675186532
2.0534414659995446,22.834400169834346,-0.07353727394810061,1.4173649202309897,-2.2447098077501906
2.039536940414621,22.567273447861567,-0.07282615326161916,1.3944953110614569,-2.168640527919741
2.025771669533423,22.304453190514888,-0.07207143496151884,1.372033713640413,-2.095813764488714
2.012153424310311,22.045863203915047,-0.07127851475544791,1.3499661453053038,-2.026054338322849
1.9986889986476586,21.791429892295955,-0.07045228169352634,1.3282792401588124,-1.9591983334188396
1.9853843011832883,21.54108214415763,-0.06959716529984494,1.3069602139288143,-1.8950922549053615
1.9722444385611435,21.294751224863255,-0.06871717809115296,1.2859968312751573,-1.8335922586639808
1.9592737910157236,21.05237067523492,-0.06781595396589718,1.2653773753388975,-1.7745634457360049
1.9464760810141994,20.813876215739505,-0.06689678289225255,1.2450906193496487,-1.7178792154050415
1.933854435623224,20.579205655889467,-0.06596264227591109,1.2251258001244771,-1.663420671484348
1.9214114431991143,20.34829880851342,-0.06501622534629509,1.2054725933075674,-1.611076076903766
1.9091492049392524,20.121097408578876,-0.06405996686277912,1.186121090213967,-1.560740352192403
1.8970693817783577,19.89754503627399,-0.0630960664097955,1.1670617761532704,-1.512314613898243
1.8851732370649508,19.677587044077995,-0.062126509520804965,1.1482855101203429,-1.4657057493814685
1.8734616754101463,19.46117048757029,-0.06115308684555758,1.1297835057502439,-1.4208260247704363
1.861935278062337,19.24824405974688,-0.060177411552432905,1.1115473134435447,-1.3775927231831955
1.8505943351267864,19.03875802862999,-0.05920093513757618,1.0935688035763516,-1.3359278105976669
1.8394388749182178,18.832664177972152,-0.05822496179472468,1.0758401507166573,-1.295757627004098
1.8284686907067602,18.629915750870424,-0.05725066148377646,1.058353818775243,-1.2570126006975777
1.817683365092706,18.43046739611937,-0.05627908182205568,1.0411025470253021,-1.2196269837692815
1.8070822922231922,18.234275117143582,-0.055311158909669256,1.0240793369303525,-1.1835386070353353
1.7966646980438044,18.041296223361336,-0.05434772718914869,1.0072774397248851,-1.1486886528040652
1.7864296587600261,17.851489283841293,-0.053389528429572265,0.9906903446966276,-1.1150214440279664
1.7763837105900753,17.665035270236572,-0.05235729441201598,0.9719834827214926,-1.1282232075271728
1.7665301481078721,17.48212437277838,-0.05136441592696243,0.9533943852594823,-1.143293098317857
1.7568615710684068,17.302734516550682,-0.05041007922530533,0.9349198908215246,-1.1601045116222488
1.747370740351062,17.126844214507628,-0.049493402009901384,0.9165569727895782,-1.1785335732738405
1.7380505903655095,16.954432542278322,-0.048613439943283744,0.898302734887316,-1.1984588599528152
1.7288942402743073,16.785479113786877,-0.04776919259568642,0.8801544071278866,-1.2197611253500615
1.7198950041350094,16.61996405759801,-0.04695960887060859,0.862109342228579,-1.242323031102988
1.7110464000578414,16.457867993900177,-0.0461835919416859,0.8441650124854955,-1.2660288813569578
1.7023421584689036,16.29917201203911,-0.045440003731344984,0.8263190071046632,-1.2907643598085512
1.6937762295633614,16.14385764851517,-0.04472766895857323,0.8085690299894525,-1.3164162680809668
1.6853427900281863,15.991906865357336,-0.0440453787801111,0.790912897987735,-1.34287226426756
1.6770362491096633,15.843302028785931,-0.04339189404644551,0.773348539605982,-1.3700206004566098
1.6688512540970941,15.69802588807422,-0.04276594819112451,0.7558739942014938,-1.39774985801863
1.6607826952908726,15.556061554516596,-0.04216624976910004,0.7384874116682454,-1.4259486793966145
1.652825710520392,15.417392480407646,-0.0415914846570127,0.7211870526364771,-1.4545054950891716
1.6449756892750504,15.282002437932114,-0.04104031792553234,0.7039712892112256,-1.4833082444562047
1.6372282765099766,15.149875497860396,-0.04051139539103466,0.686838606280557,-1.5122440889062554
1.6295793761869835,15.020996007937853,-0.04000334485099649,0.6697876034304117,-1.5411991159435112
1.6220251546107112,14.895348570848533,-0.03951477700450138,0.6528169975097984,-1.5700580324605349
1.6145620436199515,14.772918021624822,-0.039044286056127975,0.6359256258976832,-1.5987038455598643
1.6071867436947893,14.653689404364055,-0.03859044999821071,0.6191124505314302,-1.6270175290738895
1.5998962270414765,14.53764794810078,-0.03815183056297536,0.6023765627661868,-1.654877673828283
1.5926877407189237,14.424779041669186,-0.037726972832316484,0.5857171891453133,-1.6821601195607563
1.5855588098734035,14.315068207373855,-0.03731440448894997,0.5691336981739776,-1.7087375662657975
1.5785072411515662,14.208501073268181,-0.03691263468828489,0.5526256082015324,-1.7344791625901967
1.571531126366252,14.105063343818362,-0.036520152525549174,0.5361925965334191,-1.7592500687580188
1.564628846494922,14.004740768706213,-0.036135425067396885,0.5198345099102489,-1.782910991363925
1.5577990760969431,13.907519109496238,-0.03575689491132921,0.5035513765105218,-1.8053176872500964
1.5510407882435486,13.813384103860585,-0.035382977229666504,0.48734341965424255,-1.8263204335886096
1.5443532600632295,13.722321427019722,-0.035012056247375856,0.47121107340746576,-1.8457634612480476
1.5377360790157406,13.634316650016334,-0.034642481094612355,0.45515500031241596,-1.8634843485589898
1.5311891500200638,13.549355194394732,-0.03427256096514247,0.439176111493915,-1.8793133727480609
1.5247127035758206,13.467422282807938,-0.033900559500577104,0.4232755894197149,-1.893072816641075
1.5183073050340887,13.388502885019282,-0.03352468830712746,0.4074549136187529,-1.9045762288219161
1.511973865192809,13.312581658705394,-0.033143099495816765,0.39171588968532556,-1.9136276363864413
1.5057136524145072,13.23964288440331,-0.03275387711788659,0.37606068191554987,-1.9200207109057683
1.499528306490695,13.169670393877947,-0.03235502734329352,0.3604918499303628,-1.923537890429133
1.493419854509094,13.102647491119782,-0.03194446719987417,0.3450123896292545,-1.9239494636190968
1.487390729018239,13.038556865120924,-0.03152001165123052,0.3296257787797684,-1.9210126268503556
1.4814437888312129,12.977380493527875,-0.031079358738518057,0.3143360274628684,-1.9144705319199407
1.4755823428693684,12.919099536242204,-0.030620072438793614,0.2991477334389357,-1.9040513517565352
1.4698101775225674,12.86369421805297,-0.0301395627906907,0.28406614223722293,-1.8894674053661946
1.4641315881017198,12.811143699462164,-0.029635062691916,0.26909721135021986,-1.8704144028734242
1.4585514150928791,12.761425935044475,-0.02910360055903787,0.2542476772570352,-1.8465708992330112
1.4530750861062014,12.714517519020365,-0.028541967721779277,0.2395251229967431,-1.8175980842260122
1.4477086646729158,12.670393518297395,-0.027946678944387644,0.22493804250819222,-1.783140091152035
1.4424589074182799,12.629027294164658,-0.027313923735990973,0.21049589573116484,-1.742825083197559
1.4373333316893508,12.590390315272934,-0.026639504989575256,0.19620914523435856,-1.6962674827080935
1.43234029653858,12.554451966725647,-0.025918759755381816,0.18208926052655577,-1.6430718544517489
1.4274891012064632,12.521179363345976,-0.025146454266901555,0.16814866978579543,-1.5828391508107285
1.4227901071400662,12.490537179856524,-0.024316641168855693,0.15440063010316948,-1.5151762851911201
1.4182548924866585,12.46248751724302,-0.023422460445964598,0.1408589763547929,-1.4397103232323902
1.4138964524595115,12.436989833348768,-0.02245585562926653,0.12753769621627276,-1.3561089515571214
1.4097294658091353,12.41400097680135,-0.02140716174311272,0.11445026744075236,-1.264109230898857
1.4057706580648066,12.39347537578152,-0.020264498723506937,0.10160869066271414,-1.1635567842405847
1.4020393080158553,12.375365443757861,-0.019012870212821893,0.08902217274420635,-1.0544571207564248
1.398557967734064,12.359622265490575,-0.017632816963927753,0.07669549322721264,-0.9370390162361649
1.3953535027632162,12.346196602706737,-0.01609839325552276,0.06462727291846598,-0.8118255895016
1.392458617663101,12.335040181853344,-0.014374081482530686,0.05280873606462366,-0.6797005847706702
1.3899141411668854,12.326107051670736,-0.012409881635530737,0.041224213225987,-0.5419450911833932
1.387772602803399,12.319354454394325,-0.010132627453800221,0.029855758104652144,-0.40020688846678365
1.3861044276031573,12.314741954467657,-0.007427111496110348,0.018696872702391593,-0.2563600149077835
1.38501139608702,12.312225471636896,-0.004078483410599465,0.007792420252992274,-0.11222849167177643
