x,y,v_x,v_y,omega
2.375,32.48,0.0,3.948717948717949,-4.6938775510204085
2.3734184269190313,31.663100928269067,-0.015062600771129095,3.8312732106242358,-4.298446876337437
2.3689768406977394,30.870192421603903,-0.02723822038403225,3.7202363766630295,-3.953653499465778
2.362225324055829,30.099985778215977,-0.037061938110352806,3.6150649889362936,-3.65123684767362
2.353612826419404,29.351299635475936,-0.04496184890321662,3.51527922763553,-3.38451256039094
2.343507178006211,28.623047808230734,-0.0512824216986237,3.4204524604140136,-3.1480332086286626
2.3322107822121043,27.914228921837285,-0.05630230015001032,3.330203600475968,-2.9373298180937653
2.3199730026803818,27.223917504620903,-0.06024798110449357,3.2441908492038425,-2.748713156901626
2.3070000021279125,26.55125628126405,-0.06330440510949772,3.162106516099549,-2.579119689277072
2.293462602214048,25.89544946469382,-0.06562321311778498,3.083672689331208,-2.425991229015093
2.2795025962012865,25.25575688571169,-0.0673292250989915,3.008637586689053,-2.287180241119124
2.2652378444063257,24.631488831108648,-0.06852555390063438,2.9367724571494422,-2.160874821442242
2.250766406480383,24.022001485182784,-0.06929766444167539,2.8678689326206896,-2.0455388872815314
2.236169907382613,23.42669288838676,-0.06971661267994468,2.8017367511510036,-1.939864208518378
2.2215162905482915,22.84499934165405,-0.06984164288502212,2.7382017891605175,-1.8427317165042498
2.206862078636623,22.276392196764753,-0.06972228008324874,2.6771043526422895,-1.753180127803023
2.1922542367858955,21.72037498262165,-0.0694000232570136,2.6182976868158323,-1.67038036912023
2.1777317136152488,21.176480825035107,-0.06890972122533615,2.5616466711512755,-1.5936146286572468
2.1633267198979995,20.644270123947578,-0.06828069512941892,2.507026672539434,-1.522259116614145
2.1490657928550165,20.12332845725641,-0.06753765766089369,2.4543225340431447,-1.4557698144873499
2.134970684602557,19.613264684739214,-0.06670146855300588,2.4034276804063612,-1.3936706443557907
2.121059105853015,19.11370922922135,-0.06578975763310997,2.3542433245256467,-1.3355436066694268
2.1073453500663533,18.62431251518255,-0.06481744033509741,2.3066777615581806,-1.2810205263894394
2.093840818546906,18.144743547585282,-0.06379714556439836,2.260645739368178,-1.2297761188172975
2.080554463215868,17.67468861590426,-0.06273957187405971,2.2160678956891804,-1.181522142690248
2.067493160764594,17.213850110210807,-0.06165378480474037,2.1728702537722526,-1.136002452582737
2.054662029453271,16.761945437772088,-0.06054746577928735,2.130983769453651,-1.0929887979688373
2.042064697843283,16.318706030006442,-0.05942712098250158,2.090343923552504,-1.0522772444779758
2.029703533145649,15.883876430828455,-0.058298257090205745,2.0508903543330947,-1.0136851154554947
2.017579835558401,15.457213458449722,-0.057165529455013186,2.0125665254643668,-0.9770483701084508
2.0056940038944706,15.038485433598161,-0.05603286734432331,1.975319425502875,-0.9422193491957869
1.9940456769224273,14.62747146789999,-0.05490358000846971,1.9390992954320705,-0.9090648311269957
1.9826338541186592,14.223960806851021,-0.05378044669408376,1.9038593812247753,-0.8774643510248972
1.9714569989320307,13.827752222401717,-0.052665793178568586,1.869555708768597,-0.8473087432262241
1.9605131271673089,13.438653450705392,-0.05156155696164029,1.8361468788154511,-0.8184988741854958
1.9497998826829044,13.05648067104088,-0.05046934288983037,1.8035938798941962,-0.7909445380880724
1.9393146022565722,12.681058022328536,-0.04939047069428639,1.7718599173662242,-0.7645634918859101
1.9290543711873864,12.3122171540187,-0.04832601567891152,1.74091025701315,-0.7392806101188748
1.91901607096362,11.94979680845087,-0.04727684359505641,1.7107120817281023,-0.7150271429152513
1.9091964201259986,11.593642432065074,-0.04624364057276552,1.6812343600413697,-0.6917400630896899
1.8995920092875884,11.243605813098924,-0.04522693884066331,1.6524477253505538,-0.6693614903658922
1.8901993311298753,10.899544743628113,-0.04422713885184358,1.6243243648476535,-0.6478381825182059
1.8810148060749978,10.561322704008592,-0.04324452833746522,1.596837917243,-0.6271210847105667
1.8720348042329342,10.22880856795761,-0.042279298729808054,1.5699633784806304,-0.6071649295613921
1.8632556641366993,9.901876326671204,-0.04133155932957086,1.543677014723241,-0.587927881518767
1.8546737087058174,9.580404830519594,-0.040401349535971236,1.51795628195874,-0.569371220024036
1.846285258816395,9.264277546991114,-0.039488649410908294,1.4927797516458372,-0.5514590567004485
1.8380979312559127,8.953383332677742,-0.038485898784161705,1.4681175275291347,-0.5310748279245352
1.8301183436458093,8.647615152891284,-0.03751017369301355,1.443960375199042,-0.5116530226440726
1.8223408827974517,8.346868887835619,-0.03656088200563144,1.4202897681882312,-0.4931365590631687
1.8147600621058866,8.05104421656505,-0.03563741029498774,1.3970880534362442,-0.475472383975842
1.807370525365003,7.76004443898184,-0.03473913009437989,1.374338399737174,-0.45861114346013665
1.800167049368628,7.473776308280229,-0.03386540320443092,1.3520247498019704,-0.442506884068879
1.7931445454829302,7.192149873108637,-0.03301558618316565,1.3301317756417594,-0.4271167813687207
1.7862980603497935,6.9150783287806625,-0.03218903413242326,1.3086448370056207,-0.412400893036835
1.7796227758586811,6.642477876918868,-0.03138510387817046,1.28754994263053,-0.3983219340380805
1.7731140085054464,6.37426759296395,-0.030603156628826837,1.266833714082977,-0.3848450716805327
1.7667672082400818,6.110369301026143,-0.029842560184169465,1.2464833519913743,-0.37193773858908546
1.76057795689121,5.850707455596016,-0.029102690757466167,1.2264866044860288,-0.3595694618496916
1.7545419662428556,5.5952090296686485,-0.02838293446495753,1.2068317376793816,-0.3477117067644855
1.7486550758284412,5.343803408868787,-0.02768268852946452,1.1875075080335882,-0.3363377338237359
1.7429132504977976,5.096422291195331,-0.027001362238570525,1.1685031364755183,-0.3254224676470885
1.7373125778050489,4.852999592031644,-0.026338377692368152,1.1498082841310147,-0.3149423767762861
1.7318492652583903,4.613471354093992,-0.025693170371048586,1.1314130295609073,-0.3048753633165698
1.7265196374668335,4.377775662014045,-0.02506518954853929,1.1133078473909512,-0.2952006615260778
1.721320133213875,4.1458525612731485,-0.024453898574874504,1.0954835882366332,-0.2858987445433308
1.716247302483585,3.9176439812259645,-0.023858775046935694,1.0779314598317729,-0.27695123852368814
1.711297803460778,3.693093661969531,-0.023279310884560023,1.0606430092771093,-0.26834084352766285
1.7064683995235925,3.4721470848306097,-0.02271501232672813,1.043610106331676,-0.26005126056823036
1.7017559562439275,3.2547514062598246,-0.022165399860559605,1.0268249276758004,-0.2520671242816589
1.6971574384086856,3.040855394935459,-0.021630008094124378,1.0102799420800688,-0.24437394073772406
1.6926699070726312,2.8304093718929906,-0.02110838558258525,0.9939678964196289,-0.23695802995112944
1.688294848072441,2.6235000114002993,-0.020558842990655083,0.976597441606001,-0.25545171304860115
1.6840316821334675,2.420226456788395,-0.020042737380519347,0.9593411737454788,-0.27583137536053126
1.6798734199612322,2.22056506188175,-0.01955975949791238,0.9421959206035215,-0.2979874860528712
1.6758131461697507,2.0244928337892603,-0.019109514706673974,0.9251586326582846,-0.3218134766556451
1.671844036383831,1.831987407670983,-0.018691530873514065,0.9082263779919607,-0.3472055055797345
1.6679593727532325,1.6430270225357049,-0.018305265608375403,0.8913963375821149,-0.37406222997410016
1.6641525580091325,1.4575904979870948,-0.017950112906863512,0.8746658009760881,-0.4022845840159818
1.660417128183995,1.2756572118395475,-0.01762540923730351,0.8580321623338986,-0.4317755627499949
1.656746764107389,1.0972070785276138,-0.017330439111326795,0.8414929168273703,-0.4624400106093443
1.6531353017824864,0.9222205282352611,-0.0170644401734585,0.8250456573854998,-0.49418441376363303
1.6495767417408693,0.7506784866730563,-0.01682660784194233,0.8086880717783473,-0.5269166954429128
1.6460652574668178,0.5825623554327564,-0.016616099529977276,0.792417940034041,-0.5605460133866158
1.6425952029764392,0.41785399284967184,-0.016432038473626145,0.7762331321858419,-0.5949825585586485
1.6391611196317728,0.2565356953035476,-0.01627351718986458,0.7601316063486503,-0.6301373542559846
1.6357577422653544,0.09859017888861388,-0.01613960058554811,0.7441114071268871,-0.6659220547172662
1.6323800046866486,-0.05599943861734147,-0.0160293287354597,0.7281706643583837,-0.702248742309806
1.6290230446381964,-0.20724965555616137,-0.01594171934503785,0.7123075922018007,-0.7390297223375404
1.625682208266328,-0.35517660403806417,-0.015875769910851028,0.696520488578216,-0.7761773144683337
1.6223530541688067,-0.49979606751177386,-0.01583045958935303,0.6808077349809251,-0.8136036397259636
1.619031357079825,-0.6411234983352472,-0.015804750781899427,0.6651677966712343,-0.8512204019293682
1.6157131112513787,-0.7791740354303514,-0.015797590441399723,0.6495992232821722,-0.8889386623884916
1.6123945335891858,-0.9139625221099266,-0.015807911103293274,0.634100649856662,-0.9266686065813812
1.6090720666010627,-1.0455035241718207,-0.015834631640737392,0.6186707983518785,-0.9643193014400433
1.6057423812159857,-1.1738113483617383,-0.01587665774094799,0.6033084796473568,-1.0017984417618324
1.6024023795330538,-1.2989000613153223,-0.015932882096498326,0.5880125961010295,-1.0390120841376291
1.5990491975612096,-1.420783509099941,-0.016002184302017008,0.5727821447048924,-1.0758643666465137
1.595680208012974,-1.5394753374885113,-0.0160834304430852,0.5576162209005646,-1.1122572124077974
1.592293023218633,-1.6549890131111766,-0.01617547236016182,0.5425140231248131,-1.1480900149039286
1.5888854982313854,-1.7673378456467503,-0.016277146566005,0.5274748581663339,-1.183259302790909
1.5854557341989797,-1.8765350112341537,-0.01638727279024087,0.5124981474279613,-1.2176583816956783
1.5820020820834695,-1.9825935773054297,-0.016504652119381014,0.49758343420326534,-1.2511769502622498
1.5785231468179992,-2.085526529066591,-0.01662806469462056,0.48273039209348306,-1.2837006874508317
1.5750177919981425,-2.1853467978809817,-0.016756266923061026,0.4679388347102394,-1.3151108078186937
1.5714851452154206,-2.282067291842907,-0.016887988150480687,0.4532087268318862,-1.345283581222075
1.567924604152415,-2.3757009288669764,-0.017021926735287497,0.43854019720689796,-1.3740898130818537
1.5643358435725738,-2.4662606726625356,-0.01715674545367834,0.4239335532269754,-1.4013942810632625
1.5607188233536513,-2.5537595720125594,-0.01729106615510663,0.4093892977256629,-1.4270551237491975
1.5570737977320217,-2.6382108038342977,-0.017423463574700107,0.3949081481956471,-1.4509231766644586
1.5534013259462043,-2.7196277205645956,-0.017552458194988893,0.3804910587595666,-1.4728412508747124
1.5497022844922825,-2.798023902488218,-0.017676508032838344,0.36613924527493613,-1.4926433493985845
1.5459778812319571,-2.8734132157123966,-0.017793999208354793,0.35185421400297917,-1.5101538169214994
1.5422296716264199,-2.9458098765865444,-0.017903235130095473,0.33763779432225216,-1.5251864189135684
1.5384595774068133,-3.015228523472281,-0.01800242410425325,0.32349217601810193,-1.5375433474174656
1.5346699080358226,-3.081684296885129,-0.01808966514327703,0.3094199517233062,-1.5470141527573962
1.530863385366265,-3.145192929153204,-0.018162931709652077,0.2954241651155322,-1.5533746036222067
1.5270431719633222,-3.205770844865768,-0.01822005308027824,0.28150836548029157,-1.5563854829700325
1.5232129036300033,-3.263435273507497,-0.018258692951332086,0.2676766692028669,-1.5557913348275219
1.519376726764517,-3.3182043757795583,-0.018276324815202572,0.25393382862630565,-1.5513191885375244
1.515539341289528,-3.3700973851729756,-0.01827020351802732,0.2402853084538827,-1.5426773041322999
1.5117060500360908,-3.4191347663481224,-0.01823733222899245,0.22673736940467298,-1.5295540078847873
1.5078828156542157,-3.4653383917287357,-0.018174423788865718,0.2132971580297138,-1.5116167245262555
1.5040763263811407,-3.508731737351411,-0.018077855002323763,0.19997280028146847,-1.4885113676533122
1.5002940723659852,-3.549340098285427,-0.01794361180868105,0.18677349432819226,-1.4598623304839808
1.4965444347885462,-3.5871908226455673,-0.017767222262166572,0.17370959481598341,-1.425273436785815
1.4928367908247546,-3.6223135610528345,-0.01754367263108782,0.1607926757294022,-1.38433038244524
1.4891816387745407,-3.654740524901136,-0.017267299275712068,0.14803555139729432,-1.3366054432019423
1.4855907496670695,-3.6845067413216057,-0.016931644604964383,0.13545222403572377,-1.2816655702069768
1.4820773548712973,-3.7116502844437633,-0.016529258211913946,0.12305771046101091,-1.2190854702699794
1.4786563844571727,-3.7362124504086864,-0.016051412398797524,0.11086767968111848,-1.1484678876128527
1.4753447795709551,-3.7582378266569734,-0.015487681755654433,0.09889780839780714,-1.0694740354756105
1.4721619160040587,-3.7777741842317667,-0.014825304595742318,0.08716273993354466,-0.981867801271987
1.4691301987904057,-3.7948720979544603,-0.014048192677140792,0.07567453361590293,-0.8855774861659638
1.4662759243805439,-3.8095841831000072,-0.013135373131068434,0.06444056300835563,-0.7807773202991939
1.4636305666774363,-3.8219638532302582,-0.012058509755670037,0.053461057279718505,-0.6679856455861325
1.4612327443860331,-3.832063603730248,-0.010777893019598497,0.04272704272019916,-0.548164220922629
1.459131322040461,-3.839933102503764,-0.009235653128708655,0.03222056464663427,-0.42278113543509116
1.4573905822154454,-3.8456179856715167,-0.00734282139525033,0.02192117980812544,-0.29377277192969303
1.4561000953640548,-3.849161671737015,-0.004947529570372821,0.011828211291871189,-0.16332701731788798
1.4554010192558793,-3.850618062137009,-0.0017103381265375374,0.0020421734700077823,-0.033450547835403965
