x,y,v_x,v_y,omega
2.375,32.48,0.0,2.9743589743589745,-4.816326530612245
2.374145754546116,31.950319083504052,-0.009491616154265107,2.9109845422626464,-4.544334052857047
2.3716958660216942,31.431841558766752,-0.01772936745042262,2.849876843707346,-4.295057525430277
2.36786186630904,30.924171415910386,-0.024870629356844944,2.7909025213633787,-4.066011480653041
2.362828892599776,30.426935658621662,-0.03105130074609283,2.7339392262891065,-3.855034282370644
2.356759261250611,29.939782433294084,-0.03638904757795788,2.678874388461786,-3.660239803808318
2.349795506627707,29.46237936343031,-0.04098600378764183,2.6256041655801443,-3.4799772087806864
2.3420629735921747,28.99441206008243,-0.04493102994049779,2.5740325382852114,-3.312797325781491
2.333672036033027,28.535582784243083,-0.04830160960558723,2.5240705265963945,-3.1574244151854964
2.324720000897571,28.085609241178535,-0.051165447455033194,2.4756355074541294,-3.012732370379454
2.3152927467677578,27.64422348996007,-0.053581820654002896,2.428650617195503,-2.877724581365533
2.3054661376299257,27.21117095408566,-0.05560272532191085,2.383044225853478,-2.751516836904966
2.295307245662261,26.786209521227086,-0.05727385209658703,2.338749472575146,-2.633322757964623
2.2848754112944984,26.36910872189328,-0.05863541865632773,2.2957038533560183,-2.5224413481014643
2.2742231642262847,25.959648978249053,-0.05972288210160283,2.2538488538020705,-2.4182463207524596
2.2633970253277385,25.5576209155307,-0.0605675501044665,2.21312962084632,-2.320176923206914
2.252438206233587,25.162824729504997,-0.061197106497220995,2.1734946683281113,-2.2277300254002843
2.2413832208585336,24.77506960426276,-0.06163606433670308,2.1348956121411757,-2.1404532809562937
2.2302644209089264,24.394173175352215,-0.06190615732559812,2.097286931309364,-2.057939199959682
2.2191104656663763,24.019961033864597,-0.0620266787027383,2.0606257518863624,-1.9798199992044738
2.207946734810099,23.65226626760296,-0.062014775255894806,2.0248716510207103,-1.905763117263029
2.196795691775695,23.290929035910278,-0.06188570290415605,1.9899864788979966,-1.8354672995526553
2.1856772040777104,22.935796175117044,-0.06165304929567124,1.955934196582365,-1.7686591733485526
2.1746088261181473,22.586720831900983,-0.061328928032807165,1.9226807280405287,-1.7050902449702043
2.163606049235552,22.24356212214063,-0.06092414844046765,1.8901938248522967,-1.6445342616065892
2.152682523096998,21.906184813096992,-0.060448364210132485,1.858442942299198,-1.5867848888087919
2.1418502519794727,21.574459026978605,-0.059910203762373576,1.8273991256829065,-1.5316536618617558
2.1311197690126242,21.248259964139528,-0.05931738475816748,1.797034905862382,-1.4789681752893826
2.120500291048685,20.927467644331408,-0.05867681484115538,1.7673242031167273,-1.4285704798438
2.1099998564771267,20.611966664582056,-0.057994680398382945,1.7382422385427678,-1.3803156606396405
2.099625448002327,20.301645972407577,-0.05727652487716996,1.7097654522847932,-1.3340705737481342
2.08938310214488,19.99639865318457,-0.05652731798334971,1.6818714279708353,-1.2897127216710662
2.079278007004913,19.696121730615463,-0.05575151690517338,1.6545388227970095,-1.2471292507597858
2.069314589633703,19.40071597931531,-0.05495312055271534,1.6277473027602305,-1.2062160559027324
2.0594965941936136,19.11008574863368,-0.05413571767050027,1.6014774825912461,-1.166876979737186
2.049827151942162,18.824138796901785,-0.053302529567851344,1.5757108699853795,-1.1290230952977438
2.0403088439507733,18.542786135363933,-0.052456448114245754,1.5504298137685102,-1.092572062437562
2.03094375735979,18.265941881114344,-0.051600069563345,1.525617455671342,-1.0574475495839915
2.0217335358763306,17.99352311841644,-0.05073572469731335,1.5012576854165187,-1.023578713447436
2.0126794251386966,17.725449767832345,-0.04986550572084365,1.4773350988511762,-0.9908997302159719
2.003786332820626,17.461646353121736,-0.04894663114660674,1.4538139534889178,-0.9577809254849603
1.9950579849408934,17.202039891802865,-0.04803501196153503,1.4307022833874536,-0.9260492231721584
1.986492990271547,16.946557900277014,-0.04713159547564743,1.407986511344246,-0.895631041732182
1.978089799046784,16.695130287581623,-0.04623719591060755,1.385653629715636,-0.8664574384756785
1.9698467256341101,16.447689255593744,-0.04535250867465682,1.3636911701496792,-0.8384637702549504
1.9617619687714918,16.204169204509117,-0.04447812313221507,1.3420871752350623,-0.8115893822961112
1.953833629626651,15.964506643264759,-0.04361453403268354,1.3208301719244924,-0.7857773225714575
1.946059727906746,15.728640104597293,-0.04276215174403661,1.2999091466029131,-0.7609740793717847
1.9384382162219693,15.496510064451673,-0.04192131142014926,1.2793135216817353,-0.7371293399747759
1.9309669928846995,15.26805886547541,-0.041092281216180956,1.2590331336100709,-0.714195768515931
1.9236439133064316,15.043230644352246,-0.0402752696534637,1.2390582122028575,-0.6921288013558906
1.9164668001374598,14.821971262746544,-0.039470432224001484,1.219379361193832,-0.6708864584051522
1.9094334522789778,14.604228241645519,-0.038677877314686214,1.199987539928655,-0.6504291690164493
1.9025416528836305,14.389950698901124,-0.037897671522505075,1.1808740461201708,-0.6307196111885299
1.8957891764484263,14.179089289786859,-0.03712984442421049,1.1620304995938715,-0.6117225629445455
1.8891737950931153,13.971596150397264,-0.036374392857020814,1.1434488269571916,-0.5934047648553354
1.882693284107511,13.767424843729298,-0.03563128476080741,1.1251212471313254,-0.5757347927739503
1.8763454268426256,13.566530308295476,-0.03490046262680648,1.107040257688897,-0.5586829399340394
1.870128019012835,13.368868809128422,-0.034181846593088455,1.0891986219450502,-0.542221107642298
1.8640388724694095,13.174397891045562,-0.033475337222750826,1.0715893567534152,-0.5263227038649961
1.858075818499631,12.983076334051177,-0.032780817997008896,1.0542057209619575,-0.5109625490715103
1.8522367107002218,12.79486411076077,-0.032098157551986424,1.037041204486994,-0.4961167887545214
1.8465194274688923,12.609722345739943,-0.03142721168500648,1.0200895179666511,-0.4817628120977545
1.840921874153426,12.427613276656743,-0.030767825153508753,1.0033445829578007,-0.46787917630842135
1.83544198489375,12.248500217152667,-0.030119833287335408,0.9868005226430474,-0.45444553617338956
1.8300829457727144,12.072574042626343,-0.029425045835282868,0.9679347498716568,-0.49144975722568196
1.8248447748966754,11.900034474251825,-0.02877685278737072,0.9491715654007421,-0.5296295137348558
1.81971922609661,11.730863274389002,-0.028173689435578214,0.9305084330750817,-0.5688817906136725
1.8146983357706143,11.565042652819013,-0.027613980853260427,0.9119429177025669,-0.6091049457292513
1.8097744244951486,11.402555248786623,-0.027096144429694352,0.8934726826573267,-0.6501984835198703
1.8049400982079038,11.243384113441337,-0.026618592095248007,0.8750954878458665,-0.6920628293155013
1.8001882490164405,11.08751269261176,-0.026179732254344272,0.8568091880383288,-0.7345991033557874
1.7955120556838655,10.934924809847015,-0.025777971440932954,0.8386117315699626,-0.7777088934715433
1.790904983840393,10.785604649657824,-0.02541171570876212,0.8205011594210623,-0.8212940253596642
1.7863607859676347,10.639536740888094,-0.025079371766329087,0.8024756046870591,-0.8652563293360176
1.781873501200908,10.496705940145382,-0.0247793478639683,0.7845332924541737,-0.909497402395812
1.7774374549937244,10.357097415215495,-0.024510054438071555,0.7666725401001198,-0.9539183643453508
1.7730472586879562,10.220696628382537,-0.0242699045149082,0.7488917580438677,-0.9984196066921184
1.7686978090329646,10.087489319570974,-0.024057313873889385,0.7311894509734967,-1.0429005328908738
1.764384287697251,9.957461489220549,-0.023870700967369,0.7135642195867917,-1.08725928844078
1.7601021608169836,9.830599380798038,-0.02370848659115971,0.696014762885563,-1.1313924792114245
1.7558471786270649,9.706889462841872,-0.023569093296826656,0.678539881071824,-1.1751948762426785
1.7516153752223387,9.586318410426223,-0.02345094453346151,0.661138479102068,-1.218559105113405
1.7474030684990582,9.468873085920176,-0.02335246350298794,0.6438095709651198,-1.2613753178058074
1.7432068603299746,9.354540518904955,-0.023272071709053314,0.6265522847595677,-1.3035308448044824
1.7390236370303955,9.243307885097298,-0.023208187175160672,0.6093658686588256,-1.344909824960979
1.7348505701773769,9.135162484110094,-0.023159222302822725,0.5922496978656615,-1.3853928104251516
1.7306851178499638,9.030091715861538,-0.02312358133509958,0.5752032826738315,-1.424856343693702
1.7265250263651706,8.92808305542136,-0.023099657384827128,0.5582262777725766,-1.4631725035547563
1.7223683325923311,8.829124026056284,-0.023085828980054665,0.5413184929505035,-1.5002084164172556
1.7182133669376847,8.733202170206617,-0.02308045607157343,0.5244799053791427,-1.5358257292095525
1.7140587571017512,8.640305018090967,-0.023081875438799283,0.5077106736836324,-1.569880039720126
1.7099034327244127,8.55042005359594,-0.023088395420515866,0.49101115403889944,-1.6022202799465057
1.7057466310468352,8.463534677061613,-0.023098289885901565,0.4743819185647387,-1.6326880477345562
1.7015879037357275,8.37963616452085,-0.023109791348626247,0.45782377633261206,-1.6611168817568678
1.6974271250342419,8.298711622890234,-0.023121083112327405,0.4413377973408833,-1.6873314747373347
1.6932645014254137,8.220747940541848,-0.02313029031909563,0.4249253398633978,-1.7111468198398823
1.6891005830189039,8.145731732607615,-0.023135469753235747,0.40858808162809895,-1.7323672853916194
1.6849362769004246,8.073649280280826,-0.023134598229867822,0.3923280553362353,-1.7507856137339655
1.680772862716349,8.004486463282841,-0.023125559370972094,0.3761476890858203,-1.7661818411775105
1.6766120108044575,7.938228684557174,-0.0231061285389321,0.36004985231046677,-1.7783221380500713
1.6724558032267778,7.874860786140175,-0.02307395565751086,0.3440379078784297,-1.7869575710675283
1.6683067581136473,7.814366955040793,-0.023026545599493735,0.3281157710035941,-1.791822795296061
1.664167857791808,7.756730617848305,-0.02296123575427637,0.31228797557959,-1.792634690642827
1.6600425812469135,7.701934322687627,-0.022875170300105364,0.29655974842795324,-1.7890909693159591
1.6559349415674571,7.649959607075985,-0.02276527058274598,0.28093709170142395,-1.7808687977867022
1.6518495291406599,7.600786850232371,-0.022628200826110875,0.26542687322761876,-1.767623502014576
1.6477915615337073,7.554395108499879,-0.02246032814002829,0.2500369238000791,-1.7489874617617758
1.6437669412155183,7.510761932834594,-0.02225767539540459,0.23477613914751863,-1.7245693540871019
1.6397823225867296,7.469863167906482,-0.022015864924469015,0.2196545822759335,-1.6939539852945629
1.6358451902402669,7.431672733418921,-0.021730050036228805,0.2046835786969549,-1.6567030657192672
1.6319639510561688,7.396162390040306,-0.021394829787085817,0.18987579217653686,-1.6123574481391723
1.628148043781053,7.363301495227674,-0.021004139936420817,0.17524526129716722,-1.5604415890690067
1.6244080713837188,7.333056758740327,-0.020551108922849663,0.16080736634004056,-1.5004713290147635
1.6207559640912454,7.305392014510076,-0.020027860993519612,0.14657868066272767,-1.4319665519735734
1.6172051852141383,7.280268035642965,-0.01942523764100462,0.13257664008295433,-1.3544708972046948
1.6137709986729898,7.257642433572258,-0.018732390593977175,0.11881893848045161,-1.2675814416000024
1.6104708281624158,7.237469701144832,-0.01793617063462239,0.10532253293537745,-1.170992025938465
1.607324755688294,7.219701481230597,-0.017020190188955543,0.09210213277832197,-1.0645542836871853
1.6043562357881176,7.204287161013859,-0.015963364257449885,0.07916809185210522,-0.9483595315018079
1.6015931475218843,7.191174890615976,-0.014737616478475268,0.06652380145769213,-0.8228406346436502
1.5990693812649437,7.180313066333845,-0.013304230820865195,0.054163135010432246,-0.6888827109658645
1.5968272915518353,7.171652134968369,-0.011607877102561098,0.042069435717098445,-0.5479118757305392
1.5949216439106593,7.1651461513202115,-0.009565985577172923,0.030219271484638693,-0.40190339029380073
1.5934265780386796,7.160752613317609,-0.007045857444821308,0.01859781743318375,-0.25322844882818785
1.592450981145395,7.1584265076642986,-0.003794108036117423,0.007247800936912494,-0.1042705777651205
