x,y,v_x,v_y,omega
2.375,32.48,0.0,2.1538461538461537,-2.8571428571428577
2.374564350142524,32.0532781059257,-0.004356498574756196,2.1133727868968046,-2.722554720307251
2.373306984079418,31.634535369545045,-0.008217162056308366,2.074054576909766,-2.5970515810285524
2.37132184835833,31.223546316452595,-0.011634195154572993,2.0358359540147393,-2.479815891905105
2.3686930438088067,30.82009622080868,-0.014653850340658841,1.9986650024244081,-2.3701184079594606
2.36549594099304,30.423980406387635,-0.01731717781700694,1.9624931417860394,-2.2673072442498183
2.36179815609659,30.03500360778236,-0.019660671147492058,1.9272748442666827,-2.1707984563938583
2.35766040652861,29.652979385116588,-0.0217168245323084,1.892967382391062,-2.080067908943684
2.3531372625732225,29.27772958652966,-0.023514615021566196,1.8595306034782226,-1.9946442364651595
2.3482778089943013,28.909083853462533,-0.02507992076764636,1.826926727193016,-1.914102734675663
2.343126228455641,28.546879164415778,-0.026435884618957663,1.7951201632745375,-1.838060045580392
2.3377223169058974,28.19095941339321,-0.027603230878477065,1.764077346951166,-1.766169522389517
2.3321019396352627,27.841175019706025,-0.02860054182786939,1.7337665899206682,-1.698117178016452
2.3262974354921213,27.497382566206017,-0.029444499603547964,1.7041579450794073,-1.6336181358781359
2.320337975715146,27.15944446335416,-0.03015009816620241,1.67522308343918,-1.5724135141189741
2.314249882958597,26.82722863682192,-0.030730829399287247,1.6469351818832096,-1.5142676847221275
2.3080569153406683,26.500608236574404,-0.03119884678000304,1.619268820591952,-1.458965857625266
2.3017805197058228,26.179461365603135,-0.03156510956845145,1.5921998891207325,-1.4063119472210122
2.295440057744905,25.863670826667093,-0.03183951004072368,1.565705500239692,-1.3561266847366347
2.2890530081471816,25.553123885567523,-0.032030985936511464,1.5397639107560164,-1.3082459451494375
2.282635147554467,25.247712049628706,-0.03214761999063626,1.5143544486321423,-1.262519261663958
2.27620071273922,24.947330860186074,-0.0321967281618343,1.4894574457941687,-1.2188085044857726
2.2697687546399306,24.651881404779452,-0.03212285283105964,1.4650371082720608,-1.174938697636361
2.2633559441402844,24.361268349756028,-0.03200525216540016,1.44109344196218,-1.1330823336269062
2.256970558074618,24.075398064968155,-0.0318486084912652,1.4176094059165654,-1.0931231008346611
2.2506199814198715,23.794180250205876,-0.031657158056195914,1.3945687417062036,-1.0549526778441674
2.244310792148586,23.51752778323582,-0.03143473465666378,1.371955927994376,-1.0184700973230578
2.238048837810165,23.24535657660888,-0.031184808727544144,1.3497561382750087,-0.9835811673239225
2.2318393046974467,22.977585442629707,-0.030910522399639463,1.3279552015167249,-0.9501979442233562
2.2256867803603866,22.71413596593025,-0.030614720970962798,1.306539565477839,-0.9182382521532179
2.219595310144828,22.454932383134526,-0.0302999811846201,1.2854962624794226,-0.8876252443447346
2.2135684483603684,22.19990146914227,-0.02996863665997892,1.264812877443134,-0.8582870023037195
2.2076093046160237,21.948972429596154,-0.029622800783467768,1.244477518018017,-0.8301561691736976
2.2017205858046736,21.702076799130733,-0.029264387330033247,1.2244787866361881,-0.8031696140307756
2.195904634166138,21.45914834503197,-0.028895129055321864,1.2048057543514379,-0.7772681241961921
2.1901634618134582,21.22012297596408,-0.028516594471476663,1.1854479363274757,-0.7523961229553212
2.1844987820667554,20.984938655445934,-0.028130202995551277,1.1663952688539871,-0.7285014103403472
2.178912037903348,20.753535319782635,-0.027737238638521372,1.1476380877790047,-0.7055349248721225
2.173404427801061,20.525854800179193,-0.02733886238434891,1.1291671082554242,-0.6834505243685406
2.167976929223405,20.301840748782855,-0.02693612339221182,1.1109734057079539,-0.6622047841152793
2.162630319970126,20.081438568418616,-0.02652996914057663,1.0930483979344343,-0.6417568108627847
2.1573651975941655,19.864595345798932,-0.026121254619026844,1.0753838282624224,-0.6220680712632845
2.152181997066017,19.651259788003863,-0.025710750662459984,1.0579717496882424,-0.6031022334955554
2.1470810068485457,19.441382162041897,-0.025299151512251504,1.040804509931453,-0.5848250209449732
2.1420623835293107,19.23491423731446,-0.024887081680099326,1.0238747373429116,-0.5672040769136543
2.1371261651430635,19.031809230819228,-0.02447510218237228,1.0071753276093867,-0.5502088394316808
2.1322722833042493,18.83202175493809,-0.02406371620577122,0.9906994312020215,-0.533810425326729
2.1275030997358537,18.635689066478694,-0.02362811947818417,0.9726274533919228,-0.5538676357574219
2.1228182700135756,18.442959352695887,-0.023220177744597857,0.9546696844361536,-0.5757000809234981
2.118212284573008,18.25381008238864,-0.02283967666107505,0.9368230186363369,-0.599194793234962
2.113679685722309,18.068219333223233,-0.022486311845915926,0.9190844730176856,-0.6242413975320039
2.1092150848713938,17.886165767640207,-0.02215969666323633,0.9014511828125997,-0.6507318694095718
2.1048131782676407,17.707628609623804,-0.02185936937429701,0.8839203973514204,-0.67856029898265
2.1004687613602444,17.532587622253793,-0.021584799699666115,0.8664894763486807,-0.7076226591375208
2.09617674190713,17.361023085961346,-0.02133539483147333,0.8491558865757911,-0.737816577321874
2.0919321519308425,17.192915777412395,-0.021110504931403925,0.8319171989137164,-0.7690411099274163
2.0877301586230366,17.028246948942837,-0.02090942814665544,0.8147710857818798,-0.801196518312471
2.08356607429109,16.866998308470418,-0.020731415172810675,0.7977153189422909,-0.8341840454987407
2.0794353654348647,16.70915199980811,-0.020575673389441124,0.7807477676807806,-0.8679056925556072
2.075333661036799,16.554690583303007,-0.020441370591217537,0.7638663973702767,-0.9022639936567096
2.071256760144243,16.40359701672355,-0.020327638334342747,0.7470692684243031,-0.9371617887566088
2.067200638819288,16.255854636315878,-0.020233574915208483,0.7303545356523967,-0.9725019927895703
2.0631614565282383,16.111447137947344,-0.020158247995285174,0.7137204480329523,-1.0081873602372595
2.0591355620403746,15.970358558251728,-0.02010069688335267,0.697165348923189,-1.044120243846727
2.055119498903715,15.832573255686352,-0.020059934483240335,0.6806876767305626,-1.0802023462036647
2.0511100105641678,15.698075891405786,-0.020034948912234677,0.664285966075093,-1.1163344627776635
2.0471040451937244,15.566851409850493,-0.02002470479219755,0.6479588494778385,-1.152416214955133
2.0430987602932866,15.438885018940987,-0.020028144212180427,0.6317050596172242,-1.1883457714606573
2.039091527136281,15.31416216975904,-0.02004418735787995,0.6155234322022511,-1.2240195564378085
2.0350799351205318,15.192668535586826,-0.020071732799612302,0.5994129095199034,-1.2593319423147953
2.0310617960979163,15.074389990162487,-0.02010965742653927,0.5833725447234973,-1.2941749254178594
2.0270351487542024,14.95931258499619,-0.02015681601060258,0.5674015069394586,-1.3284377821152586
2.0229982631152468,14.847422525574018,-0.020212040378953477,0.5514990872822727,-1.3620067030765748
2.018949645260498,14.738706146257655,-0.020274138168532085,0.5356647058813592,-1.3947644030160418
2.014888042330567,14.633149883665556,-0.02034189113077746,0.5198979200396314,-1.4265897030555357
2.010812447922675,14.530740248295412,-0.02041405294814461,0.504198433661798,-1.457357082595016
2.0067221079761537,14.431463794118098,-0.020489346517065736,0.4885661081113393,-1.4869361973196509
2.002616527260037,14.335307085839077,-0.020566460644099702,0.47300097467887414,-1.5151913597104758
1.9984954765863148,14.242256663484028,-0.020644046093125007,0.45750324887160926,-1.5419809781701392
1.9943590008858645,14.152299003920465,-0.02072071091137833,0.4420733467640349,-1.5671569506438268
1.990207428299655,14.065420478875645,-0.020795014950717637,0.42671190368416173,-1.5905640084329558
1.9860413804558392,13.981607308952483,-0.020865463487439038,0.41141979554744856,-1.6120390058028695
1.9818617841241981,13.900845513078547,-0.02093049982897207,0.39619816319189927,-1.6314101510299561
1.9776698844634624,13.823120852748165,-0.020988496778385355,0.3810484401119272,-1.6484961747975155
1.9734672601048973,13.748418770333565,-0.021037746807265296,0.3659723840340758,-1.6631054324479277
1.9692558403478349,13.67672432064796,-0.021076450763358904,0.35097211282196217,-1.6750349376967715
1.9650379247804783,13.608022094842116,-0.021102704910207482,0.3360501452364806,-1.6840693272513214
1.9608162056834497,13.54229613560815,-0.021114486060078354,0.32120944710318455,-1.6899797586957035
1.956593793625826,13.479529842553795,-0.021109634516159315,0.30645348344038476,-1.6925227485047512
1.9523742467260998,13.41970586650367,-0.021085834481101875,0.2917862770608585,-1.6914389638456526
1.9481616041269754,13.362805991392658,-0.02104059151014254,0.27721247404926697,-1.6864519919575152
1.943960424328163,13.308811002358375,-0.020971206477980977,0.26273741629356884,-1.6772671258633802
1.939775829143067,13.257700538644357,-0.02087474537298074,0.2483672208466217,-1.6635702271358055
1.9356135542054056,13.209452930038193,-0.020748004003632952,0.23410886521504023,-1.6450267585400744
1.9314800071692872,13.16404501585987,-0.020587466357549867,0.2199702765681959,-1.6212811261346318
1.9273823350513195,13.121451946091913,-0.020389254822127403,0.2059604211113828,-1.5919565382857217
1.923328502604829,13.081646965265488,-0.020149069642777732,0.19208938715286147,-1.5566556872184023
1.919327384273668,13.0446011814245,-0.01986211366883049,0.17836845125701595,-1.5149626999180488
1.915388873276278,13.010283325230127,-0.01952299630506953,0.1648101106867225,-1.4664470065261541
1.9115240129325053,12.978659508532342,-0.01912560713265967,0.15142805629113565,-1.4106700574131181
1.9077451578148263,12.949692998183949,-0.01866294404412876,0.13823704719279678,-1.3471962086430695
1.9040661762513573,12.923344030323122,-0.018126871590562116,0.12525263141546894,-1.2756096071775287
1.9005027120524127,12.899569703633158,-0.01750777039888368,0.11249063548415611,-1.195539530469122
1.8970725335510612,12.878324007593555,-0.016794014614631012,0.09996632491189374,-1.1066972755231672
1.8937960144665058,12.859558062263197,-0.015971176230923388,0.08769312839169106,-1.0089280572747028
1.8906968173463914,12.843220664347989,-0.015020794970220417,0.07568085076039197,-0.9022807584657433
1.8878028922282202,12.82925923577833,-0.013918456211491504,0.06393343493620335,-0.7870953293638432
1.8851479712374268,12.817621224046182,-0.012630753696442535,0.052446682385281544,-0.6640997497440936
1.8827738594238517,12.808255848388775,-0.011110364439308285,0.041207074188783804,-0.5344930012270481
1.8807340756239728,12.801115721975961,-0.009287473559480721,0.03019418993934081,-0.3999676484093045
1.8791001157484981,12.79615711042166,-0.00705212519526594,0.019391925603650648,-0.2626050002664047
1.8779744706312926,12.79333558107832,-0.004204325976788395,0.008823367829749648,-0.12457912333397442
