x,y,v_x,v_y,omega
2.375,32.48,0.0,2.3076923076923075,-5.183673469387755
2.374245085034933,32.04571876924684,-0.007946473316492376,2.263689068656725,-4.935705557540921
2.372066653068389,31.61967305001969,-0.014984389489236638,2.2210027126816883,-4.704832984185803
2.368628134893459,31.20161916522691,-0.021210538667920772,2.1795644956633873,-4.489481020506596
2.3640756424565734,30.79132600632558,-0.026710434351927728,2.139310861192704,-4.288250152402904
2.3585399714006337,30.38857409927597,-0.03155978728954565,2.1001828972242356,-4.099893472105526
2.3521383442037034,29.99315476670263,-0.035825762151823724,2.062125866705638,-3.923297393041692
2.344975931751282,29.604869373370224,-0.03956805313682016,2.02508879995127,-3.7574651372161227
2.3371471849550454,29.22352864418307,-0.04283980787619883,1.9890241388609091,-3.6015025464595984
2.3287370029593126,28.848952045624422,-0.045688423657829685,1.9538874249143152,-3.4546058499866943
2.3198217603190407,28.48096722294653,-0.048156235713454607,1.9196370243266525,-3.3160510855463126
2.310470212105554,28.11940948656886,-0.05028111390219609,1.8862338849119924,-3.185184923621493
2.3007442930554025,27.764121342089286,-0.05209698136255643,1.8536413201361428,-3.0614166863590473
2.2906998245116617,27.414952059099853,-0.05363426646629454,1.8218248165947013,-2.9442113872688602
2.280387140927353,27.07175727465567,-0.0549202975790581,1.7907518617651297,-2.833083645835505
2.26985164603735,26.7343986277967,-0.05597964863149972,1.760391789381939,-2.7275923542811142
2.259134307402086,26.402743421986944,-0.056834442266016694,1.7307156401944406,-2.6273359927860422
2.248272096838551,26.076664312729022,-0.05750461629751041,1.7016960362047382,-2.5319485052825867
2.2372983832449753,25.75603901794702,-0.058008158371703804,1.673307066763679,-2.4410956610965426
2.2262432834656236,25.440750049016607,-0.0583613129898966,1.645524185135409,-2.3544718387071164
2.215133976107,25.130684460566847,-0.058578764469298064,1.6183241143357654,-2.2717971771164973
2.2039949825866345,24.825733617389716,-0.05867379890297108,1.5916847612129907,-2.192815048078905
2.1928484191539765,24.525792976976184,-0.0586584477565846,1.5655851378768029,-2.1172898089881427
2.1817142231562543,24.23076188635656,-0.058543615377334095,1.5400052896981933,-2.045004801768005
2.1706103564190475,23.940543392061123,-0.05833919238273878,1.514926229201139,-1.975760567818816
2.15955298826239,23.65504406213811,-0.058054156634710134,1.4903298752516465,-1.9093732530832257
2.1485630261597106,23.37417833280073,-0.057629654972437445,1.466151486194421,-1.842803866542737
2.1376583587390905,23.097863623714684,-0.0571563178761961,1.4424243989218977,-1.7791758047004673
2.1268477282946927,22.826015687293534,-0.05663979206483552,1.41913282656391,-1.7183249548784718
2.116138855046689,22.558553207896765,-0.05608518949309588,1.3962616934020455,-1.6600980999741164
2.1055385339037813,22.29539767060495,-0.055497138326986405,1.3737965938802454,-1.6043520786603958
2.0950527220282553,22.03647323751034,-0.054879828783813554,1.3517237544840561,-1.550953019129065
2.084686618126655,21.781706631000674,-0.05423705439092773,1.3300299982492856,-1.49977563916588
2.074444734289985,21.531027023556994,-0.05357224915296511,1.3087027116841448,-1.4507026061300123
2.0643309611196488,21.284365933625587,-0.052888521061102894,1.2877298139096598,-1.4036239510991786
2.0543486267976325,21.04165712715922,-0.05218868232853954,1.2670997278415683,-1.3584365320503426
2.044500550690574,20.802836524455202,-0.051475276693132614,1.2468013532533395,-1.3150435414834072
2.0347890920161684,20.567842111946547,-0.050750604090082634,1.2268240415746277,-1.2733540543710957
2.0252161940460245,20.336613858629157,-0.050016742964062284,1.2071575722926025,-1.2332826127399674
2.015783424270675,20.109093636832,-0.04927557046067056,1.18779213083537,-1.194748843561881
2.006492010909363,19.885225147059053,-0.04852878071103717,1.1687182878272724,-1.1576771069680352
1.9973428761087784,19.664953846652,-0.04777790140037709,1.1499269796153637,-1.1219961720939746
1.9883366661406048,19.44822688204092,-0.04702430879092237,1.1314094899749358,-1.0876389181280355
1.9794737788770642,19.23499302436688,-0.0462692413516106,1.1131574329096976,-1.054542058371407
1.9707543887962253,19.025202608275883,-0.04551381213090362,1.0951627364692083,-1.0226458853286347
1.9621784697442741,18.818807473697625,-0.04475901999489912,1.0774176275124927,-0.9918940350358694
1.9537458156599334,18.615760910435448,-0.04400575984026665,1.0599146173525054,-0.9622332690030151
1.9454560594464794,18.416017605405933,-0.04325483188030147,1.0426464882213178,-0.933613272297379
1.9373086901590746,18.21953359237735,-0.04250695009237989,1.0256062805006405,-0.9059864664324101
1.9293030686592119,18.02626620406646,-0.04176274990617611,1.0087872806665985,-0.8793078358473578
1.9214384418737416,17.83617402646248,-0.04102279520403681,0.9921830099016047,-0.8535347668736935
1.9137192632432298,17.64943127687659,-0.04023171669608662,0.9735301436341156,-0.8731746957077562
1.9061468757906614,17.466221713496545,-0.03947762490989734,0.954991576155811,-0.8945253755517939
1.8987143260067756,17.286523907666925,-0.03875974123626835,0.9365642746822783,-0.9174680184594147
1.8914148144253435,17.11031699506524,-0.0380772227788067,0.9182453316512611,-0.9418862472639455
1.884241707255488,16.93758065229732,-0.03742916848283112,0.9000319606426448,-0.9676658363380635
1.8771885469001783,16.76829507422654,-0.0368146247309537,0.8819214927339931,-0.9946944569899879
1.870249061458912,16.602440951954847,-0.0362325904402714,0.8639113732838167,-1.0228614264263944
1.8634171733062763,16.439999451374796,-0.035682021692736286,0.8459991591377822,-1.0520574592133347
1.8566870068323953,16.280952192212368,-0.03516183592706397,0.8281825162561798,-1.0821744201597134
1.8500528954261655,16.125281227480432,-0.03467091571745968,0.8104592177641952,-1.1131050775330824
1.8435093877776678,15.972969023261992,-0.034208112161463744,0.792827142429923,-1.1447428554944055
1.8370512535721786,15.823998438741178,-0.0337722478963183,0.7752842735786574,-1.1769815846066833
1.8306734886447895,15.678352706397899,-0.033362119760408614,0.7578286984558534,-1.2097152492314807
1.8243713196617675,15.536015412279337,-0.032976501113509214,0.7404586080553293,-1.2428377305770026
1.8181402083924436,15.396970476257867,-0.03261414382674044,0.7231722974338308,-1.2762425441008682
1.811975855633626,15.261202132180536,-0.03227377995028608,0.7059681665380905,-1.3098225698995192
1.8058742048472682,15.128694907809692,-0.03195412306400833,0.6888447215760469,-1.3434697746336597
1.799831445571444,14.999433604447812,-0.03165386931309012,0.6718005769700605,-1.3770749234445647
1.7938440166645684,14.873403276131658,-0.03137169812770317,0.6548344579368472,-1.4105272802088946
1.787908609443308,14.75058920827173,-0.031106272622405316,0.637945203746595,-1.443714294359223
1.7820221707757697,14.63097689560217,-0.030856239667472724,0.6211317717224378,-1.4765212723633798
1.7761819061934003,14.514552019293664,-0.030620229620626455,0.6043932420513084,-1.508831031807724
1.770385283087602,14.401300423067397,-0.030396855703568645,0.5877288234883213,-1.5405235358677651
1.764630034060445,14.29120808813131,-0.030184713003345798,0.5711378600494479,-1.571475505774908
1.7589141605031215,14.184261106740468,-0.029982377073742333,0.5546198388015273,-1.6015600087021415
1.7532359364809886,14.080445654161213,-0.029788402106604335,0.5381743988748323,-1.630646018297154
1.747593913010335,13.979747958793144,-0.029601318637119074,0.5218013418416844,-1.658597944893397
1.741986922819458,13.882154270173789,-0.029419630740532724,0.5055006436252238,-1.685275132235495
1.7364140856954133,13.787650824557463,-0.02924181267046212,0.48927246812557196,-1.7105313173762904
1.7308748145280524,13.696223807721772,-0.02906630488070663,0.47311718277642656,-1.7342140502553054
1.7253688221748886,13.607859314612014,-0.02889150936312117,0.45703537627366997,-1.7561640693766283
1.7198961292841641,13.522543305384886,-0.028715784223452275,0.4410278787487222,-1.7762146300029946
1.714457073229482,13.440261557357942,-0.028537437404781908,0.42509578469277826,-1.7941907814220375
1.709052318327899,13.360999612309701,-0.028354719453987574,0.40924047897291893,-1.8099085901915097
1.7036828675348308,13.28474271850726,-0.028165815209889405,0.39346366631591745,-1.823174306933967
1.6983500758340724,13.211475766763797,-0.027968834271777585,0.3777674046678977,-1.8337834753717759
1.6930556655703939,13.141183219748285,-0.027761800082731422,0.36215414286379194,-1.84151998407448
1.6878017440064959,13.073849033686148,-0.02754263743198543,0.34662676305342544,-1.8461550641222662
1.6825908234269469,13.009456571505567,-0.027309158142214292,0.33118862832113233,-1.847446239983021
1.6774258441609817,12.947988506405704,-0.02705904465741732,0.31584363588795417,-1.8451362469411068
1.6723102009564679,12.889426714759555,-0.026789831179568985,0.3005962761767705,-1.838951937235405
1.6672477732130742,12.833752157230172,-0.02649888190878694,0.28545169781671564,-1.828603209846151
1.662242959679885,12.780944746997893,-0.026183365808994045,0.2704157783125411,-1.8137820172988273
1.657300718350903,12.730983204102756,-0.02584022712765781,0.2554951995310127,-1.7941615293216662
1.652426612465787,12.683844895153747,-0.025466150610407048,0.2406975262480202,-1.769395571089553
1.6476268637658484,12.639505658123756,-0.025057519915260937,0.2260312845939937,-1.7391185078793105
1.6429084145031427,12.597939612752999,-0.024610367060590208,0.21150603509817745,-1.7029458248849438
1.6382790002111305,12.559118958394102,-0.024120309697431817,0.19713243183756998,-1.6604757597570539
1.6337472360108038,12.523013763191788,-0.023582471358636788,0.18292225450257257,-1.6112924981124181
1.6293227203929788,12.489591751637338,-0.022991377250048697,0.1688883934390089,-1.554971653720964
1.6250161622195356,12.458818102223116,-0.022340814049352783,0.15504475828964343,-1.4910890417747393
1.620839539495098,12.430655273702573,-0.02162363568157067,0.1414060682424038,-1.4192341285999068
1.6168063028613118,12.405062887924906,-0.020831486779336772,0.12798746625937307,-1.3390300008522722
1.6129316436697598,12.381997709739679,-0.019954399447524824,0.11480388305879867,-1.2501621912795942
1.60923285729223,12.361413779618413,-0.018980194000159257,0.10186906558611625,-1.152419066031491
1.605729849133147,12.343262769839622,-0.017893576095449597,0.08919419524324901,-1.0457463305374444
1.6024458568048259,12.327494643019875,-0.016674764202668873,0.0767860870698722,-0.9303167392910521
1.5994085023079894,12.314058675972142,-0.015297388395608416,0.06464514501152739,-0.8066118742568513
1.5966513533306075,12.302904840487681,-0.013725232418940369,0.052763649561733614,-0.675503944620101
1.5942162918129656,12.293985351783554,-0.01190699408255254,0.04112570521853381,-0.5383107161219685
1.5921572609140635,12.287255818008731,-0.009767015379573236,0.02971149241117451,-0.3967787351281491
1.590546795508414,12.28267464555848,-0.007185252048316978,0.01851137548621253,-0.25293994689768273
1.5894902661171244,12.28019708166011,-0.003936109965257617,0.007568244496638938,-0.10880204451377998
