x,y,v_x,v_y,omega
2.375,32.48,0.0,2.564102564102564,-6.408163265306122
2.3736875586523665,31.947367633964856,-0.01249944140603184,2.5085866362321014,-6.043286192247742
2.3699239152026954,31.426176695162006,-0.023344781924172366,2.455136590461711,-5.709194985891086
2.364034476092348,30.91600720601747,-0.03274511436484891,2.4036204490100888,-5.402469078000756
2.356303790139996,30.416465596081515,-0.0408804661337383,2.3539186932370724,-5.120144363029832
2.3469811745459594,29.92718225767295,-0.04790634904756438,2.3059226249397424,-4.859642580019598
2.336285470181052,29.447809416553493,-0.05395750204679259,2.2595330047693647,-4.618713156626887
2.3244090785961036,28.978019265307115,-0.05915098923843182,2.214658911862822,-4.395385031930794
2.3115214029545568,28.517502317499012,-0.06358877877629966,2.1712167815476886,-4.187926528483701
2.2977717916258795,28.065965948743987,-0.06735990054443701,2.1291295875477867,-3.9948117610255327
2.283292064787178,27.623133097104763,-0.07054225982414544,2.0883261423495822,-3.814692386440915
2.2681986898376105,27.188741100193162,-0.07320416826697616,2.0487404949037367,-3.6463737430945793
2.252594659835776,26.762540650275668,-0.07540564127430373,2.0103114090724072,-3.4887946163640486
2.2365711198574107,26.3442948518243,-0.07719950137679439,1.9729819095120424,-3.341010014556856
2.2202087786393694,25.933778368480546,-0.07863231974741088,1.9366988842380244,-3.20217645536993
2.203579136747282,25.53077664844746,-0.07974522208199238,1.9014127351246763,-3.071539354951283
2.18674555748862,25.135085218995414,-0.0805745803814567,1.8670770691805267,-2.948422184928317
2.169764202666557,24.746509042137887,-0.08115260840009254,1.8336484247007012,-2.8322171215910914
2.1526848518589103,24.364861924666414,-0.08150787548225541,1.8010860274085339,-2.722376958889763
2.1355516210740113,23.989965976674746,-0.08166575104059351,1.769351572512143,-2.618408095416236
2.1184035942737607,23.621651113488575,-0.08164878991417589,1.7384090292609227,-2.5198644369361825
2.10127537927752,23.259754596578148,-0.08147706719288093,1.7082244651240674,-2.4263420817516894
2.0841975979002325,22.904120609589015,-0.0811684697336621,1.6787658871533981,-2.3374746773266737
2.0671973187789794,22.55459986610009,-0.08073895046875024,1.6500030984553935,-2.2529293540773905
2.0502984401592883,22.21104924612252,-0.08020275067116668,1.621907567997649,-2.1724031567153625
2.0335220289096076,21.87333145869915,-0.07957259456388704,1.5944523122249825,-2.0956199055837126
2.016886621179616,21.541314728262723,-0.07885986000745826,1.5676117871695336,-2.0223274304929775
2.0004084893911416,21.21487250266885,-0.0780747284542026,1.5413617899149652,-1.952295127994634
1.9841018796292582,20.893883181043332,-0.07722631689706838,1.5156793684232972,-1.8853118001167457
1.967979222969014,20.578229859778716,-0.07632279415287731,1.4905427388587758,-1.8211837385589185
1.9520745989132493,20.267806466715367,-0.0751498159020242,1.4658705284111935,-1.7536501541470313
1.936418095838837,19.962510782039715,-0.07395973718761695,1.4417074208807215,-1.689326654550769
1.9210128343955577,19.662237885042714,-0.07275703846266238,1.4180344552811908,-1.628021482293918
1.9058610491753194,19.36688674042479,-0.07154567792056016,1.3948335886990804,-1.5695565174151274
1.8909641924474578,19.076360011427788,-0.07032914805907264,1.3720876398437516,-1.5137661531410074
1.8763230266767672,18.790563884380326,-0.06911052594750462,1.3497802367987384,-1.4604962767303293
1.8619377070688854,18.50940790381307,-0.06789251793708537,1.327895768603705,-1.4096033444963172
1.8478078552419879,18.232804817374543,-0.06667749946193847,1.3064193403346642,-1.3609535412831346
1.8339326249962156,17.96067042984413,-0.06546755049779521,1.2853367313835597,-1.3144220157813946
1.820310761040469,17.692923465598717,-0.06426448717598451,1.2646343566679632,-1.2698921840378823
1.8069406514380697,17.429485438943153,-0.0630698899897216,1.2442992305279186,-1.2272550943654545
1.7938203744465593,17.17028053176324,-0.06188512897704305,1.2243189330903144,-1.1864088476062762
1.780947740350994,16.91523547800405,-0.06071138621881904,1.2046815789019447,-1.1472580673588655
1.768320328823248,16.664279454516,-0.0595496759501885,1.1853757876509599,-1.1097134153585966
1.7559355222808626,16.417343977847285,-0.05840086254872247,1.1663906568129683,-1.073691147712427
1.743790535666892,16.17436280659427,-0.057265676631949654,1.1477157360728816,-1.0391127081403597
1.7318824430261874,15.935271848950993,-0.056144729469997004,1.1293410033868907,-1.0059043547760118
1.7202082012128095,15.700009075126474,-0.05503852589550938,1.1112568425609064,-0.9739968174330825
1.7087646710271907,15.468514434323161,-0.0539474758722887,1.0934540222325404,-0.9433249825591347
1.6975486360496843,15.240729775992637,-0.05287190486586432,1.0759236761533923,-0.913827603377731
1.6865568194087373,15.016598775105432,-0.05181206314315502,1.058657284677143,-0.8854470329688552
1.6757858986967116,14.796066861190813,-0.0507681341142331,1.0416466573668541,-0.8581289782593438
1.665232519223962,14.57908115091988,-0.04974024181671408,1.0248839166420243,-0.8318222730929588
1.6548933057818194,14.365590384021264,-0.04872845763226463,1.0083614823924258,-0.8064786687265433
1.64476487306736,14.15554486233344,-0.047732806314967104,0.9920720574916339,-0.782052640256844
1.6348525305967172,13.949048284444412,-0.046670455310202585,0.9745620176419545,-0.787424365044979
1.6251590855555285,13.746216033999069,-0.04564806889159726,0.9571737008851137,-0.7950403186133322
1.6156761889450748,13.547022916490132,-0.044665232160340435,0.9399036087238252,-0.804773642473531
1.6063955887079877,13.351444456897447,-0.04372143676430053,0.9227483873969686,-0.816501218161904
1.5973091484417794,13.159456869957403,-0.0428160895805403,0.9057048215558451,-0.8301033814923666
1.5884088643634766,12.971037031707745,-0.04194852068900869,0.888769828440895,-0.8454636473817526
1.5796868806687892,12.78616245220525,-0.04111799068896772,0.8719404525352309,-0.8624684440912199
1.571135503418873,12.604811249318242,-0.04032369740547131,0.8552138606743617,-0.8810068557728012
1.562747213078226,12.426962123500022,-0.03956478202925988,0.8385873375944063,-0.9009703722477894
1.5545146758185313,12.252594333452695,-0.0388403347297387,0.8220582819039371,-0.9222526449736945
1.5464307536952986,12.081687672593706,-0.03814939977724117,0.8056242024673942,-0.944749248179188
1.5384885137968993,11.914222446239595,-0.037490980207514145,0.7892827151907931,-0.9683574441618656
1.5306812364589915,11.750179449423221,-0.03686404205827475,0.7730315402032515,-0.9929759517518699
1.5230024226313734,11.589539945261656,-0.03626751820475391,0.7568684994307052,-1.0185047169453767
1.5154458004789488,11.432285643792515,-0.035700311818336376,0.7407915145611165,-1.0448446847055912
1.508005331293704,11.278398681196226,-0.035161299469708814,0.7247986054035257,-1.0718975709150351
1.5006752147903768,11.127861599320973,-0.03464933389531251,0.7088878886465101,-1.099565633441337
1.4934498938548177,10.980657325425462,-0.034163246443344494,0.6930575770250222,-1.1277514412491472
1.486324058810898,10.836769152052469,-0.03370184921303619,0.6773059789082476,-1.156357640452856
1.4792926512691928,10.696180716942969,-0.03326393689843976,0.6616314983250899,-1.1852867161580836
1.472350867618585,10.558875982896772,-0.03284828834544433,0.6460326354482276,-1.2144407488839841
1.4654941622203523,10.424839217480653,-0.03245366782820271,0.6305079875624546,-1.2437211642927795
1.4587182503632934,10.294054972479024,-0.03207882604854661,0.6150562505482949,-1.2730284748771057
1.452019111037972,10.16650806297509,-0.03172250085927684,0.5996762209177571,-1.3022620121692305
1.4453929895882607,10.042183545941931,-0.031383417709403845,0.5843667984456552,-1.331319647938546
1.4388364002990959,9.92106669821317,-0.031060289806448975,0.5691269894472928,-1.3600975027346285
1.4323461289807038,9.803142993691239,-0.030751817987762713,0.5539559107615901,-1.3884896400124564
1.4259192356115984,9.688398079637924,-0.030456690289431074,0.5388527945080813,-1.4163877439442614
1.4195530571054515,9.576817751876415,-0.030173581197680748,0.5238169936967568,-1.4436807788796056
1.413245210270506,9.468387928716183,-0.029901150563706347,0.5088479887816447,-1.4702546282629967
1.4069935950346775,9.36309462339155,-0.029638042158471174,0.4939453952624841,-1.4959917106590297
1.4007963980149207,9.260923914781316,-0.029382881839209504,0.4791089724540194,-1.5207705703725782
1.3946520965159332,9.161861916149896,-0.029134275294005727,0.4643386335595213,-1.5444654399918838
1.3885594630509532,9.065894741619697,-0.028890805324851228,0.4496344572042684,-1.566945772034497
1.3825175704864423,8.973008470049617,-0.02865102862287218,0.4349967006060345,-1.5880757367530718
1.3765257979229473,8.883189105954752,-0.02841347198184267,0.42042581458316564,-1.60771368307912
1.370583837436669,8.796422537057737,-0.02817662788747344,0.4059224606265219,-1.6257115596754712
1.3646917018204268,8.712694488011593,-0.02793894941007123,0.3914875302891234,-1.641914293171512
1.3588497334791163,8.631990469777737,-0.027698844316695635,0.3771221671761654,-1.6561591209250144
1.353058614653787,8.554295724080301,-0.027454668305487668,0.3628277918470376,-1.6682748761693147
1.347319379170584,8.479595162289701,-0.027204717248828576,0.3486061299682075,-1.6780812242763445
1.341633425936636,8.407873298014824,-0.026947218312579478,0.33445924407823147,-1.6853878502521105
1.336002534435378,8.339114172606024,-0.026680319794638793,0.3203895693389087,-1.6899935997044129
1.3304288825099,8.273301272693008,-0.026402079495628842,0.3063999536422136,-1.6916855786977503
1.3249150667663883,8.210417438807553,-0.026110451394958892,0.29249370240973893,-1.6902382225829518
1.31946412598289,8.150444764078543,-0.025803270352643144,0.27867462834275575,-1.6854123506898528
1.3140795679749744,8.09336448194831,-0.025478234484650312,0.26494710623089546,-1.6769542335937035
1.3087654004545775,8.039156841863967,-0.025132884757224232,0.25131613266761,-1.6645947137754735
1.3035261665292923,7.987800971973954,-0.024764581197872535,0.23778739009443672,-1.6480484406832987
1.298366985638713,7.939274728052347,-0.02437047490288388,0.22436731392085887,-1.6270133099933008
1.293293600931016,7.893554528246344,-0.023947474694228758,0.2110631604220048,-1.6011702378082049
1.2883124343761723,7.850615173891338,-0.023492206780475307,0.19788307153044293,-1.570183458549674
1.2834306513383622,7.810429657702368,-0.02300096500819145,0.1848361302692606,-1.5337016171349998
1.2786562369625136,7.772968962329372,-0.02246964809512749,0.17193239709259775,-1.4913600406475567
1.2739980876842125,7.738201854834532,-0.021893678364883155,0.15918291238206297,-1.4427847334749562
1.269466122632004,7.70609468648836,-0.02126789356091154,0.14659964329576095,-1.387598855898632
1.2650714219457027,7.676611212862184,-0.020586398689578782,0.13419534362018928,-1.3254327314152161
1.2608264025375469,7.649712457054662,-0.01984235757857205,0.12198328311810439,-1.255938785903976
1.2567450472784845,7.625356649475474,-0.01902769250773592,0.10997678906462685,-1.1788132283190487
1.252843212073723,7.6034992908831,-0.01813264277570662,0.09818853086273722,-1.0938266479818608
1.2491390484110794,7.584093399922441,-0.017145106392327462,0.08662947828638766,-1.000865796020371
1.2456535991187687,7.567090017642947,-0.016049648772535216,0.07530749580404912,-0.8999881358702493
1.242411655952202,7.552439038408291,-0.01482600043286177,0.06422563976411123,-0.7914883505793683
1.2394430158811502,7.540090396943977,-0.013446762148583154,0.05338046941981397,-0.67597044177781
1.2367843544813515,7.529995525636526,-0.011873822611404359,0.04276116207972931,-0.5544088972624753
1.2344820998426667,7.522108742044438,-0.01005241204273669,0.03235106260681454,-0.4281680731255337
1.2325971260005353,7.5163877215151125,-0.007899719787085048,0.022134847196292634,-0.2989361703475347
1.2312136190003278,7.512791054430338,-0.005276537357747633,0.012119125039649188,-0.16853113557946173
1.2304624887472075,7.511266078339954,-0.0018770841005413797,0.0024044567735128815,-0.03857480843717656
