x,y,v_x,v_y,omega
2.375,32.48,0.0,3.6923076923076925,-4.816326530612245
2.3734924868248473,31.71552829935618,-0.014357268334788599,3.5883751709667626,-4.435350338678206
2.3692419603149832,30.972323590198133,-0.02612393652105794,3.489764916252727,-4.100069043051051
2.362745036783459,30.24931302262693,-0.03575152568393657,3.3960500129968314,-3.8034733319705794
2.354412443259973,29.545508453360952,-0.04360650787307262,3.3068506466791208,-3.5398151200014003
2.3445850361323104,28.859997274677998,-0.04998784572371351,3.221827245539509,-3.3043508237560797
2.3335465517279985,28.19193454954666,-0.055140577174495775,3.1406748985684736,-3.0931426338547605
2.3215338173168725,27.54053621560815,-0.05926641721718011,3.0631187579887857,-2.9029034105376184
2.3087449741655783,26.90507317366812,-0.06253208898562004,2.9889102128686265,-2.7308747071811874
2.295346134054537,26.284866115439677,-0.06507591207191651,2.91782367502129,-2.574730171186657
2.2814767937520872,25.679280974568783,-0.06701304318951232,2.8496538570824717,-2.4324985409868427
2.2672542591224194,25.08772490725937,-0.06843966756922577,2.7842134506262197,-2.3025018871302185
2.2527772753622246,24.509642726011393,-0.06943636824215488,2.7213311326878427,-2.1833057936434987
2.238129017718872,23.94451372342594,-0.07007084740882219,2.6608498443165,-2.073678952111656
2.2233795646302488,23.391848833662998,-0.07040013438758916,2.6026252962829552,-1.9725602208050275
2.2085879501334795,22.851188087638675,-0.07047238462926138,2.546524665853425,-1.8790316379191752
2.1938038728455638,22.322098324914286,-0.07032835144612873,2.492425455331255,-1.7922962093962522
2.179069123510194,21.804171130825026,-0.0700025946050089,2.4402144883759718,-1.7116595450390233
2.164418781050052,21.29702097199393,-0.06952447644396158,2.3897870243011057,-1.6365146114176838
2.1498822175235763,20.80028350718339,-0.06891898571294983,2.3410459738945204,-1.5663290208240095
2.1354839447992715,20.31361405361013,-0.06820742118519463,2.29390120299368,-1.5006343928824435
2.121244329701583,19.83668619151176,-0.06740796069755227,2.248268912228873,-1.4390174172875412
2.107180199522229,19.369190491999156,-0.06653613624867626,2.20407108312926,-1.3811123184175238
2.093305355876505,18.910833355134045,-0.06560523180583491,2.1612349822527754,-1.326594479731667
2.0796310117191936,18.461335946794925,-0.0646266173114174,2.119692716215013,-1.275175031273938
2.066166163766227,18.020433224284474,-0.06361002985969469,2.0793808315035767,-1.2265962398536914
2.052917910476386,17.5878730418264,-0.06256381099593022,2.0402399538113953,-1.180627570532602
2.039891724037746,17.163415328130977,-0.06149510746730945,2.0022144623354983,-1.1370623114390017
2.0270916834018515,16.746831329101227,-0.06041004144597104,1.9652521950907038,-1.0957146728370903
2.0145206742556616,16.33790290952772,-0.05931385518441159,1.9293041817998173,-1.0564172867184256
2.00218056087005,15.93642190829608,-0.058211034202366674,1.8943244013586735,-1.0190190456758246
1.9900723339765531,15.542189542222356,-0.05710541240236274,1.860269561248223,-0.9833832300303971
1.9781962381708957,15.155015854149656,-0.05600026193723232,1.8270988965870132,-0.9493858805567615
1.9665518817983532,14.774719201394628,-0.05489837018222062,1.7947739867942145,-0.9169143810428719
1.9551383318226159,14.40112578103361,-0.053802105777181246,1.763258588072641,-0.8858662206103327
1.9439541958005835,14.034069188872465,-0.052713475385034084,1.732518480128724,-0.8561479104330062
1.9329976927675578,13.673390009257634,-0.05163417254854126,1.7025213257268084,-0.8276740334059701
1.9222667145700767,13.318935433163912,-0.0505656198084231,1.6732365418324382,-0.8003664085781063
1.9117588789585014,12.970558902241645,-0.04950900506372346,1.6446351812367501,-0.7741533548865406
1.9014715755614384,12.62811977672596,-0.04846531300354247,1.616689823674525,-0.748969041014333
1.8914020057032612,12.291483025306945,-0.047435352312431095,1.5893744755541703,-0.7247529101110282
1.881547216889675,11.960518935235108,-0.046419779245532006,1.5626644775109428,-0.7014491697315028
1.871904132670452,11.6351028410934,-0.04541911808040281,1.5365364190767525,-0.6790063387131321
1.8624695784898757,11.315114870807943,-0.044433778877466,1.5109680598323538,-0.6573768438665731
1.8532403040513716,11.000439707595998,-0.0434640729178121,1.4859382564718866,-0.6365166603359136
1.8442252589345403,10.690967640084015,-0.04239349962343721,1.4614147674517601,-0.6130482058789474
1.8354322219264314,10.386592993235446,-0.041349709977600804,1.4373913930108138,-0.5906847989212065
1.8268556122162392,10.08721266463398,-0.0403322872623244,1.413849831765038,-0.5693610634091654
1.8184899410278925,9.792727304773713,-0.0393407716743121,1.3907726430946599,-0.5490162255345431
1.8103298197590876,9.503041141624369,-0.038374668980970465,1.3681431964228916,-0.5295937384793171
1.8023699664303012,9.218061815475004,-0.03743345795985336,1.3459456240472611,-0.5110409418262803
1.7946052106821466,8.937700223340364,-0.03651659678447489,1.3241647772350158,-0.49330875206516533
1.7870304975275686,8.661870372272013,-0.0356235284972226,1.3027861853206972,-0.47635138102902125
1.779640890037801,8.390489240968716,-0.03475368569103887,1.2817960175678444,-0.4601260794502112
1.7724315711172007,8.123476649128381,-0.03390649450515458,1.2611810475782086,-0.4445929031367823
1.7653978445014231,7.8607551340273005,-0.03308137802606045,1.2409286200511331,-0.4297144995437479
1.7585351350955474,7.602249833852056,-0.032277759172756035,1.221026619713105,-0.415455912754926
1.7518389887532497,7.347888377345601,-0.031495063134840615,1.2014634422531307,-0.40178440510360647
1.74530507158468,7.097600779362082,-0.030732719422965037,1.1822279671137126,-0.38866929384811855
1.7389291688690176,6.851319341955147,-0.02999016358334549,1.1633095319999702,-0.3760818014844637
1.7327071836375323,6.608978560652144,-0.029266838621275475,1.144697908981007,-0.36399491842528436
1.7266351349841635,6.370515035591989,-0.028562196172713536,1.1263832820680868,-0.35238327690490356
1.7207091561529444,6.135867387227652,-0.027875697457945513,1.1083562261636837,-0.34122303508602597
1.7149254924449342,5.904976176315635,-0.027206814046913358,1.090607687284087,-0.33049177044671085
1.7092804989815007,5.677783827934366,-0.026555028461975716,1.0731289639660824,-0.3201683816179455
1.7037706383557367,5.454234559291514,-0.02591983464053975,1.0559116897753602,-0.31023299792390857
1.6983924781993833,5.234274311096819,-0.025300738277110928,1.038947816840801,-0.3006668959499838
1.6931426886887988,5.017850682292341,-0.024697257061789796,1.0222296003447058,-0.29145242252878656
1.6880180400101557,4.804912867946179,-0.024108920830051856,1.0057495839044488,-0.2825729235927995
1.683015399801143,4.595411600128685,-0.02353527163673552,0.989500585785969,-0.27401267839445276
1.6781365328740798,4.389438207543378,-0.022930127668626014,0.9721507721693159,-0.2922420440004344
1.6733810675821035,4.18709632711424,-0.022360017969245603,0.9549147557272276,-0.3123513245693375
1.6687416884622452,3.9883623931748424,-0.021824545077021144,0.9377893770289252,-0.33423060440223373
1.6642111720214692,3.7932134906514072,-0.021323230549418974,0.9207715993847349,-0.35777292505419117
1.6597824029428476,3.601627329821021,-0.02085552258031028,0.9038585037618172,-0.3828740480221825
1.6554483887580425,3.4135822220952896,-0.020420802989263537,0.8870472841023053,-0.40943222479187613
1.6512022731132232,3.229057056746708,-0.020018393628061702,0.8703352430270509,-0.4373479733224226
1.6470373477464562,3.0480312784982573,-0.01964756224591012,0.8537197879105668,-0.46652386007194124
1.642947063286258,2.870484865899563,-0.019307527851214822,0.8371984273150903,-0.4968642866837928
1.638925038973414,2.6963983104152085,-0.018997465604442227,0.8207687677740139,-0.5282752804649307
1.6349650714012411,2.525752596152625,-0.018716511273393906,0.8044285109172455,-0.5606642877926236
1.6310611423632169,2.358529180158307,-0.018463765279218877,0.7881754509334145,-0.5939399695845252
1.6272074258912441,2.194709973211843,-0.018238296358616308,0.7720074723662398,-0.6280119979592842
1.6233982945627718,2.034277321047675,-0.018039144864930183,0.755922548244879,-0.662790853200379
1.619628325150495,1.8772139859341408,-0.017865325728180715,0.7399187385506807,-0.6981876201143408
1.6158923036844293,1.7235031285386384,-0.01771583109149178,0.7239941890255414,-0.7341137828455818
1.612185229992745,1.5731282900063022,-0.01758963263883587,0.7081471303300308,-0.7704810171732299
1.6085023217848842,1.4260733741775695,-0.017485683626503545,0.6923758775626598,-0.8072009792701077
1.6048390183381418,1.282322629867199,-0.017402920628188316,0.6766788301551668,-0.8441850898496637
1.6011909838470735,1.1418606331238372,-0.017340265001033688,0.6610544721625563,-0.8813443125625048
1.597554110493839,1.0046722693848267,-0.01729662407738906,0.645501372970891,-0.9185889254293867
1.593924521296858,0.8707427154355685,-0.017270892084335295,0.6300181884506107,-0.9558282840111479
1.5902985727950278,0.740057421076461,-0.017261950790236597,0.6146036625884971,-0.9929705749171136
1.586672857625218,0.6126020903927376,-0.01726866987461792,0.5992566296374386,-1.0299225581408593
1.5830442070518589,0.48836266251365856,-0.0172899070145172,0.5839760168299813,-1.066589296584734
1.5794096935092417,0.3673252917370249,-0.01732450767707696,0.5687608477094142,-1.1028738709910257
1.5757666332196791,0.24947632688272847,-0.017371304604472122,0.5536102461409947,-1.1386770783369273
1.5721125889540164,0.1348022897249379,-0.0174291169732671,0.5385234410760337,-1.1738971115714478
1.5684453730052044,0.02328985233587133,-0.017496749205895442,0.5234997721531417,-1.2084292183742666
1.5647630504508407,-0.08507418684479973,-0.01757298940709173,0.5085386962342224,-1.2421653363987422
1.5610639427868624,-0.19030292842313656,-0.0176566073927014,0.49363979498802907,-1.27499370222403
1.5573466320220413,-0.2924093991802934,-0.017746352272262095,0.4788027836515846,-1.306798430985679
1.5536099653317548,-0.39140658118128613,-0.01784094953998939,0.464027521119808,-1.3374590633828285
1.5498530603798306,-0.487307443160212,-0.01793909762119427,0.4493140215366378,-1.3668500764781704
1.5460753114292851,-0.5801249745182062,-0.0180394638125733,0.4346624675871461,-1.3948403544224544
1.542276396376731,-0.6698722223154476,-0.0181406795450844,0.4200732257199386,-1.42129261496172
1.5384562848613559,-0.7565623316901409,-0.018241334887058022,0.4055468635628299,-1.4460627873429543
1.5346152476179964,-0.84020859019666,-0.018339972192557282,0.3910841698325623,-1.468999337053156
1.5307538672653012,-0.9208244766226059,-0.01843507878549268,0.3766861770811869,-1.4899425327533877
1.5268730507447352,-0.998423714921195,-0.018525078553229428,0.3623541876672819,-1.508723650870392
1.5229740436547385,-1.0730203339820505,-0.018608322303881524,0.34808980338849216,-1.5251641136818455
1.5190584467573935,-1.1446287340602481,-0.018683076718451645,0.33389495926102275,-1.5390745575203284
1.5151282349733055,-1.213263760790376,-0.018747511701434134,0.31977196197828145,-1.5502538291334846
1.5111857792251595,-1.2789407878280912,-0.018799685899957664,0.3057235336190343,-1.558487910575633
1.507233871543089,-1.341675809283636,-0.01883753011976157,0.29175286119570837,-1.5635487767079577
1.5032757539076678,-1.401485543234351,-0.018858828312822224,0.27786365262064766,-1.5651931950879274
1.4993151513820306,-1.4583875477173365,-0.018861195740864246,0.2640601995982529,-1.5631614866614016
1.495356310177856,-1.512400350692758,-0.01884205382270289,0.2503474477867159,-1.5571762785837806
1.4914040414175325,-1.5635435955073405,-0.01879860103752084,0.23673107425693038,-1.546941299657976
1.4874637715074739,-1.6118382033349121,-0.018727779058274715,0.22321757171994852,-1.5321402971545983
1.4835416002421355,-1.6573065538622416,-0.01862623299256621,0.20981433806412125,-1.512436195344448
1.4796443680419915,-1.6999726850238872,-0.01849026415166297,0.1965297682372706,-1.487470676965928
1.4757797341357044,-1.7398625117173054,-0.018315773051072782,0.18337334312863085,-1.456864457747428
1.4719562680992964,-1.7770040619192855,-0.018098189200431384,0.1703557064140212,-1.4202186532854486
1.4681835580826126,-1.8114277261373601,-0.017832382387033444,0.15748871471049614,-1.3771178239601367
1.464472340483217,-1.8431665121740792,-0.017512547131020198,0.14478543802014418,-1.3271355493502361
1.4608346580973466,-1.8722562910761624,-0.017132047020124705,0.13226007533305487,-1.2698437552228086
1.4572840574278572,-1.8987360110013185,-0.01668319745120297,0.11992773347798107,-1.2048275183321915
1.4538358417498722,-1.9226478425678053,-0.016156951862938942,0.10780399572665716,-1.1317077117358165
1.4505074061728382,-1.944037201315524,-0.015542434585004698,0.09590418282306884,-1.0501745648280472
1.4473186966106688,-1.9629525707266495,-0.01482622791184656,0.08424219252096347,-0.9600357666302405
1.4442928599426947,-1.979445026991499,-0.013991264164097659,0.07282881952521165,-0.8612825293833737
1.4414571935604266,-1.9935673570584527,-0.01301508233369331,0.06166956206480624,-0.7541747208395921
1.4388445691585208,-2.0053726943791617,-0.011867054827314191,0.050762221941953095,-0.6393393527133155
1.4364956208613289,-2.0149127316160644,-0.010503881336419666,0.040095275552364654,-0.5178621892243853
1.4344622224042993,-2.022235909754542,-0.008861818254336963,0.02964927814741835,-0.3913288210730466
1.4328134127536547,-2.0273867185073513,-0.0068411307994219114,0.019406043307917842,-0.2617469162460653
1.4316473530773175,-2.030409058300002,-0.004264199451405978,0.009378145193512977,-0.13127733150223653
1.431128296402194,-2.031365786001885,-0.0006791974545330491,-0.00026645279461345525,-0.001790280219981677
