x,y,v_x,v_y,omega
2.375,32.48,0.0,2.1025641025641026,-6.775510204081632
2.373683239479848,32.00140839759954,-0.011450091479581698,2.0591020052659545,-6.421157046288272
2.36989517920494,31.532640279050607,-0.021489563084838795,2.017142503855195,-6.09388799935515
2.363941301309833,31.073360861076875,-0.030283288176957607,1.9765915654816237,-5.790932490191831
2.356091634080434,30.623255963478968,-0.03797468773085997,1.9373640658045053,-5.509865175604394
2.3465853176599842,30.18203009546924,-0.044688933316528845,1.899382612540949,-5.248555373175114
2.3356344966381384,29.749404790030653,-0.05053559730821749,1.8625765651859134,-5.005125059465771
2.323427654020511,29.325117145589836,-0.055610860236368284,1.8268812125602991,-4.777913777273881
2.3101324786551247,28.908918542147184,-0.059999360332210226,1.7922370782453882,-4.5654491556876415
2.29589834076772,28.500573505158826,-0.06377575173217745,1.7585893303490276,-4.366422020821264
2.280858436585007,28.099858695320222,-0.06700602376967615,1.7258872769431859,-4.179665284751446
2.2651316521989906,27.70656200625831,-0.06974862306525033,1.6940839322908343,-4.004135961970052
2.2488241881818074,27.320481755224357,-0.07205541186677505,1.663135641917455,-3.838899788611754
2.232030979505388,26.941425954362497,-0.07397248966730666,1.6330017568813033,-3.6831180185410006
2.2148369396834426,26.569211652139337,-0.07554090008874005,1.6036443494070332,-3.5360360485123947
2.197318053454318,26.20366433615712,-0.07679724103408403,1.57502796348181,-3.3969735868213333
2.17954233854781,25.844617389913747,-0.07777419293555006,1.5471193951562443,-3.265316129710432
2.161570693961837,25.491911597176788,-0.07850097737725681,1.519887498208598,-3.140507549992098
2.1434576495874924,25.145394688552386,-0.07900375631269933,1.493303011568806,-3.0220436349456237
2.125295935113509,24.80493347779617,-0.0789241956349848,1.467229255876563,-2.9011436508190176
2.1071681113522374,24.47040025954333,-0.07870905446302458,1.441755250669879,-2.7864947793207695
2.0891035634167636,24.141659937201815,-0.07837397106283427,1.4168562479519937,-2.677691296346164
2.0711282657840795,23.81858294941694,-0.07793296487354968,1.392508863220828,-2.574358906069609
2.053265134725689,23.501044967691506,-0.07739860954723778,1.368690977869898,-2.47615190904116
2.0355343432194446,23.188926615455156,-0.0767821861592342,1.3453816502722757,-2.382750661474292
2.0179536026194165,22.882113206693205,-0.07609381905840464,1.3225610346142667,-2.2938592919978325
2.0005384148313334,22.5804945024463,-0.07534259649014323,1.3002103066631785,-2.2092036465035756
1.9833022982835082,22.283964483668285,-0.07453667783877141,1.2783115957543227,-2.128529435455886
1.9662569905864737,21.99242113908411,-0.07368338909196306,1.2568479223689233,-2.051600561238845
1.9494126304299733,21.705766266825535,-0.07278930792108378,1.2358031407491523,-1.9781976058814548
1.932777920965935,21.42390528874237,-0.07186033959229203,1.2151618860609372,-1.908116461889702
1.9163602766643544,21.146747076393197,-0.07090178476927989,1.19490952567101,-1.8411670909822082
1.900165955400271,20.874203787813414,-0.06991840013579288,1.175032114153192,-1.7771723973209466
1.8842001773297472,20.60619071424246,-0.06891445265136885,1.1555163516812008,-1.715967203389612
1.8684672319370836,20.342626136066364,-0.06789376815440239,1.1363495455022155,-1.657397318033062
1.8529705744811769,20.08343118729856,-0.06685977494043806,1.1175195742178217,-1.6013186873599181
1.8377129129331333,19.828529727981362,-0.06581554286863651,1.0990148546273866,-1.5475966202507825
1.822696286377574,19.57784822394411,-0.0647638184840546,1.080824310913959,-1.4961050811268057
1.807922135744473,19.331315633401893,-0.063707056586387,1.062937345974881,-1.4467260434348115
1.7933913676450497,19.08886329992211,-0.06264744862599105,1.0453438147188427,-1.3993488980105095
1.7791044120026565,18.850424851325073,-0.061586948264385065,1.0280339991684366,-1.353869911103146
1.7650612740964655,18.6159361041201,-0.06052729439814527,1.0109985852226535,-1.3101917273940107
1.7512615815708545,18.385334973110535,-0.05947003191151541,0.9942286409474654,-1.2682229138268541
1.7377158138653837,18.15869332308709,-0.05831925248388422,0.9765683157781434,-1.2505754485512377
1.7244316700870521,17.93609683378923,-0.057195041240738105,0.9590533302902137,-1.236074480709062
1.7114029345301365,17.71751261235992,-0.05609831142809118,0.9416790299646536,-1.2245536478715087
1.6986232043837748,17.502908812206897,-0.05502977680114114,0.9244409713659605,-1.2158526392175604
1.686085933708724,17.29225458569732,-0.05398996819930183,0.9073349113260111,-1.209816774020132
1.6737844737511676,17.085520039245687,-0.052979248822927365,0.8903567969490449,-1.2062966009344223
1.6617121098808578,16.882676190612088,-0.05199782831019957,0.8735027563866148,-1.2051475161792957
1.6498620954191627,16.683694928238907,-0.051045775704541475,0.8567690903366748,-1.2062293988205859
1.6382276826026594,16.48854897246421,-0.05012303139548705,0.8401522642259489,-1.2094062614691141
1.626802150909631,16.297211838458693,-0.04922941810910762,0.8236489010393853,-1.2145459147969901
1.6155788329600362,16.1096578007412,-0.04836465101780287,0.8072557747649116,-1.2215196443542702
1.6045511381841422,15.925861859134255,-0.047528347033451046,0.7909698044259084,-1.2302018982350487
1.5937125744409049,15.745799706027324,-0.04672003334252615,0.774788048677854,-1.2404699841981515
1.5830567677542844,15.569447694820177,-0.045939155236782686,0.7587077009495188,-1.252203774893288
1.5725774803238841,15.396782809422994,-0.04518508328843695,0.7427260851129276,-1.2652854198791816
1.5622686269555581,15.227782634692943,-0.04445711991439869,0.7268406516701291,-1.2795990631461351
1.5521242900478533,15.062425327689287,-0.043754505369990954,0.7110489744486351,-1.2950305648718736
1.5421387332613032,14.900689589630545,-0.04307642320870419,0.6953487478012811,-1.3114672261464677
1.5323064139896068,14.742554638437717,-0.04242200524083087,0.6797377843102561,-1.3287975153996892
1.5226219947445783,14.58800018174713,-0.04179033602028639,0.6642140129992018,-1.3469107952522572
1.5130803535604116,14.437006390275133,-0.04118045688551129,0.6487754780616477,-1.3656970484909885
1.5036765935172185,14.289553871414395,-0.04059136957703783,0.6334203381186914,-1.3850466018367225
1.494406051478987,14.145623642938006,-0.0400220394510606,0.6181468660238104,-1.4048498461328793
1.4852643061370232,14.005197106682889,-0.039471398305146524,0.6029534492380818,-1.424996951531433
1.476247185446594,13.86825602207794,-0.0389383468290218,0.5878385908049623,-1.4453775761917897
1.467350773541889,13.734782479374942,-0.0384217566901509,0.5728009109602359,-1.4658805669364765
1.4585714172125595,13.60475887243123,-0.03792047226054096,0.5578391494198617,-1.4863936502257007
1.4499057320239972,13.478167870882366,-0.03743331198782753,0.5429521683963549,-1.5068031117210297
1.4413506081632255,13.354992391530427,-0.03695906941018563,0.5281389564031298,-1.52699346260726
1.4329032160927984,13.235215568758722,-0.036496513810920096,0.5133986329160424,-1.5468470907321326
1.4245610120965053,13.11882072376656,-0.036044390504673646,0.49873045397232424,-1.5662438945077588
1.4163217438030231,13.00579133239782,-0.03560142074299578,0.48413381879933814,-1.585060897398397
1.4081834557769937,12.896110991314284,-0.0351663012224784,0.4696082775792337,-1.603171840700941
1.4001444952714317,12.789763382238533,-0.03473770317371261,0.45515354047076806,-1.6204467522137302
1.39220351824101,12.686732233961362,-0.03431427100386827,0.4407694880263736,-1.6367514882954952
1.3843594957227066,12.587001281774807,-0.03389462045963836,0.4264561831610455,-1.6519472467530243
1.3766117206987416,12.490554223953566,-0.033477336270491036,0.4122138848497551,-1.6658900479827845
1.368959815566822,12.397374674864402,-0.03306096922446392,0.3980430637516862,-1.6784301818555245
1.3614037403547206,12.307446114234999,-0.03264403261989504,0.3839444199822537,-1.6894116180122134
1.3539438018304184,12.220751832060198,-0.032224998026210726,0.3699189032768725,-1.698671377588335
1.3465806636758058,12.137274868564912,-0.03180229027476961,0.35596773581257346,-1.7060388649769125
1.3393153579117933,12.056997948579589,-0.031374281586207524,0.3420924379728334,-1.7113351591840837
1.3321492977862457,11.97990340961697,-0.030939284722903,0.3282948573543002,-1.7143722657720084
1.3250842923643327,11.905973122869803,-0.0304955450328627,0.3145772013167038,-1.7149523325285934
1.3181225630949427,11.835188406281755,-0.030041231222701536,0.300942073361963,-1.7128668351406822
1.3112667626684602,11.767529928782903,-0.029574424659754642,0.2873925135845899,-1.707895743681371
1.3045199965330376,11.702977604735768,-0.029093106952616233,0.2739320433470164,-1.6998066872197606
1.2978858475022153,11.64151047762051,-0.028595145489317082,0.2605647141769464,-1.6883541431172409
1.2913684039719076,11.583106592018297,-0.028078276513359243,0.24729516062490065,-1.673278690701393
1.2849722923777285,11.527742853059422,-0.027540085175153946,0.23412865640879368,-1.6543063875632973
1.2787027146770635,11.475394872730703,-0.026977981787149823,0.2210711725365749,-1.6311483528751618
1.272565491853606,11.4260368028485,-0.026389173199437257,0.20812943513477022,-1.6035006788741735
1.2665671147451996,11.37964115519133,-0.025770627743227904,0.19531097927542318,-1.5710448431127981
1.2607148039350553,11.336178610381118,-0.02511903147541832,0.18262419298728075,-1.533448865751754
1.2550165810936602,11.295617818789225,-0.02443073236279913,0.17007834259441118,-1.4903695552471075
1.2494813551257258,11.257925199276105,-0.023701667358369257,0.1576835662153207,-1.4414563210863593
1.244119027936864,11.22306474528591,-0.022927264718689933,0.1454508163081254,-1.386357213476012
1.2389406268565935,11.190997853121125,-0.02210230989235692,0.1333917242552335,-1.3247280850903742
1.2339584741492582,11.161683194563011,-0.021220757127950112,0.1215183501631377,-1.256246058873911
1.229186409235917,11.135076665715221,-0.02027545950979898,0.1098427702524166,-1.1806288050466192
1.224640087166891,11.111131455899343,-0.019257775873036245,0.09837644553783235,-1.0976614029672418
1.2203373888837574,11.089798293255942,-0.018156991806385737,0.08712931657868851,-1.0072326020298814
1.2162989968577231,11.071025933301279,-0.01695946059391247,0.07610859607057416,-0.9093817095797847
1.2125492167490428,11.054761953611418,-0.015647322959830096,0.06531731427602179,-0.8043554133928651
1.2091171670123784,11.040953883394138,-0.014196587793774154,0.05475286152640184,-0.6926695263860442
1.2060385261261604,11.029550598629722,-0.012574202521164965,0.04440613642505414,-0.57516285190704
1.2033581588832347,11.020503701314354,-0.010733338721667374,0.03426253588250261,-0.4530193313217276
1.2011342726818954,11.013768189942464,-0.008604802159543382,0.024307128220891053,-0.327724258835966
1.19944583013902,11.00930085543975,-0.0060773069089390085,0.014539258759216498,-0.2009193190830066
1.1984098066823579,11.007051845238674,-0.002931592714209959,0.005017351684911974,-0.07414146547336237
