x,y,v_x,v_y,omega
2.375,32.48,0.0,2.1025641025641026,-7.020408163265306
2.3741070808104756,32.08419157199389,-0.00939914936341607,2.0638404027633572,-6.707596969505138
2.3715245615702742,31.695635311453227,-0.01778526369133163,2.0262254976646408,-6.414662689189994
2.3674352964876006,31.314126174141,-0.025259631915763026,1.9896601582535764,-6.139889737818887
2.3620039652896,30.939469916393737,-0.03191227543161156,1.9540899232965325,-5.881744542103708
2.355379076877152,30.57148224021242,-0.037823392067842194,1.9194645628226026,-5.638852725281797
2.3476947190282424,30.209988033024615,-0.04306458528909704,1.8857376181016703,-5.409979614629342
2.339072091446427,29.85482068880343,-0.04769991557211866,1.8528660052792116,-5.194013516278057
2.3296208531205433,29.50582149943773,-0.0517868036477102,1.8208096722544647,-4.9899513073583615
2.3194403098581753,29.162839107044014,-0.05537680964037498,1.7895313003109623,-4.796885978277105
2.308620463711888,28.825729009378126,-0.058516307688964035,1.7589960435405052,-4.61399582372261
2.297242942631186,28.49435311171049,-0.061247072107902645,1.7291713003293716,-4.440535033617075
2.285381825888853,28.16857931952357,-0.06360678833770289,1.7000265121644913,-4.275825477604968
2.27310437852754,27.848281167215248,-0.06562949967612058,1.671532985817833,-4.119249510980289
2.2604717061574093,27.533337478678813,-0.06734599895683281,1.6436637356183452,-3.970243657904065
2.2475393398349164,27.22363205620506,-0.0687841728588822,1.6163933430527346,-3.828293050649069
2.2343577594082378,26.919053394634627,-0.06996930531668119,1.589697831372864,-3.6929265224436123
2.220972862580422,26.61949441809572,-0.07092434550243211,1.5635545532472404,-3.5637122670616654
2.207426385980046,26.324852237007022,-0.07167014502784148,1.537942089791656,-3.440253991245058
2.19375628371137,26.035027923318502,-0.07222566832664426,1.5128401595612253,-3.3221874968377207
2.179997068157634,25.74992630221243,-0.07260817960741887,1.4882295362921565,-3.20917763855394
2.166186755140277,25.469465237014152,-0.07276353636476049,1.4639922026370744,-3.0971403276546394
2.1523581307043558,25.193565601536584,-0.07280093138177993,1.4402144866004716,-2.990071167393686
2.1385325427167814,24.92214164317449,-0.07273157375058101,1.416879811947901,-2.8876913748684845
2.124729303320051,24.655110683915986,-0.07256568305710548,1.3939723907732096,-2.7897408421537024
2.1109658682872756,24.392392975234834,-0.07231258044579447,1.371477174291527,-2.6959766767632547
2.0972579999342065,24.133911561968446,-0.07198077063914113,1.3493798074599475,-2.606171872628114
2.083619915213516,23.8795921544886,-0.07157801589444275,1.3276665870647433,-2.520114098401127
2.070064420441101,23.629363008536817,-0.07111140276256186,1.3063244229540099,-2.4376045913921636
2.05660303394956,23.383154812153872,-0.07058740241155219,1.2853408021296255,-2.35845714674146
2.0432460978274767,23.140900579184468,-0.07001192518932176,1.2647037554430358,-2.282497192581982
2.030002879782384,22.90253554888409,-0.06939037002218186,1.2444018266662427,-2.20956094294507
2.0168816660583135,22.66799709119616,-0.06872766917856066,1.2244240437330038,-2.1394946210463672
2.0038898462438914,22.437224617304746,-0.0680283288679888,1.2047598919660831,-2.0721537463670323
1.991033990722546,22.210159495101117,-0.06729646609354167,1.1853992891247795,-2.0074024796322014
1.9783199214412834,21.986744969232554,-0.06653584213027408,1.1663325621232596,-1.9451130203963072
1.9657527766075198,21.7669260854288,-0.06574989296197598,1.147550425284653,-1.885165052483281
1.9533370698636872,21.55064961882593,-0.0649417569731022,1.1290439600087174,-1.8274452330074924
1.9410767444359118,21.337864006029584,-0.064114300161376,1.1108045957423112,-1.7718467211260398
1.928975222705244,21.128519280679612,-0.06327013910881216,1.0928240921521104,-1.7182687430511583
1.9170354516070982,20.92256701229639,-0.06241166192430092,1.0750945224081347,-1.6666161901886622
1.90525994422613,20.71996024820561,-0.061541047349048604,1.0576082574948047,-1.6167992475693784
1.893650817919279,20.520653458353614,-0.060660282196749564,1.0403579514735848,-1.5687330500096819
1.882209829268696,20.324602482838976,-0.05977117728307399,1.023336527627848,-1.5223373636782296
1.8709384061383578,20.13176448199881,-0.058875381983644115,1.0065371654265236,-1.4775362909620164
1.8598376770830494,19.94209788889969,-0.057974397545916566,0.9899532882484288,-1.4342579967187947
1.8489152731783882,19.755791029387556,-0.056998275134729354,0.9711715487213992,-1.4390785394236116
1.8381755041440502,19.57304106722625,-0.05605192522672349,0.9525122635029009,-1.44596157151872
1.8276127402208902,19.39382505271542,-0.05513506343811781,0.9339720997689439,-1.4547722781502275
1.817221415151185,19.21812065552449,-0.05424730571667446,0.9155478706619234,-1.4653788832393289
1.8069960443303072,19.04590613743641,-0.0533881766083517,0.897236530265202,-1.4776523532843822
1.7969312414505836,18.877160325997345,-0.05255711686242501,0.8790351690934344,-1.4914661080856544
1.7870217337588594,18.711862588975272,-0.051753490418881824,0.8609410100862807,-1.5066957371867784
1.7772623760413526,18.549992809532895,-0.05097659081803262,0.8429514050966054,-1.5232187208444634
1.7676481634421195,18.391531362021283,-0.050225647068630856,0.8250638318677463,-1.540914154347267
1.7581742432149035,18.236459088301537,-0.04949982900732719,0.8072758914980057,-1.5596624745053438
1.748835925502205,18.084757274501776,-0.04879825217897222,0.7895853063941966,-1.5793451871259967
1.7396286932301133,17.936407628115937,-0.04811998226409933,0.7719899187199306,-1.5998445942745296
1.730548211202724,17.791392255349443,-0.04746403907683944,0.7544876893483926,-1.621043520096214
1.7215903344758403,17.64969363861465,-0.046829400153516235,0.7370766973336738,-1.6428250339430193
1.7127511160860807,17.51129461407561,-0.046215003949218396,0.7197551399193867,-1.6650721695079502
1.7040268142085166,17.376178349137973,-0.04561975265671709,0.7025213331083178,-1.6876676386202722
1.6954138988135077,17.24432831977456,-0.045042514659167095,0.685373712822363,-1.710493538296455
1.6869090578915054,17.115728287571073,-0.04448212662506841,0.6683108366880107,-1.7334310495743406
1.6785092033132842,16.990362276369233,-0.04393739525094398,0.6513313864892685,-1.7563601265819413
1.6702114763923075,16.86821454837571,-0.04340709865407523,0.6344341713372686,-1.7791591742077424
1.6620132532158025,16.74926957959535,-0.04288998741439723,0.6176181316139241,-1.8017047126470758
1.653912149811616,16.6335120344352,-0.0423847852612509,0.6008823437560538,-1.823871027000186
1.6459060272190746,16.520926739312515,-0.041890189397079815,0.5842260259564618,-1.8455297999938036
1.6379929965339537,16.41149865508403,-0.041404870446296024,0.5676485448696456,-1.8665497257921344
1.6301714240002856,16.305212848096303,-0.040927472013369146,0.5511494234222408,-1.8867961027592093
1.6224399362251987,16.202054459636194,-0.04045660982965266,0.5347283498420798,-1.9061304029383903
1.6147974255973514,16.10200867353788,-0.039990870463475735,0.5183851880349134,-1.9244098159349023
1.607243055994883,16.00506068167639,-0.039528809562506845,0.5021199894544668,-1.9414867648354206
1.5997762688752788,15.911195647048412,-0.03906894959122341,0.4859330066295115,-1.957208391791647
1.5923967898472737,15.820398664108176,-0.03860977701935577,0.4698247085308918,-1.9714160109556798
1.5851046358340584,15.732654715989487,-0.0381497389092258,0.453795797981606,-1.983944526616116
1.5779001229478133,15.64794862820455,-0.03768723884072005,0.4378472313335128,-1.9946218146899481
1.5707838752082661,15.566265018365733,-0.03722063210188368,0.4219802406540052,-2.00326806623835
1.5637568342528567,15.487588241428671,-0.03674822006032026,0.4061963586834819,-2.009695092479977
1.5568202702036953,15.411902329904208,-0.0362682436150635,0.3904974468371837,-2.01370559199174
1.5499757938773724,15.339190928434398,-0.035778875609387736,0.37488572652923324,-2.0150923825777385
1.54322537054871,15.269437222075858,-0.03527821206074217,0.3593638140869601,-2.0136376028783665
1.5365713355098456,15.202623857585895,-0.03476426203256647,0.34393475949159313,-2.009111892496724
1.530016411703297,15.138732856968257,-0.03423493593110496,0.32860208911513294,-2.0012735646719455
1.5235637297542226,15.07774552251433,-0.03368803195388656,0.3133698525051516,-1.9898677929294977
1.517216850786461,15.019642332584308,-0.0331212203383421,0.29824267307405466,-1.974625843518413
1.510979792484205,14.96440282742942,-0.03253202494856306,0.28322580224053023,-1.955264399954573
1.5048570589640473,14.912005484487409,-0.031917801579412444,0.2683251760964307,-1.9314850462127304
1.4988536751620805,14.862427582827191,-0.03127571212550348,0.2535474729584887,-1.9029740032224336
1.492975226635235,14.815645056830878,-0.03060269342023591,0.23890016910796363,-1.8694022522813927
1.4872279059515972,14.771632339859945,-0.029895419039109073,0.2243915884807985,-1.8304262327687808
1.481618567241575,14.730362199667926,-0.02915025159270528,0.21003093985624205,-1.7856893753144332
1.4761547910625108,14.69180556884546,-0.028363181871128934,0.19582833195919092,-1.7348248319013364
1.4708449625885172,14.655931375817133,-0.027529749434065928,0.18179475254951633,-1.6774598989286689
1.4656983674198603,14.622706385111357,-0.026644936551795784,0.16794199172180097,-1.6132228058092704
1.4607253112322764,14.5920950600992,-0.025703023317506696,0.1542824820903815,-1.54175276515288
1.455937272387797,14.564059467450281,-0.024697385571751287,0.14082901947718837,-1.4627144462804986
1.4513471009981538,14.538559250360777,-0.02362020800344023,0.12759431830705453,-1.3758183129709953
1.4469692844911184,14.515551706927344,-0.022462071017983296,0.11459034941328841,-1.2808484781192944
1.4428203095171117,14.49499201960963,-0.021211349761036575,0.10182741182580914,-1.1776996896371195
1.4389191645369637,14.476833688146101,-0.01985333424052058,0.0893129193692186,-1.0664244120867727
1.4352880488941075,14.46102921417307,-0.018368935684281242,0.07704996455740788,-0.9472890809349499
1.4319533865709608,14.447531057127687,-0.016732772980420755,0.06503589907819274,-0.8208345840805145
1.4289472954173197,14.436292804235737,-0.014910291794748898,0.05326149978443594,-0.6879290240818343
1.4263097628016865,14.427270336594056,-0.012853209422443309,0.04171184381221221,-0.5497911081062133
1.4240920192304913,14.420422469561572,-0.010491459748032471,0.030370967056019896,-0.4079533717111911
1.4223623391421967,14.415709930630957,-0.007715699076121351,0.01923470589783776,-0.2641330275051086
1.421218501386735,14.413089671725405,-0.004324698349790296,0.008346966792183625,-0.11999334512879051
