x,y,v_x,v_y,omega
2.375,32.48,0.0,2.051282051282051,-7.877551020408164
2.373526072574947,32.01305724593498,-0.012816760217852345,2.0090897231963396,-7.473000784199304
2.369283127553936,31.555649318031442,-0.02407841387789624,1.9683705194431504,-7.098832350779543
2.3626081353416506,31.107448451523165,-0.03396499666371676,1.9290283197592302,-6.751966369124639
2.3537993628576825,30.668147882222303,-0.042633024936005424,1.890976630683049,-6.429707453641582
2.34312137087962,30.237459785441654,-0.05021907922105854,1.8541372543660795,-6.1296872972982985
2.3308092607529303,29.81511349482033,-0.0568427479675461,1.8184391858193583,-5.849817626843954
2.3170723023763267,29.40085395373386,-0.06260906400292009,1.7838176931934049,-5.588251042216499
2.3020970484942977,28.99444036125469,-0.06761053497124475,1.7502135457559354,-5.343348222601922
2.2860500196802076,28.595644981879254,-0.07192884602084573,1.717572361856529,-5.113650311915623
2.2690800283685633,28.204252093941754,-0.07563629581953857,1.685844054991302,-4.897855546805738
2.2513201977393886,27.82005705615291,-0.07879701399937004,1.6549823605638843,-4.694799381840458
2.2328897213317473,27.44286547530528,-0.08146799824099162,1.6249444294154851,-4.503437514466618
2.21389540135051,27.072492461077715,-0.08370000159585443,1.595690476911172,-4.322831327529801
2.1944329972725205,26.708761956205144,-0.08553829473448633,1.5671834785024803,-4.152135357582982
2.174588411212159,26.351506132174475,-0.08702332318170297,1.5393889043729174,-3.9905864687388277
2.154438732312325,26.000564842153473,-0.08819127594728964,1.5122744871140485,-3.8374944687926886
2.1340531589869363,25.655785124128343,-0.08907457905608929,1.485810017452294,-3.6922339500221115
2.113545362644539,25.31703806264558,-0.08925408479084328,1.4598166041369647,-3.5448145378005944
2.093016543715316,24.984200196142663,-0.08925738415892238,1.4344257132797023,-3.4050089489773816
2.072504996657683,24.657135859213753,-0.08910389460310178,1.4096119991456184,-3.2723226793682683
2.0520447766536636,24.335715050017537,-0.08881106195358959,1.385351559082334,-3.1462996490128
2.0316661290458424,24.019813110796978,-0.0883945694187696,1.3616218254442616,-3.0265187169491212
2.0113958734660224,23.70931043209041,-0.08786852257966274,1.3384014676563394,-2.9125905584122735
1.9912577478261055,23.40409217843419,-0.0872456134196164,1.3156703032673098,-2.8041548617651886
1.9712727166933544,23.104048033604045,-0.08653726599561007,1.2934092169947988,-2.7008778081160663
1.951459248013989,22.809071963656855,-0.08575376599887197,1.271600086893814,-2.6024498013891777
1.9318335616670193,22.519061996221645,-0.0849043761486917,1.2502257168906328,-2.5085834207336095
1.9124098529128375,22.2339200146521,-0.08399743910506229,1.2292697750184765,-2.4190115706871507
1.8932004934387217,21.953551565796147,-0.0830404693655105,1.2087167367724119,-2.333485807552091
1.874216212388044,21.677865680264187,-0.08204023542299074,1.188551833070707,-2.2517748230621026
1.8554662594849058,21.406774704188493,-0.08100283329994795,1.1687610023701114,-2.1736630686877065
1.836958552125454,21.14019414156444,-0.07993375243441883,1.1493308465346985,-2.098949505894771
1.8186998080965,20.87804250635108,-0.07883793477387573,1.1302485901032076,-2.0274464693801475
1.8006956653972208,20.620241183585698,-0.07771982782855073,1.1115020426392488,-1.9589786317979359
1.7829507904771695,20.36671429883562,-0.07658343234580847,1.0930795638831616,-1.8933820597902233
1.7654689760606943,20.1173885953718,-0.07543234518875816,1.074970031454428,-1.8305033522737904
1.7482532296015747,19.872193318503342,-0.0742697979340206,1.0571628108799649,-1.7701988529316233
1.7313058533001058,19.631060106561257,-0.07309869164397127,1.0396477277468505,-1.7123339297340745
1.7146285165161328,19.393922888063543,-0.07192162821666334,1.0224150417985085,-1.6567823150853889
1.6982223213240546,19.1607177846334,-0.07074093867097284,1.0054554228114596,-1.6034255008708762
1.6820878618781827,18.931383019277916,-0.06955870868443385,0.988759928105756,-1.552152183280133
1.666239111915166,18.7060043522074,-0.06825650838527628,0.9710545681595978,-1.5274860592940507
1.6506868848927572,18.484680751345294,-0.06698024833132327,0.9534984828152415,-1.506165245380468
1.6354250962237185,18.267378441593245,-0.06573095748640362,0.93608681937651,-1.4880130077492966
1.6204474488925273,18.054064738045316,-0.06450945408917194,0.918814950605468,-1.4728591685998949
1.605747479931284,17.844707995478167,-0.06331636296511617,0.9016784630219176,-1.460539648904522
1.591318603068701,17.639277560429033,-0.062152131492129566,0.8846731461009929,-1.4508960345190225
1.577154147850107,17.437743725661573,-0.06101704432173231,0.8677949823116959,-1.4437751634898583
1.563247395503904,17.24007768683203,-0.0599112369495975,0.8510401379451813,-1.4390287325655955
1.5495916118092476,17.046251501179313,-0.058834708221327706,0.8344049546871493,-1.4365129210436556
1.5361800772007734,16.856238048072495,-0.057787331852359826,0.817885941893895,-1.4360880301908412
1.5230061143287985,16.670010991258003,-0.056768867034377266,0.8014797695364434,-1.4376181365699672
1.5100631132774645,16.487544742656404,-0.0557789681946166,0.7851832617818347,-1.4409707576858146
1.4973445546286581,16.30881442756521,-0.0548171939689144,0.768993391185057,-1.4460165284323905
1.48484403054615,16.133795851129946,-0.05388301544419942,0.7529072734694046,-1.4526288868807768
1.472555264042112,15.962465465950086,-0.05297582372134903,0.7369221628772188,-1.4606837679932685
1.4604721265769984,15.79480034069034,-0.052094936844856526,0.7210354480770892,-1.4700593038854404
1.4485886541335606,15.63077812957044,-0.05123960614155812,0.705244648617702,-1.4806355292836397
1.4368990618965096,15.470377042608298,-0.050409022006710366,0.6895474119226744,-1.4922940908413953
1.425397757660963,15.313575816492321,-0.04960231917195674,0.673941510824948,-1.50491795898459
1.4140793540852814,15.160353685958427,-0.04881858148614373,0.6584248416436922,-1.518391140952071
1.402938679897176,15.01069035554611,-0.048056846236512525,0.6429954228112404,-1.5325983936857586
1.3919707901560128,14.86456597160564,-0.04731610803447109,0.6276513940624064,-1.5474249352023357
1.3811709756690536,14.72196109442504,-0.04659532228691452,0.6123910162036711,-1.5627561530472924
1.3705347716549072,14.582856670340814,-0.04589340827087888,0.5972126714852574,-1.578477308391583
1.3600579657437484,14.447234003690422,-0.045209251826155226,0.5821148646050984,-1.5944732342815904
1.3497366054008482,14.315074728457109,-0.04454170767732521,0.5670962243802309,-1.6106280264947963
1.3395670048577062,14.186360779448627,-0.043889601393474476,0.5521555061282969,-1.6268247253870802
1.329545751633542,14.061074362840756,-0.04325173099056062,0.5372915948097088,-1.6429449870437631
1.3196697127291552,13.939197925903823,-0.0426268681780206,0.5225035089897151,-1.6588687419667543
1.3099360405752023,13.820714125715746,-0.042013759247656476,0.5077904056892041,-1.6744738394464846
1.3003421788178262,13.705605796648062,-0.04141112559909183,0.49315158620369304,-1.689635675682746
1.2908858680263404,13.593855916391746,-0.040817663892089205,0.47858650298166855,-1.7042268036374917
1.2815651514104047,13.485447570267226,-0.04023204581170018,0.4640947676663416,-1.7181165225313444
1.2723783806378959,13.380363913537412,-0.039652917427506665,0.44967616041900926,-1.7311704448428802
1.263324221849586,13.278588131413606,-0.03907889812301371,0.43533064065757116,-1.7432500386481684
1.2544016619729121,13.180103396411557,-0.03850857906545318,0.42105835936024383,-1.7542121431649287
1.2456100154447192,13.084892822678405,-0.037940521179703826,0.40685967310194626,-1.7639084554652171
1.2369489314620623,12.992939416870673,-0.03737325258252935,0.3927351600087833,-1.7721849865262878
1.2284184018912407,12.90422602511877,-0.036805265424613966,0.37868563783384224,-1.7788814851476134
1.22001876997849,12.818735275564865,-0.03623501207756795,0.3647121843740148,-1.7838308288371243
1.2117507400216427,12.736449515908838,-0.035660900590667476,0.3508161604610061,-1.7868583816501946
1.2036153881811282,12.657350745342569,-0.03508128932685042,0.33699923576741675,-1.7877813202732578
1.19561417463168,12.581420540197637,-0.03449448066835121,0.3232634176667607,-1.786407931549539
1.1877489572841755,12.508639972578578,-0.033898713657774096,0.3096110833685436,-1.7825368873814962
1.1800220073416015,12.438989521207855,-0.033292155408087346,0.2960450155073069,-1.7759565068374144
1.1724360269964416,12.372448973676736,-0.03267289107156323,0.2825684412850399,-1.7664440207871293
1.164994169631944,12.308997319288888,-0.0320389120979825,0.2691850751310145,-1.7537648621156519
1.157700062961369,12.24861263171693,-0.03138810242875571,0.25589916462514256,-1.7376720153733793
1.1505578356343182,12.191271940789452,-0.030718222154293446,0.24271553909206176,-1.717905474804718
1.14357214796782,12.1369510929216,-0.030026887989168728,0.22963965975883982,-1.694191880685716
1.1367482276374599,12.085624600045012,-0.02931154966613697,0.21667766960280177,-1.6662444330253234
1.1300919114138177,12.0372654774532,-0.028569460974229736,0.20383643989122938,-1.6337632219555878
1.123609694387315,11.991845071855177,-0.02779764360405407,0.1911236087872212,-1.5964361695472482
1.1173087886443516,11.949332882260883,-0.02699284111736786,0.1785476050762028,-1.5539408534780335
1.1111971941217804,11.909696378292857,-0.026151459078903715,0.16611764681967517,-1.5059475852267037
1.1052837855009017,11.872900823373797,-0.02526948545047671,0.1538437003025863,-1.4521242511928565
1.099578420696681,11.83890911427957,-0.02434238241231234,0.141736378777662,-1.3921436003277978
1.094092079039511,11.807681654103774,-0.02336493634568805,0.1298067531857899,-1.32569387753863
1.0888370410620931,11.779176283030719,-0.022331046066641134,0.11806603875383953,-1.2524939455827053
1.0838271275173519,11.753348300473487,-0.02123341953980456,0.10652511391774247,-1.1723142651240597
1.0790780237610706,11.730150622405496,-0.02006313486264137,0.09519382580392416,-1.0850052040318743
1.0746077282022475,11.709534126811906,-0.01880900043147405,0.08408004892295173,-0.9905338937000945
1.0704371819716303,11.691448242692996,-0.017456618965197762,0.07318850863280774,-0.8890298174750287
1.0665911641708068,11.675841823028616,-0.015987014085442064,0.06251948844874808,-0.7808368280778061
1.0630995788899844,11.662664290105642,-0.014374597052144597,0.05206775435972963,-0.6665645217893172
1.0599993324119206,11.651866921817188,-0.012584067974497334,0.041822404670303,-0.5471244353689381
1.0573371526855528,11.643403913533014,-0.010565320950439147,0.03176897171381068,-0.4237277198598757
1.0551741216309851,11.63723240838571,-0.008243644741453683,0.021896290436667777,-0.2978154397532814
1.053594150344104,11.633309656556968,-0.005495236014034204,0.01221459503065786,-0.17089748732576598
1.0527259712580035,11.63158105249175,-0.002054147343360493,0.0028167446668997623,-0.04430721926888462
