x,y,v_x,v_y,omega
2.375,32.48,0.0,3.128205128205128,-4.571428571428571
2.3735621874777557,31.77011947213495,-0.012502717584733501,3.0446690271431094,-4.233276128536825
2.3694924656026783,31.078993504692903,-0.02288616828550371,2.9651219940920615,-3.932830862998222
2.363238497450908,30.405739433547478,-0.031496163469021655,2.889261233259493,-3.6646834846927687
2.3551754364281146,29.74954056464574,-0.03861741064222436,2.8168158876251597,-3.4243385210111503
2.34561861616557,29.109639345289164,-0.04448537424946872,2.747542541562474,-3.208039052712937
2.3348338031798015,28.485331476127207,-0.049295608235473375,2.6812215381067164,-3.0126289012253924
2.3230455258787304,27.875960797319486,-0.05321115090427817,2.617653929786491,-2.8354434509250916
2.310443875024273,27.280914818569286,-0.0563684217431775,2.5566589289109127,-2.6742225592654068
2.2971900821483495,26.699620789742717,-0.058881951090938654,2.498071756537525,-2.527040641963884
2.2834211154581094,26.131542229206246,-0.06084819404158122,2.4417418133448305,-2.3922502119655475
2.2692534817033487,25.5761758426588,-0.06234862121720797,2.3875311131546892,-2.268436029155448
2.2547863832202277,25.033048777372414,-0.06345223515776013,2.3353129328138746,-2.154377671644199
2.240104348957909,24.50171616628502,-0.06421762799283855,2.284970641859105,-2.049018830675098
2.2252794345837783,23.981758923953926,-0.06469467091264339,2.236396682759121,-1.9514420033332205
2.2103730681590945,23.472781762445678,-0.06492590669330128,2.1894916781821676,-1.8608475413180734
2.195437603196598,22.97441140015045,-0.06494770167623405,2.1441636461241296,-1.7765362324501222
2.1805176292656863,22.48629494052149,-0.06479120207082481,2.1003273071711925,-1.697894760611699
2.1656510810260894,22.00809840104416,-0.06448313044741133,2.057903470892569,-1.6243835214473088
2.150870179134251,21.539505375480246,-0.0640464512207462,2.0168184905327475,-1.555526374239671
2.1362022304838413,21.080215814722713,-0.06350092834803582,1.9770037769240414,-1.4909019915624178
2.121670310408661,20.629944913520777,-0.06286359404483566,1.9383953639623654,-1.43013653257337
2.1072938455563635,20.18842209196255,-0.062149143801228365,1.900933519152633,-1.372897416929606
2.0930891129502935,19.755390061985807,-0.061370270164598055,1.8645623936886146,-1.3188880171552764
2.0790696681495886,19.330603970369044,-0.06053794549370467,1.8292297073267314,-1.2678431200823057
2.0652467132802883,18.913830610669223,-0.05966166206542825,1.7948864639760431,-1.219525034414646
2.0516294139521505,18.504847697446486,-0.05874963644011842,1.7614866944825622,-1.1737202428579947
2.0382251726253027,18.103443196872206,-0.057808983793339846,1.7289872235546615,-1.1302365146368856
2.0250398647903327,17.70941470847349,-0.056845866945531516,1.6973474581733219,-1.088900408394645
2.0120780433289496,17.322568893339145,-0.05586562402301676,1.6665291951687593,-1.0495551070719056
1.9993431155929287,16.942720944612375,-0.05487287802934011,1.636496445933599,-1.0120585358862126
1.9868374970467804,16.56969409653362,-0.053871631067600796,1.6072152764903505,-0.9762817223854116
1.974562744740311,16.20331916868266,-0.052865345510394644,1.5786536613440845,-0.9421073640368828
1.9625196733912524,15.843434142408526,-0.051857014046635556,1.5507813497353504,-0.9094285741958579
1.9507084564494594,15.489883766736146,-0.050849220229825215,1.5235697430679458,-0.8781477817717004
1.9391287141696527,15.142519191304473,-0.04984419089892932,1.4969917824248673,-0.8481757636443942
1.9278000443417347,14.801199848894637,-0.04866598151774756,1.4710024993997837,-0.8143972047843674
1.9167398065965209,14.465790748187025,-0.047509998875416015,1.44559837631859,-0.7823497134567505
1.905942818901806,14.136159964293523,-0.0463768506438459,1.4207562662336115,-0.7519221631062116
1.8954037802636852,13.81218075992465,-0.045266963600682865,1.3964542065391798,-0.7230119127367908
1.8851173093224212,13.493731321708786,-0.04418060980161103,1.3726713431639963,-0.6955240572289164
1.8750779773305666,13.1806945132826,-0.04311792925799526,1.3493878605419738,-0.6693707526324066
1.8652803362627024,12.872957643882522,-0.04207894959299648,1.326584916850016,-0.6444706080829771
1.855718942705015,12.570412251278704,-0.041063603082549034,1.3042445840527495,-0.6207481370132375
1.8463883780859864,12.272953897993542,-0.0400717414307412,1.2823497923399523,-0.5981332612160564
1.8372832657346772,11.980481979837396,-0.03910314858064358,1.2608842785830405,-0.5765608620881968
1.828398285188581,11.692899545875935,-0.03815755182019275,1.2398325384731317,-0.5559703740519082
1.8197281841174218,11.41011312901745,-0.037234631407279006,1.219179782035434,-0.5363054157357945
1.8112677881811878,11.132032586475376,-0.03633402890779846,1.1989118922434856,-0.5175134550057366
1.8030120090991406,10.858570949421885,-0.03545535441435072,1.1790153864825106,-0.4995455043821171
1.7949558511705423,10.589644281203462,-0.03459819279085036,1.1594773806342067,-0.4823558437697546
1.7870944164566558,10.325171543539295,-0.03376210906903337,1.1402855555759595,-0.4659017677692285
1.7794229088065014,10.065074470168863,-0.032946653106220934,1.1214281259060508,-0.4501433551390118
1.7719366368853593,9.809277447456505,-0.03215136359936495,1.102893810723138,-0.43504325824247986
1.7646310163445604,9.557707401498462,-0.03137577153801521,1.0846718063033263,-0.42056651054710165
1.7575015712533528,9.310293691312431,-0.030619403168138153,1.0667517605317314,-0.4066803504489844
1.7505439348981309,9.066968007721147,-0.029881782529444553,1.049123748957684,-0.393354059877898
1.7437538500408472,8.827664277570324,-0.029162433620847375,1.0317782523538073,-0.38055881629896077
1.7371271687166545,8.592318572947676,-0.02846088224169834,1.014706135669231,-0.3682675568699127
1.7306598516405636,8.36086902509394,-0.02777665755039631,0.9978986282762937,-0.35645485363959467
1.7243536311631895,8.13335354468661,-0.027060042252854577,0.9804968535265645,-0.3622615116117888
1.7182085744886433,7.909825472200541,-0.026375233177983366,0.9632255159175124,-0.37052423670236423
1.7122173355296406,7.690255260343729,-0.025722496900300887,0.9460806741417138,-0.38110995465299896
1.7063725233698774,7.4746142494872245,-0.025101956662856743,0.9290585506974464,-0.39389003511055176
1.7006667337615458,7.2628746309033225,-0.024513605148723958,0.9121555239451689,-0.4087399755377086
1.6950925778045993,7.055009411763034,-0.02395731621602703,0.8953681207529862,-0.42553909866674
1.6896427080370544,6.85099238176122,-0.023432855675667497,0.8786930096975862,-0.44417026217916566
1.6843098421481517,6.650798081245064,-0.02293989118435567,0.862126994790716,-0.4645195793577671
1.6790867845102073,6.454401770728097,-0.022478001319507713,0.8456670097046514,-0.4864761495119582
1.6739664457103127,6.261779401677629,-0.02204668389696912,0.829310112473346,-0.5099317970234198
1.668941860249618,6.072907588468553,-0.02164536358733179,0.8130534806490535,-0.5347808178964476
1.6640062025656703,5.88776358140073,-0.02127339888177861,0.7968944068972357,-0.5609197327268739
1.65915280152207,5.706325240680762,-0.020930088453876786,0.7808302950155283,-0.5882470450248343
1.6543751534995303,5.528571011271946,-0.020614676959511257,0.7648586563654725,-0.6166630038401099
1.6496669342131725,5.35447989851842,-0.020326360313167327,0.7489771067086664,-0.6460693696442434
1.6450220093725327,5.184031444451097,-0.020064290475003126,0.7331833634419797,-0.6763691824209674
1.6404344442932572,5.017205704683871,-0.019827579779565643,0.717475243229553,-0.7074665309054813
1.635898512562747,4.8539832258087365,-0.019615304833567066,0.7018506600325005,-0.7392663218934508
1.6314087038561027,4.69434502319783,-0.019426510006820042,0.6863076235406073,-0.7716740485118699
1.6269597309935402,4.538272559119061,-0.0192602105372002,0.6708442380139062,-0.8045955563056068
1.6225465363260192,4.385747721069684,-0.01911539526733065,0.6554587015458868,-0.8379368059449326
1.6181642975321098,4.236752800229013,-0.018991029027533645,0.6401493057642981,-0.871603631299888
1.6138084329061533,4.091270469927252,-0.01888605467643626,0.6249144359901327,-0.9055014915561199
1.6094746062155103,3.9492837640221303,-0.01879939480741435,0.6097525718804948,-0.9395352159628925
1.6051587312031936,3.810776055068395,-0.018729953125775058,0.5946622885867586,-0.9736087397062679
1.6008569758114397,3.6757310321573478,-0.01867661549817258,0.5796422584658314,-1.0076248292878098
1.596565766201849,3.544132678293977,-0.018638250672181323,0.5646912533895535,-1.0414847956603472
1.5922817906486288,3.4159652471680495,-0.018613710660167173,0.5498081477054599,-1.0750881932260534
1.5880020033832913,3.2912132391621043,-0.018601830777548966,0.5349919219114436,-1.1083325026370443
1.583723628471939,3.169861376423775,-0.01860142932116988,0.5202416671174992,-1.1411127951536695
1.5794441638100996,3.0518945768115735,-0.018611306868737024,0.5055565903798994,-1.1733213761096277
1.5751613853250626,2.9372979265020653,-0.018630245175063686,0.49093602100711664,-1.20484740480532
1.570873351481896,2.8260566510216734,-0.01865700563507918,0.4763794179528255,-1.2355764879014448
1.5665784081969885,2.7181560844376804,-0.01869032727716162,0.4618863784297306,-1.2653902431147106
1.5622751942721478,2.613581636409865,-0.01872892424319049,0.4474566478990949,-1.2941658297292253
1.5579626474732575,2.5123187567657332,-0.018771482703683406,0.43309013161508086,-1.3217754421355423
1.553640011390391,2.414352897217963,-0.018816657147327876,0.4187869079307464,-1.3480857623028775
1.5493068432314416,2.3196694697914495,-0.018863065973971034,0.40454724360414057,-1.372957366792263
1.5449630227189601,2.2282538014684157,-0.018909286308478438,0.3903716113787697,-1.3962440836505041
1.5406087622804354,2.1400910844922656,-0.01895384793956027,0.37626071015297585,-1.4177922943189176
1.536244618746064,2.0551663216934593,-0.018995226272364715,0.36221548809751425,-1.4374401755951358
1.5318715067956599,1.9734642661123551,-0.01903183416593287,0.3482371691294773,-1.4550168767721754
1.5274907144283953,1.8949693540941546,-0.019062012505932154,0.3343272832027059,-1.4703416274516574
1.523103920766268,1.8196656309191326,-0.019084019338653647,0.3204877009279296,-1.4832227723417133
1.5187132165455832,1.7475366679074824,-0.01909601736295373,0.30672067308640527,-1.493456730830231
1.5143211277016293,1.6785654698036616,-0.019096059540992007,0.29302887564247987,-1.5008268816002015
1.5099306425118817,1.6127343711032438,-0.019082072543769358,0.27941546088288827,-1.5051023765073994
1.5055452428350282,1.5500249198425635,-0.019051837689739146,0.26588411529694783,-1.506036894075267
1.501168940070531,1.4904177472388263,-0.019002968958062198,0.25243912473554697,-1.503367352307517
1.496806316571798,1.4338924214655187,-0.018932887552658668,0.23908544720625516,-1.4968126145842306
1.4924625733837635,1.38042728380589,-0.018838792343294133,0.2258287933122544,-1.4860722434034068
1.4881435853559692,1.329999265496685,-0.018717625289699374,0.21267571372430608,-1.4708253878977442
1.4838559649261733,1.2825836838343534,-0.01856603062156851,0.1996336920351035,-1.4507299371367408
1.479607136211187,1.2381540166901814,-0.018380306030488573,0.18671123965334038,-1.4254221391215447
1.4754054215368673,1.196681655658825,-0.0181563433114216,0.17391798670627048,-1.3945169850619805
1.4712601432800758,1.1581356399335299,-0.017889554573721538,0.16126475873109078,-1.357609804150953
1.4671817450348323,1.1224823760878415,-0.017574777993613105,0.14876362253577205,-1.3142797251597025
1.4631819379076512,1.0896853538653524,-0.017206153547093813,0.13642787505107842,-1.2640959633188498
1.4592738806178516,1.0597048756917324,-0.016776953320728556,0.12427193515432758,-1.2066283140482033
1.455472406733616,1.032497829023896,-0.01627934132479635,0.11231107934859666,-1.1414638052721024
1.451794319979009,1.0080175470293185,-0.015704021758743303,0.10056093799554183,-1.0682321751044632
1.4482587910003961,0.9862138251750068,-0.01503970849006548,0.08903664334629868,-0.9866436094541767
1.4448879093274911,0.9670331878802543,-0.014272306056933458,0.07775150704284442,-0.8965426747044841
1.441707477323662,0.9504195238205604,-0.013383624411147035,0.06671513695448766,-0.797981795824418
1.4387481864821927,0.9363152117284663,-0.012349339427717338,0.05593105515069231,-0.6913142171551915
1.4360474048291765,0.9246627972257784,-0.0111357184245965,0.04539428835095041,-0.5772971306681396
1.4336519629997053,0.9154070715701295,-0.009694210527326436,0.03509028256772186,-0.45717710794761846
1.4316226783305515,0.9084969010076946,-0.007951743117490171,0.024998157105627725,-0.3327026109193678
1.4300424308069863,0.9038850555933919,-0.0057895396961199505,0.015104846497000954,-0.20598521368604003
1.4290344148932541,0.9015210538342409,-0.0029758160754646185,0.005451690539109039,-0.07914081277399362
