x,y,v_x,v_y,omega
2.375,32.48,0.0,2.1538461538461537,-2.0
2.3745833294972525,31.98969877395496,-0.0036232217630204283,2.1096427682846004,-1.8938018491005162
2.373386138301804,31.509398959230136,-0.006787136458274709,2.0668773597573575,-1.7958137684347864
2.3715077895513255,31.03877860006639,-0.009546330937189087,2.025473589492583,-1.7051985167890376
2.369035898417212,30.577532673249546,-0.01194837457683876,1.9853605567408636,-1.6212205661455081
2.366047832066056,30.12537189476359,-0.0140348110853879,1.9464722996587471,-1.5432320101032342
2.362611999176267,29.682021634633454,-0.015841996651911005,1.908747353646789,-1.4706606499826735
2.3587889613652853,29.247220927677603,-0.017401810400101858,1.87212835901278,-1.4029998883300274
2.354632393459678,28.82072156960217,-0.018742258344310425,1.8365617112083812,-1.3398001281814205
2.3501899151036234,28.402287289293888,-0.01988798823007413,1.8019972479940705,-1.2806614313068885
2.34550381255691,27.991692989364523,-0.020860729567433248,1.7683879687830117,-1.2252272327133746
2.340611666528666,27.588724048007848,-0.021679670678167017,1.7356897821445834,-1.1731789442350102
2.33554689940661,27.19317567608576,-0.022361782557105775,1.7038612780474789,-1.124231308847135
2.3303392531771663,26.804852324089822,-0.022922097698924993,1.6728635219171968,-1.0781283907827073
2.325015207612247,26.423567134250035,-0.023373950691679458,1.6426598679940017,-1.0346401056804855
2.3195983468617953,26.04914143360129,-0.0237291862687676,1.6132157898211832,-0.9935592106977706
2.3141096813873387,25.681404264283884,-0.02399833959607218,1.5844987259823236,-0.9546986874430956
2.308567931160165,25.32019194775913,-0.024190792814135328,1.5564779394503192,-0.917889461254719
2.3029897751954156,24.965347679973767,-0.02431491122716479,1.5291243891180533,-0.882978409190413
2.2973900717733744,24.616721154815608,-0.024378162007974782,1.502410612257267,-0.8498266164398909
2.2917820530895074,24.274168213473622,-0.024387217851735945,1.476310616803477,-0.8183078469941191
2.28618889196623,23.93755158033933,-0.024248965828938582,1.4507905408860007,-0.7859241048979453
2.280631169659381,23.60673943489993,-0.02407905423062012,1.4258368107609953,-0.7551910035824624
2.2751157049287287,23.281604067369823,-0.023881508644617567,1.4014272547181843,-0.7260031718177349
2.2696484406202027,22.96202273848082,-0.02365992012517342,1.377540822577515,-0.6982632347568292
2.264234538128987,22.647877429701268,-0.023417492841919043,1.3541575146359401,-0.6718811120159766
2.258878461539235,22.33905460918008,-0.0231570861994011,1.3312583159830866,-0.6467733854976719
2.2535840526333066,22.035445012234995,-0.022881252113021645,1.3088251357133411,-0.6228627292358143
2.248354597816143,21.73694343530788,-0.022592268036222673,1.286840750609411,-0.600077394482663
2.243192887872582,21.44344854240262,-0.02229216625561358,1.2652887529145498,-0.5783507440731466
2.2381012713642767,21.154862683104923,-0.02198275990356558,1.244153501848052,-0.5576208308108542
2.233081702376173,20.871091721358923,-0.021665666079944308,1.2234200785519305,-0.5378300152370276
2.228135783238134,20.592044874244017,-0.021342326424743763,1.2030742441863596,-0.5189246186819189
2.2232648027736586,20.31763456005702,-0.02101402544025997,1.1831024009179842,-0.5008546079679014
2.218469770563255,20.04777625506103,-0.020681906824120494,1.1634915555688916,-0.4835733085450177
2.2137514476536353,19.782388358313348,-0.020346988042135736,1.1442292857152823,-0.4670371432001597
2.209110374094476,19.52139206403104,-0.02001017334185524,1.1253037080439297,-0.4512053937975743
2.2045468936410835,19.26471124099495,-0.019672265383298602,1.1067034487916347,-0.4360399837866904
2.2000611759231656,19.01227231853146,-0.019333975642076364,1.0884176161082864,-0.42150527945835076
2.1956532363463444,18.764004178646235,-0.018995933721587095,1.0704357741980175,-0.4075679081466925
2.1913229539634593,18.519838053916335,-0.018658695694801275,1.0527479191054678,-0.39419659176484845
2.187070087526627,18.279707430776277,-0.0183227515820034,1.03534445602548,-0.38136199423151623
2.1828942899079706,18.043547957860497,-0.017988532058488188,1.0182161780247851,-0.3690365814950285
2.1787951210565777,17.811297359089192,-0.017656414475361898,1.0013542460735019,-0.3571944929942272
2.1747720596411964,17.58289535120708,-0.01732672826708393,0.9847501702926809,-0.3458114235132768
2.1708269708106545,17.35839223900181,-0.016978391998497735,0.9674508054053382,-0.35377253952426413
2.1669598622946316,17.137853344217742,-0.01664863857561346,0.950278714456091,-0.3640587742308657
2.1631663685672864,16.92124983044323,-0.016338263401301928,0.9332301009744526,-0.37654309328956803
2.1594419601221504,16.708553716613906,-0.016047896991185903,0.9163013236283762,-0.3911024806633266
2.155781979824551,16.499737842165857,-0.01577801864011397,0.8994888889633281,-0.4076176480545045
2.152181676244156,16.294775833796855,-0.015528969015493029,0.8827894446801693,-0.4259727556584129
2.1486362342052363,16.093642073714957,-0.015300961757722805,0.8661997734233042,-0.4460551430786578
2.1451408027745438,15.896311669260097,-0.01509409416134125,0.8497167870537452,-0.46775506929188393
2.141690520890488,15.702760423789666,-0.014908357004361805,0.8333375213847933,-0.4909654605881609
2.1382805408224113,15.512964808723904,-0.014743643587608128,0.817059131360978,-0.5155816654444042
2.1349060496351697,15.326901936651058,-0.014599758040580257,0.8008788866637556,-0.541501215312006
2.131562288821774,15.144549535395743,-0.01447642294547302,0.7847941677302843,-0.5686235903163231
2.1282445722555114,14.965885922956708,-0.014373286326371203,0.7688024621743796,-0.5968499888748265
2.124948302602651,14.790889983222474,-0.014289928046327385,0.7529013616015704,-0.6260831002424521
2.1216689863274643,14.619541142374796,-0.01422586565095075,0.737088558813026,-0.6562268789868332
2.1184022474128796,14.451819345890751,-0.014180559693263222,0.7213618453960687,-0.687186320382379
2.1151438399125033,14.287705036054469,-0.014153418570879034,0.7057191097020497,-0.7188672356902298
2.111889659443007,14.12717912988894,-0.014143802903002127,0.6901583352155999,-0.7511760262605361
2.1086357537199647,13.970222997417036,-0.01415102947127936,0.674677599322715,-0.7840194553537193
2.1053783322350736,13.816818440158706,-0.014174374745163518,0.6592750724888498,-0.8173044165277321
2.102113775168334,13.66694766976833,-0.01421307800909446,0.6439490178622489,-0.8509376973780962
2.09883864162516,13.52059328671212,-0.01426634410546476,0.6286977913221857,-0.8848257373457717
2.0955496772855757,13.377738258880449,-0.014333345803961105,0.6135198419967116,-0.9188743782237311
2.0922438215506114,13.238365900023624,-0.01441322580442598,0.5984137132800151,-0.9529886058953633
2.0889182142697673,13.10245984789207,-0.014505098376824184,0.5833780443856664,-0.9870722817253075
2.085570202133042,12.970004041952635,-0.014608050638180551,0.568411572478993,-1.0210278618946944
2.0821973448114717,12.840982700541979,-0.014721143462429956,0.5535131354397409,-1.0547561028266779
2.0787974209315747,12.715380297305163,-0.0148434120149339,0.5386816753151843,-1.0881557506831274
2.075368433971483,12.593181536752493,-0.01497386589891003,0.5239162425341382,-1.1211232127280502
2.071908618170054,12.474371328750191,-0.015111488896124532,0.5092160009641209,-1.1535522081464207
2.0684164445449333,12.35893476173996,-0.015255238278837343,0.4945802339074536,-1.185333395677662
2.0648906271214975,12.246857074458624,-0.015404043664081362,0.48000835114764695,-1.2163539751705323
2.061330129482026,12.138123625901482,-0.015556805374802746,0.46549989717533524,-1.246497259890999
2.0577341717534394,12.032719863240803,-0.01571239226507927,0.45105456074362166,-1.2756422161184995
2.0541022381627347,11.930631287373753,-0.015869638958440433,0.4366721859263854,-1.303662966252519
2.050434085302019,11.831843415730987,-0.0160273424390884,0.4223527848802834,-1.3304282513274104
2.046729751260104,11.736341741927394,-0.016184257925389245,0.40809655254227584,-1.355800848510186
2.0429895657952204,11.644111691779091,-0.01633909394316174,0.39390388352991257,-1.3796369388515881
2.0392141617439368,11.55513857514471,-0.01649050650278474,0.37977539155166024,-1.4017854203029259
2.0354044878852204,11.46940753297314,-0.01663709226866097,0.3657119316793836,-1.422087160841997
2.031561823506277,11.386903478853284,-0.01677738059171629,0.3517146258845739,-1.4403741865338078
2.0276877949489216,11.30761103426282,-0.016909824254854076,0.33778489229336717,-1.4564687995789336
2.0237843944525684,11.23151445660189,-0.017032788756910867,0.32392447867125995,-1.470182622011541
2.019854001653382,11.158597558973767,-0.017144539931666918,0.3101355007037263,-1.4813155619019902
2.01589940814995,11.088843620538672,-0.017243229663395178,0.29642048568839924,-1.4896547009912042
2.011923845605693,11.022235286121244,-0.01732687941709962,0.2827824222892468,-1.4949731060689464
2.007931017929362,10.958754453601973,-0.017393361246645964,0.26922481700876066,-1.4970285717409524
2.003925138160699,10.898382147477417,-0.017440375872165615,0.25575175798736954,-1.4955623104425377
1.9999109707934823,10.84109837684948,-0.017465427321022787,0.24236798660337386,-1.4902976180177872
1.9958938804001356,10.786881976027711,-0.01746579349068694,0.22907897706419578,-1.4809385619063633
1.9918798875923054,10.735710425944262,-0.01743849179479365,0.21589102366144802,-1.4671687669240938
1.987875733578651,10.687559654759042,-0.017380238758722483,0.2028113344709103,-1.4486504151370994
1.983888954894054,10.642403816482371,-0.01728740197690368,0.18984812880449697,-1.4250236377802208
1.9799279703219745,10.600215047334714,-0.01715594212813471,0.1770107333490545,-1.395906567821192
1.9760021826938488,10.560963201157833,-0.016981341594698204,0.16430966818906056,-1.3608964549225242
1.9721220992596793,10.524615567880637,-0.01675851435460174,0.15175670813436493,-1.3195724388625443
1.968299475905856,10.491136583400955,-0.01648168872212289,0.13936489603678473,-1.2715008580314444
1.9645474930249094,10.46048754608562,-0.016144249373063663,0.12714847192264267,-1.216244367438992
1.9608809749463787,10.432626365498834,-0.015738516527205308,0.11512266361463311,-1.1533766872654307
1.9573166715675545,10.40750738421243,-0.015255425897351528,0.103303260614983,-1.0825055118492575
1.953873631910682,10.385081334690614,-0.01468404937980167,0.09170586566165925,-1.0033069262295646
1.9505737176008047,10.365295519945555,-0.014010857662609727,0.08034469733885483,-0.9155753659060605
1.9474423342353906,10.348094334328842,-0.013218562906208004,0.06923082976299438,-0.8192930548349279
1.9445095076253813,10.333420254439652,-0.012284277180830538,0.05836986492560682,-0.7147204656531052
1.9418115128377536,10.321215393006568,-0.01117654705940903,0.047759364927293865,-0.6025018502539479
1.939393405995445,10.311423545809703,-0.009850468960666745,0.037387132436765155,-0.4837634438459677
1.9373131043362588,10.303992239981675,-0.00823911068443017,0.027232918241726578,-0.3601549695253366
1.9356484895017338,10.29887335677422,-0.006235800920133544,0.017279109649192718,-0.23375670645144195
1.9345123768967465,10.296018451025507,-0.0036434391232356166,0.00754615773091992,-0.10677106379854759
