x,y,v_x,v_y,omega
2.375,32.48,0.0,2.8205128205128203,-5.918367346938775
2.3739020655570604,31.94986041983287,-0.011557204662523383,2.7599038128253537,-5.5830945640921605
2.3707532799538025,31.43102691439762,-0.021587906950717554,2.701501507545686,-5.275909720749612
2.3658254490683173,30.923093059575365,-0.03028399710701834,2.6451706484780764,-4.9937211308466125
2.359356424389935,30.42567699179079,-0.03781099950753059,2.590787959780576,-4.7338441321226865
2.351554728380156,29.93841927103292,-0.04431211638488506,2.538240679775955,-4.493939330630594
2.342603477570299,29.460981000334975,-0.04991157635045047,2.487425327570851,-4.271961458711786
2.332663722740777,28.99304216173455,-0.054717421855041304,2.4382466576967996,-4.0661168009845525
2.3218773027961768,28.534300136306662,-0.058823840719699545,2.3906167678598886,-3.8748275816041575
2.3103692910667633,28.084468381786326,-0.0623131248530758,2.3444543323541693,-3.696702040833752
2.2982500985788112,27.643275245970543,-0.06525732238852602,2.299683939390935,-3.5305091867775644
2.2856172874937735,27.210462897805623,-0.06771963640134213,2.2562355149766447,-3.375157408348758
2.272557138785927,26.785786361042987,-0.0697556131549383,2.2140438193668737,-3.229676292253802
2.259146010831781,26.369012637749627,-0.07141415478344085,2.1730480047737952,-3.0932011103154466
2.2454515195581832,25.959919910912706,-0.07273838493863757,2.133191225088512,-2.964959541500228
2.2315335658598197,25.558296816976494,-0.0737663908336139,2.0944202900295266,-2.8442602713094507
2.217445231933753,25.163941780466516,-0.07453186101971533,2.0566853574439063,-2.73048317407509
2.203233564819244,24.776662403947757,-0.07506463492249069,2.019939658543026,-2.623070834479549
2.1889402626418257,24.396274907474012,-0.07539117747138108,1.9841392517069245,-2.521521205827435
2.1746022767358237,24.02260361244941,-0.07553498996022098,1.9492428011836245,-2.425381236199272
2.160252340874713,23.655480465467285,-0.07551696647252164,1.9152113775755697,-2.3342413211370925
2.1459194372064347,23.294744598237916,-0.0753557037198847,1.8820082774704503,-2.2477304641448765
2.13162920711631,22.940241920182203,-0.07506777091300558,1.8495988599581168,-2.165512044973846
2.1174043140794523,22.591824740667178,-0.07466794526444541,1.8179503980947773,-2.087280111149084
2.1032647645814584,22.24935141820213,-0.0741694178723295,1.7870319436425586,-2.0127561210731826
2.089228192351341,21.912686034210616,-0.07358397402364579,1.756814203636572,-1.9416860777895033
2.0753101104398812,21.58169808925068,-0.07292215136013808,1.7272694275206417,-1.8738380014837412
2.0615241350700217,21.25626221977968,-0.07219337884891038,1.6983713037530377,-1.8089996963559685
2.0478821846670097,20.936257933755748,-0.07140609907753219,1.6700948649199132,-1.7469767738559625
2.0343946570311857,20.62156936353984,-0.07056787603640631,1.642416400510715,-1.6875908996456725
2.021070587234112,20.312085034713384,-0.06968549024858,1.6153133766098844,-1.6306782362002241
2.0079177884897343,20.007697649560132,-0.06876502285013182,1.5887643618453848,-1.5760880568190356
1.9949429779684589,19.70830388407895,-0.06781193000539834,1.5627489590091481,-1.5236815101034102
1.9821518892767649,19.413804197499303,-0.0668311088545388,1.5372477418292572,-1.4733305167587802
1.9695493731126172,19.12410265336467,-0.06582695603122585,1.512242196430033,-1.4249167829751266
1.9571394874227677,18.8391067513326,-0.06480341965140185,1.4877146670654418,-1.3783309166914728
1.9449347579552612,18.558730909040552,-0.0636674168486642,1.4636099886403204,-1.3303897260748156
1.9329456552754265,18.282892468258314,-0.06253366399170235,1.4399525459095455,-1.2845563018477377
1.9211715624847079,18.011507927117556,-0.061404154857965396,1.4167268345194626,-1.2407136265424668
1.9096115077339362,17.74449666429571,-0.06028063199226398,1.3939180372894746,-1.198752409217869
1.8982642094088713,17.481780812121208,-0.059164613534736676,1.371511985599999,-1.1585704937615375
1.8871281164916929,17.22328513676799,-0.05805741717240279,1.3494951233812438,-1.1200723185842425
1.876201444614346,16.96893692506455,-0.05696018153651225,1.3278544734970532,-1.0831684227226372
1.8654822082620541,16.718665877480333,-0.055873885329718036,1.3065776063368364,-1.0477749938992602
1.854968249534528,16.47240400688602,-0.05479936443371528,1.2856526104453914,-1.0138134545597068
1.8446572638275416,16.230085542715333,-0.05373732721877351,1.26506806503554,-0.9812100823232789
1.8345468227579147,15.99164684018396,-0.05268836825098143,1.244813014242054,-0.9498956616522556
1.8246343946198689,15.757026294247147,-0.05165298057055513,1.2248769429875774,-0.9198051638720676
1.8149173626296582,15.526164258000811,-0.05063156669482174,1.2052497543422767,-0.8908774529652106
1.8053930411878476,15.29900296525275,-0.049624448482130504,1.1859217482689042,-0.863055014820133
1.7960586903641675,15.075486457010076,-0.048631875977657925,1.1668836016539763,-0.8362837078464357
1.7869115287881732,14.855560511647226,-0.04765403534860034,1.14812634953392,-0.8105125330728855
1.7779487451096418,14.639172578535423,-0.046691056004359334,1.1296413674324455,-0.7856934220279008
1.7691675081754794,14.42627171492979,-0.04574301698682455,1.1114203547321218,-0.7617810408658674
1.7605649760546065,14.21680852592436,-0.04480995270657433,1.0934553190092444,-0.7387326093491371
1.7521383040286853,14.01073510729815,-0.04389185809259765,1.075738561266643,-0.716507733426798
1.7438846516543816,13.808004991087426,-0.04298869321586199,1.0582626620041475,-0.6950682502690131
1.735801188992018,13.608573093730282,-0.04210038744059715,1.0410204680710593,-0.6743780847214145
1.7278851020857748,13.41239566663986,-0.04122684315143731,1.0240050802491905,-0.6544031162390347
1.7201335977719383,13.219430249071891,-0.04036793909947506,1.0072098415189046,-0.6351110554447423
1.712543907883941,13.029635623161003,-0.03952353340575778,0.9906283259641222,-0.6164713295341401
1.7051203431141984,12.84318152297909,-0.03861925364416608,0.9720464127928611,-0.6424278956368189
1.697864135965776,12.660247480166849,-0.0377618742339623,0.9535750904938948,-0.6699479837620966
1.6907665002516792,12.480812757858963,-0.03695008065126803,0.9352114601154129,-0.6989184379553616
1.6838189027366082,12.304857158847682,-0.0361825247705314,0.916952740003359,-0.7292283099513969
1.6770130691030771,12.132361003650658,-0.035457829266637514,0.8987962620705631,-0.7607686090685424
1.6703409891221908,11.963305109248626,-0.034774591584797995,0.8807394684771559,-0.7934320562066511
1.6637949211084886,11.797670768415301,-0.03413138750680508,0.8627799087157536,-0.8271128408932995
1.6573673957331136,11.63543972956301,-0.03352677433924731,0.8449152370978433,-0.8617063803204452
1.6510512192649753,11.476594177027835,-0.03295929374641751,0.8271432106408427,-0.8971090793033949
1.6448394763055179,11.321116711717899,-0.032427474247874025,0.8094616873584746,-0.9332180900752833
1.6387255320791674,11.168990332047603,-0.031929833397919744,0.791868624960446,-0.9699310708029533
1.6327030343385116,11.020198415079115,-0.03146487966161494,0.7743620799709906,-1.0071459416737196
1.6267659149407234,10.874724697790302,-0.031031113999314797,0.7569402072796796,-1.044760637356506
1.6209083911497244,10.732553258385234,-0.030627031169094803,0.7396012601420875,-1.082672854584651
1.6151249667170524,10.59366849755975,-0.03025112075376902,0.7223435906524845,-1.1207797935406179
1.6094104327933776,10.458055119629766,-0.029901867916489865,0.7051656507157907,-1.1589778916441453
1.6037598687221304,10.325698113424359,-0.02957775388611207,0.6880659935516551,-1.1971625482542123
1.5981686427667452,10.19658273283882,-0.02927725617057488,0.6710432757698169,-1.2352278386906759
1.592632412823661,10.070694476934705,-0.02899884849346976,0.654096260062976,-1.2730662158626604
1.587147127174442,9.94801906946444,-0.028741000445676106,0.6372238185713719,-1.3105681976568169
1.5817090253322628,9.828542437686842,-0.028502176840421313,0.6204249369822993,-1.3476220380886124
1.5763146390405738,9.712250690326911,-0.028280836756306195,0.6036987194380298,-1.384113380053163
1.5709607934851002,9.599130094518259,-0.028075432248677923,0.5870443943372565,-1.4199248873283967
1.5656446087844846,9.489167051549018,-0.027884406705170135,0.570461321128444,-1.4549358532826282
1.5603635018299549,9.382348071212,-0.027706192816195376,0.5539489982085797,-1.4890217835217479
1.5551151885504853,9.278659744536672,-0.027539210125590383,0.5375070720580447,-1.5220539494801193
1.549897686687117,9.178088714653775,-0.027381862120390787,0.5211353477619299,-1.5538989097175537
1.5447093191685641,9.080621645512803,-0.02723253281174442,0.5048338010903978,-1.5844179954383975
1.5395487181900902,8.986245188137303,-0.027089582751139492,0.4886025923359274,-1.6134667565073602
1.5344148301090903,8.894945944062687,-0.026951344417279536,0.47244208213372874,-1.6408943640148135
1.529306921284053,8.806710425555252,-0.026816116898902943,0.4563528495234674,-1.6665429652636743
1.5242245849988543,8.721525012158676,-0.026682159787400093,0.440335712545772,-1.6902469869427723
1.5191677496319569,8.639375903054791,-0.02654768617994101,0.4243917517056312,-1.7118323822645956
1.5141366882503937,8.560249064658517,-0.026410854678618603,0.4085223366761984,-1.7311158180462658
1.5091320298318585,8.48413017279162,-0.026269760253330287,0.3927291566595525,-1.7479037981992394
1.5041547723453617,8.411004548696926,-0.026122423815058176,0.3770142548635206,-1.7619917210059262
1.4992062979524503,8.340857088063636,-0.025966780320852353,0.36138006759215474,-1.7731628691017132
1.494288390627904,8.273672182137162,-0.025800665200685288,0.34582946847599955,-1.7811873335378272
1.4894032565424054,8.209433629886078,-0.02562179885719535,0.3303658183775288,-1.78582087708885
1.4845535476017893,8.148124540099385,-0.02542776893876332,0.3149930214824154,-1.786803747684045
1.479742388600794,8.089727222197986,-0.02521601001908092,0.29971558800600073,-1.7838594613398138
1.474973408527694,8.034223064479093,-0.02498378022407965,0.2845387037718236,-1.7766935864824254
1.470250776655825,7.981592398493504,-0.024728134216646446,0.26946830660280263,-1.7649925798465156
1.4655792441880475,7.931814348318223,-0.024445891759957258,0.2545111689264632,-1.748422750762006
1.4609641923950676,7.884866663684274,-0.024133600797727396,0.23967498511508892,-1.7266294692535777
1.456411688431124,7.840725536333306,-0.023787493559572902,0.2249684606845694,-1.6992367891907019
1.4519285503573034,7.7993653997292185,-0.023403433533277406,0.21040139830581284,-1.6658477381306636
1.447522423412274,7.760758713524272,-0.02297685009860818,0.19598477227258845,-1.6260456407943964
1.4432018703372727,7.72487573623804,-0.022502655954037325,0.18173077810878913,-1.5793970072943881
1.4389764797401292,7.691684292830075,-0.02197513980536714,0.16765283671190054,-1.5254567484058925
1.4348569983207464,7.661149548751428,-0.02138782250392797,0.1537655220106981,-1.4637767996929887
1.430855495679753,7.6332338093144045,-0.020733257927581458,0.14008436680007147,-1.3939196642629639
1.4269855750387146,7.607896373581852,-0.020002748820191287,0.12662548301627014,-1.3154789258600412
1.4232626505394363,7.5850934860603765,-0.019185930119576953,0.11340491194661736,-1.228109398130029
1.4197043234633697,7.564778447111408,-0.018270144365337547,0.10043760330566631,-1.1315701007370536
1.4163309081796271,7.546901961717509,-0.01723949020037292,0.08773592715641396,-1.0257832640032865
1.4131661876577526,7.531412818269178,-0.016073357398307047,0.07530768808918935,-0.910911129713618
1.4102385240853845,7.51825897575949,-0.014744153889777505,0.06315381201278922,-0.787447705742932
1.4075825246542606,7.507389061664423,-0.013213734858893881,0.05126633635633056,-0.6563123336845382
1.4052415991889462,7.498754078307673,-0.011427585828628937,0.03962822529365197,-0.5189140501496879
1.4032720633052995,7.492308675078629,-0.009304370841334368,0.02821812448574712,-0.3771333384367359
1.401750439424438,7.488010411725643,-0.006712722641417181,0.017026752914090164,-0.23315472184948066
1.4007900884933764,7.4858125645209235,-0.0033962345276546927,0.00610848081978483,-0.08910288513481376
