x,y,v_x,v_y,omega
2.375,32.48,0.0,4.0,-4.571428571428571
2.3737289832206763,31.73051129738259,-0.01337912399288325,3.8893547643937456,-4.21660691520759
2.370141680546338,31.001519653683705,-0.02438195678962332,3.7842414850682142,-3.9035052114490423
2.364650891611871,30.292014967343967,-0.03341582146792115,3.6842288974553252,-3.625845187693118
2.3575991887776557,29.601064727557695,-0.04081262941855715,3.5889315213475377,-3.378456643418112
2.3492717948467874,28.927805917710664,-0.04684414880110954,3.4980033191475286,-3.1570564042611347
2.3399068802412053,28.271438017905787,-0.05173389967870419,3.4111324682722173,-2.9580761453004265
2.3297038436214073,27.631216917728604,-0.05566648579285392,3.3280370072770813,-2.7785272545065607
2.3188300060519613,27.00644959026711,-0.05879496230657383,3.2484611765281426,-2.6158940167184985
2.3074260493312386,26.396489408306884,-0.06124668738524805,3.172172317790002,-2.4680486255258143
2.2956104544780156,25.800732006404004,-0.06312799528025481,3.098958228556112,-2.3331831441701794
2.2834831399095816,25.21861161013823,-0.0645279475453655,3.0286248900309856,-2.209754718252671
2.271128455800622,24.64959776762334,-0.06552135886473595,2.9609945048625943,-2.0964412166491693
2.258617658059265,24.09319242925993,-0.06617124893902143,2.8959037936996443,-1.9921051286004852
2.2460109598096456,23.54892733044912,-0.06653083789908014,2.8332025095720046,-1.895764034852112
2.233359238404042,23.016361639046337,-0.06664517689674487,2.7727521367731143,-1.806566341860287
2.2207054604506484,22.495079835094124,-0.06655248577055611,2.7144247469343585,-1.7237712512288963
2.208085875126704,21.98468979511056,-0.06628525448149002,2.658101989734755,-1.6467321539836417
2.195531016392753,21.48482105713478,-0.06587115324431382,2.6036741994839754,-1.5748828073098025
2.1830665470582127,20.99512324600589,-0.0653337871192664,2.5510396018727692,-1.5077257819718444
2.170713971534035,20.515264641099712,-0.06469332366155092,2.5001036076659364,-1.4448227706979588
2.15849123921,20.044930871067926,-0.06396701659145021,2.4507781821423285,-1.3857864280025878
2.1464132564540446,19.58382372209244,-0.06316964399755066,2.4029812807575186,-1.3302734752398155
2.134492322049038,19.131660047845955,-0.06231387605515513,2.356636342889677,-1.2779788549189393
2.122738498302992,18.688170770786503,-0.06141058442953492,2.311671836683517,-1.2286307583558473
2.11115992797019,18.253099965648993,-0.06046910328417404,2.268020848974467,-1.181986382789603
2.0997631054074364,17.82620401706289,-0.05949745000796828,2.225620715089802,-1.1378282998639726
2.0885531089863063,17.40725084414816,-0.05850251231971686,2.1844126840126012,-1.0959613381749715
2.077533800628992,16.996019185743876,-0.057490207230959246,2.144341614979859,-1.0562098994414286
2.0667079973847375,16.59229794062267,-0.05646561639277211,2.1053557020854843,-1.0184156415657604
2.0560776191778767,16.195885557655334,-0.05543310157418181,2.067406223886459,-0.9824354730441162
2.045643816206814,15.806589471425237,-0.05439640338437688,2.0304473153777236,-0.9481398123533258
2.0354070789314265,15.424225579262647,-0.05335872583022656,1.9944357600179565,-0.9154110734779927
2.0253673331346467,15.048617756083544,-0.05232280887271995,1.9593307997620821,-0.8841423449555468
2.0155240221663755,14.679597403783248,-0.05129099079328922,1.925093961293677,-0.8542362349580661
2.0058761781615075,14.317003032258956,-0.05026526188953117,1.8916888968567462,-0.8256038591956801
1.9964224837580615,13.960679869422275,-0.049247310778324366,1.8590812382661928,-0.7981639519768594
1.9871613256176712,13.61047949781781,-0.04823856438367777,1.8272384628334555,-0.7718420837244164
1.9780908408618685,13.266259515690894,-0.04724022251950915,1.7961297700814378,-0.7465699707265657
1.9692089573779055,12.927883220550008,-0.04625328783799683,1.7657259682436837,-0.7222848649843062
1.9605134288125479,12.595219313450198,-0.04527859179734733,1.7359993696490543,-0.6989290137683644
1.9520018649573398,12.268141622385784,-0.04431681720484047,1.7069236941868713,-0.6764491799770707
1.9436717581310596,11.946528843325655,-0.043368517808636015,1.6784739801302548,-0.6547962156367547
1.9355205060817096,11.63026429755476,-0.04243413534241765,1.6506265016686343,-0.6339246819462621
1.927545431859187,11.319235704102532,-0.041514014368346314,1.6233586925653427,-0.6137925101680881
1.919743801048844,11.013334966144505,-0.04060841521421263,1.596649075413877,-0.5943606984360513
1.9121128367039224,10.712457970358503,-0.039717525258645886,1.5704771960177073,-0.5755930402046323
1.90464973227001,10.41650439830272,-0.03884146878253656,1.5448235624642381,-0.5574558806257349
1.8973516627560962,10.125377548960707,-0.037980315574449995,1.5196695885043152,-0.5399178976193542
1.890215794373592,9.838984171668706,-0.037134088451911046,1.4949975408851495,-0.5229499048177182
1.8832455916842021,9.557235097783995,-0.036236466173244726,1.4707821842170643,-0.5047489178523153
1.8764437986417013,9.280044254570981,-0.03536135532676606,1.447016165393601,-0.4873464419040753
1.869806182851801,9.007327739481632,-0.034508284566921975,1.4236839934416423,-0.4706982580492852
1.86332860285495,8.739004528754613,-0.033676768031505634,1.4007708563164503,-0.45476305945304035
1.8570070104898906,8.474996351975335,-0.03286630949543904,1.3782625834654256,-0.4395022290183619
1.8508374525243347,8.21522757351618,-0.0320764059314629,1.356145610841454,-0.42487963628114794
1.8448160716581234,7.959625080409143,-0.031306550554972105,1.3344069481799823,-0.41086145169267574
1.838939106990488,7.708118176236898,-0.03055623542013779,1.313034148369967,-0.39741597662898565
1.8332028940311311,7.460638480659238,-0.02982495362572384,1.292015278763296,-0.38451348764118026
1.82760386432445,7.217119834220089,-0.029112201181443868,1.2713388942803663,-0.37212609361533716
1.8221385447471938,6.977498208106226,-0.028417478579150963,1.2509940121813519,-0.3602276046478505
1.8168035565319651,6.741711618552571,-0.02774029210746618,1.2309700883834453,-0.3487934115637296
1.811595614062122,6.509700045610803,-0.027080154943513856,1.2112569952141152,-0.33780037511357225
1.8065115234776299,6.2814053560180305,-0.026436588051139482,1.1918450004992902,-0.32722672398121244
1.8015481811262029,6.05677122992072,-0.02580912091125187,1.172724747893452,-0.31705196081984305
1.7967025718894991,5.835743091226075,-0.025197292106679873,1.1538872383659675,-0.3072567756109594
1.79197176741016,5.618268041368662,-0.024600649781100804,1.1353238127646939,-0.2978229657088451
1.7873529242419885,5.404294796294536,-0.0240187519891269,1.1170261353839992,-0.28873336199447025
1.7828432819425357,5.193773626478411,-0.02345116695248006,1.0989861784699366,-0.27997176061741574
1.7784401611246965,4.9866562998017265,-0.02289747323530216,1.081196207600407,-0.27152285985350744
1.7741409614815926,4.782896027130821,-0.022357259850002913,1.0636487678828228,-0.26337220164987585
1.7699431597969995,4.582447410444928,-0.021830126303608605,1.0463366709160697,-0.2555061174687044
1.7658443079517916,4.385266393373492,-0.021315682593316638,1.0292529824674777,-0.2479116780764969
1.7618420309353349,4.1913102140112635,-0.02081354915885917,1.0123910108191239,-0.24057664695770817
1.7579340248694033,4.0005373598880425,-0.02032335679831462,0.9957442957410894,-0.23348943706042627
1.7541223062694433,3.81310524071397,-0.01979999688547357,0.9772253797754522,-0.2680090110503903
1.7504060245324666,3.6291815984471043,-0.019318758240596562,0.9588129598757762,-0.3039021596791544
1.7467772887415984,3.4487464603333216,-0.01887846061064756,0.9405042834271826,-0.3410658648068089
1.743228435205891,3.2717803666053378,-0.01847789239679834,0.9222967031831616,-0.3793989515254979
1.739752033026508,3.0982643507714513,-0.018115814754605487,0.9041876740156609,-0.4188018643752492
1.7363408889223384,2.928179920487757,-0.017790965289282954,0.8861747500232249,-0.4591764462645632
1.732988051389496,2.761509038946233,-0.017502061372215657,0.8682555819928143,-0.500425719151757
1.729686814264447,2.5982341067116295,-0.01724780310198446,0.8504279152135343,-0.5424536655308708
1.7264307197563706,2.4383379439402404,-0.017026875930399785,0.832689587643209,-0.5851650097461367
1.7232135610107049,2.281803772913136,-0.016837952971345056,0.8150385284315899,-0.6284649981311797
1.7200293842627064,2.1286152008154673,-0.016679697007587382,0.7974727568070322,-0.6722591769327656
1.7168724906372164,1.9787562026918089,-0.016550762208095166,0.7799903813367421,-0.716453166933439
1.7137374376486978,1.8322111045052623,-0.0164497955657843,0.7625895995742571,-0.7609524336320952
1.7106190404539663,1.688964566225092,-0.016375438062967956,0.7452686981117292,-0.8056620517755864
1.7075123729089219,1.5490015648638824,-0.016326325569079852,0.7280260530588932,-0.8504864629569344
1.704412768479977,1.4123073773806247,-0.016301089472445542,0.7108601309754087,-0.8953292249055461
1.701315821060824,1.2788675633605386,-0.01629835704495552,0.693769490288654,-0.9400927509908007
1.698217385745689,1.148667947375781,-0.016316751535410373,0.6767527832351172,-0.984678038341177
1.6951135796113432,1.021694600923258,-0.016354891984019668,0.6598087583704052,-1.0289843828452572
1.6920007825618968,0.8979338238265022,-0.016411392746996767,0.6429362637007079,-1.0729090791469094
1.688875638292879,0.7773721249776742,-0.016484862716349413,0.6261342504974766,-1.1163471035730612
1.685735055434328,0.6599962022830219,-0.016573904215763328,0.6094017778672858,-1.159190777737032
1.68257620893669,0.5457929216603752,-0.016677111548847795,0.5927380181605677,-1.2013294103417262
1.6793965417683154,0.4347492949200671,-0.016793069170885213,0.5761422633163822,-1.2426489144635753
1.6761937669993772,0.3268524563407027,-0.01692034944951734,0.5596139322559017,-1.2830313973287732
1.6729658703541985,0.22208963772815338,-0.017057509973415028,0.5431525794551746,-1.322354719297437
1.6697111133224474,0.12044814171931506,-0.01720309036080709,0.5267579048483523,-1.3604920184492129
1.6664280369295628,0.021915313061271036,-0.017355608511663713,0.5104297652363396,-1.397311196817422
1.663115466278326,-0.07352149243948247,-0.017513556238196594,0.4941681874031997,-1.4326743639523176
1.6597725159868888,-0.1658749416443257,-0.017675394197985046,0.47797338317410665,-1.4664372331152287
1.6563985966640646,-0.2551577608809126,-0.01783954604226778,0.46184576668468236,-1.4984484650273278
1.65299342258059,-0.3413827762623569,-0.01800439167851961,0.4457859741726393,-1.5285489537403385
1.6495570207156782,-0.42456295804043265,-0.01816825953107607,0.42979488664917864,-1.556571048893939
1.6460897413819633,-0.5047114695787798,-0.018329417665923334,0.4138736558597392,-1.5823377084248167
1.6425922706592893,-0.5818417216155822,-0.01848606362538399,0.3980237340013131,-1.6056615757684898
1.6390656448993806,-0.6559674325796649,-0.018636312794707417,0.38224690772585396,-1.6263439758557268
1.6355112675998864,-0.7271026958309506,-0.01877818509470596,0.3665453370245059,-1.6441738249109041
1.631930928988554,-0.7952620548152183,-0.018909589761423762,0.3509215996520015,-1.6589264504455723
1.6283268287075154,-0.8604605872539608,-0.019028307933718725,0.33537874180845967,-1.6703623202527331
1.6247016020454046,-0.9227139996302398,-0.019131972720080912,0.3199203358365941,-1.6782256831534024
1.6210583502334477,-0.9820387333761218,-0.019218046353150116,0.30455054569902323,-1.682243130471895
1.6174006754038723,-1.038452084307366,-0.01928379395816745,0.28927420094567247,-1.6821220968143995
1.6137327209095695,-1.091972336970791,-0.019326253350283092,0.27409687972195274,-1.677549333306512
1.6100592178299444,-1.1426189156428634,-0.01934220011945508,0.2590250010367094,-1.6681894083792252
1.6063855386503034,-1.1904125537018047,-0.01932810703466028,0.24406592589951048,-1.6536833239690154
1.6027177593184767,-1.2353754829215475,-0.019280096458252148,0.22922806588723404,-1.6336473837496241
1.5990627311811552,-1.277531643797225,-0.01919388393460731,0.2145209959619946,-1.6076725222683628
1.5954281647304067,-1.316906917141985,-0.019064710283797925,0.1999555655618286,-1.5753244105796684
1.591822727725697,-1.353529375639262,-0.01888725818682834,0.1855439975674265,-1.5361448109073712
1.5882561612283224,-1.3874295514099515,-0.018655547048696992,0.17129995791347957,-1.4896548821350246
1.5847394186116173,-1.418640711396975,-0.018362796285039628,0.15723856826571536,-1.435361469225562
1.5812848350588586,-1.4471991256828147,-0.018001241112420907,0.14337631895365416,-1.372767879616651
1.5779063390487318,-1.473144303679824,-0.017561874783649952,0.12973081785699786,-1.3013912949487145
1.5746197238878124,-1.496519158235266,-0.017034074278660823,0.11632028272658713,-1.2207898011598954
1.5714430081887998,-1.5173700370727374,-0.0164050383425235,0.10316265240466507,-1.1306029745358441
1.5683969320971745,-1.5357465350825947,-0.015658920516691575,0.09027416875171543,-1.0306107406365896
1.5655056655138448,-1.551700974564035,-0.014775464570987416,0.0776672994739377,-0.9208150125713093
1.5627978528039077,-1.565287428958925,-0.013727827112561448,0.06534800994595612,-0.8015455765640768
1.5603081984360867,-1.5765602060560724,-0.012479060969767775,0.05331280160293203,-0.6735824191067861
1.5580799394021194,-1.5855718743025733,-0.0109762972825195,0.04154686414971814,-0.5382666659407392
1.5561688496565118,-1.5923713435766444,-0.009140436881768516,0.03002649663001154,-0.39754016121582786
1.5546502841231837,-1.5970034587251831,-0.006844463469055815,0.018732610196696274,-0.25382156253781074
1.553634392168278,-1.5995141284725705,-0.003849136056264973,0.007695492407389957,-0.1096270867634106
