x,y,v_x,v_y,omega
2.375,32.48,0.0,2.564102564102564,-4.938775510204081
2.3742685894767197,32.022955247400205,-0.008126783592002909,2.5141724647840333,-4.692953572874376
2.3721607977553187,31.57475796033706,-0.015293124423564765,2.465797391473109,-4.464913356686875
2.3688399266934894,31.135135653410735,-0.021605442930091992,2.4188949077082627,-4.252947872516231
2.3644512794151686,30.703830119843822,-0.027157304606805495,2.3733887985908053,-4.055546948146856
2.3591243184557427,30.28059636963843,-0.03203115049792749,2.3292084259135213,-3.871371054933749
2.3529745358591563,29.865201675972358,-0.036299767241922874,2.286288170376195,-3.6992290752778003
2.346105078159618,29.457424715455446,-0.040027540530723535,2.244566946478354,-3.5380593461730454
2.338608162029429,29.057054790212522,-0.04327152758249174,2.20398777844303,-3.386913438789136
2.3305663105538277,28.663891121659805,-0.04608237770196547,2.164497427698264,-3.244942232911537
2.322053435327975,28.27774220739232,-0.048505124807509306,2.126046064162711,-3.1113839239501275
2.313135785647732,27.898425233872082,-0.05057987163963332,2.0885869749510086,-2.98555366356656
2.303872782819622,27.525765538657456,-0.05234238200603323,2.0520763052115276,-2.8668345861189475
2.294317754916842,27.159596116786044,-0.053824594691524244,2.016472826693035,-2.7546700146478056
2.2845185850553555,26.799757166651897,-0.05505507043609907,1.9817377303530503,-2.6485566740096287
2.2745182843757803,26.446095671328738,-0.05605938155918476,1.9478344399042844,-2.5480387665411386
2.2643554993280954,26.098465011806724,-0.05686045230398097,1.91472844367363,-2.452702788509172
2.254064961514983,25.756724609047332,-0.05747885673060356,1.88238714254182,-2.3621729845129553
2.2436778872135688,25.42073959213338,-0.05793307995177202,1.8507797120576626,-2.2761073527041815
2.2332223327302034,25.090380490109936,-0.05823974764117789,1.8198769770916985,-2.194194126770135
2.2227235109205647,24.765522945385836,-0.05841382802147533,1.7896512976205288,-2.1161486715611755
2.2122040735048265,24.446047446801906,-0.058468809931169805,1.7600764644231233,-2.0417107384180095
2.201684363205849,24.131839080677064,-0.05841686005746622,1.731127603630689,-1.9706420339745152
2.1911826392216596,23.822787298321636,-0.05826896198908756,1.702781089207411,-1.9027240627283637
2.180715279098809,23.518785698663038,-0.05803503937591754,1.6750144625548116,-1.8377562091877853
2.170296959689659,23.219731824765308,-0.05772406517019588,1.647806358531057,-1.7755540300849202
2.159940819545123,22.92552697314402,-0.05734415865797918,1.6211364372610293,-1.7159477311307747
2.1496586048072968,22.636076014883812,-0.05690267176231387,1.5949853211857103,-1.6587808061863039
2.139460800417242,22.3512872276595,-0.05640626590495935,1.5693345368622165,-1.6039088196314462
2.129356748236612,22.07107213784468,-0.05586098054648828,1.5441664610802504,-1.5511983152060815
2.119354753493141,21.79534537196573,-0.05527229438096297,1.519464270908062,-1.5005258367378926
2.109462180795469,21.524024516824998,-0.05464518003761761,1.4952118973222994,-1.4517770480154293
2.0996889382121404,21.25703299032426,-0.053946404221590284,1.4713606193525817,-1.402885857383471
2.0900430950390847,20.994296764639742,-0.05322963103458373,1.4479307771420653,-1.3560661632796522
2.0805276230812577,20.73574125407414,-0.0524978351634915,1.4249082291423967,-1.3112068832479926
2.071144985561724,20.481294364049702,-0.05175369283132431,1.402279437795768,-1.2682040162579278
2.061897188264996,20.230886385344597,-0.05099961046565655,1.3800314367054014,-1.2269601188042107
2.0527858257774083,19.98444989404571,-0.05023775050754146,1.3581517999489179,-1.1873838249894677
2.043812123312028,19.74191965684703,-0.04947005466335028,1.336628613369713,-1.1493894064630081
2.0349769745542194,19.503232541351107,-0.04869826486785582,1.3154504476961424,-1.1128963685169684
2.026280975918395,19.268327431056818,-0.047923942196861455,1.2946063333514988,-1.0778290790198815
2.0177244575659654,19.03714514474052,-0.04714848394124228,1.274085736829623,-1.044116427204315
2.0093075114984673,18.8096283599589,-0.046373139030959555,1.253878538521685,-1.0116915096244392
2.0010300170077477,18.58572154042191,-0.04559902197703752,1.2339750118893198,-0.9804913408657989
1.9928916637364962,18.36537086700195,-0.044827125481311236,1.214365803888023,-0.9504565868270557
1.984891972576888,18.148524172162293,-0.04405833184767001,1.195041916552611,-0.9215313186054508
1.977030314612313,17.935130877602823,-0.043293423314274396,1.1759946896637055,-0.8936627852071927
1.9693059282868048,17.72514193493523,-0.04253309141359379,1.157215784420704,-0.8668012034734895
1.9617179349685503,17.51850976921263,-0.04177794545590033,1.1386971680525968,-0.840899563764803
1.954265353057549,17.315188225150592,-0.0410285202218938,1.1204310993033713,-0.8159134500820934
1.9469471107728638,17.11513251588726,-0.040285282941273835,1.1024101147336383,-0.7918008734261106
1.9397620577417922,16.91829917414062,-0.03954863962618915,1.0846270157845805,-0.7685221173056955
1.932708975501503,16.724646005630113,-0.038818940821466925,1.0670748565544033,-0.74603959440496
1.925786587013118,16.53413204463851,-0.03809648682725803,1.0497469322411974,-0.7243177135082959
1.918993565278692,16.346717511597944,-0.037381532444139595,1.0326367682095343,-0.7033227558624909
1.9123285411430049,16.162363772591373,-0.036674291285717614,1.0157381096412428,-0.6830227602277303
1.905790110354353,15.98103330066763,-0.03597493969930303,0.999044911733681,-0.6633874159347626
1.8993818695600895,15.802914264517966,-0.035227735792515175,0.9800554899292293,-0.6937994155414754
1.893104277626204,15.628203660987278,-0.034523285695102844,0.9611734381895186,-0.7255803067069372
1.886949753543657,15.456882407005413,-0.03386031522208314,0.9423960504978958,-0.7586206702204823
1.8809109483887712,15.28893189671416,-0.03323751983220591,0.9237207305160243,-0.7928127902693497
1.8749807504452705,15.124333981986243,-0.032653568428911234,0.9051449886830519,-0.8280504170853813
1.869152289676784,14.963070953431604,-0.032107106776494275,0.8866664397018337,-0.8642285314862039
1.8634189416170042,14.805125521821402,-0.03159676055439073,0.868282800411499,-0.9012431102952536
1.857774330740828,14.650480799859992,-0.031121138069788713,0.8499918880486194,-0.938990891606784
1.8522123333763947,14.499120284234404,-0.030678832646138365,0.8317916189023665,-0.9773691388357133
1.846727080215013,14.351027837869676,-0.030268424702546114,0.8136800073723907,-1.016275402457401
1.8413129584735004,14.206187672316403,-0.029888483536481863,0.7956551654417383,-1.0556072782987005
1.8359646137614467,14.064584330194354,-0.02953756881967029,0.7777153025810325,-1.0952621611883606
1.8306769517043755,13.926202667612664,-0.029214231814455767,0.7598587261044061,-1.1351369927113777
1.8254451393726976,13.791027836483053,-0.028917016315297334,0.7420838420023917,-1.1751280017374945
1.8202646065657606,13.659045266637442,-0.02864445931733642,0.7243891562821981,-1.2151304363079227
1.8151310470001965,13.530240647655397,-0.02839509141115462,0.7067732768516408,-1.255038285365635
1.8100404194522044,13.404599910299691,-0.028167436899867886,0.6892349159895447,-1.2947439887023438
1.8049889489043767,13.282109207449878,-0.027960013631550148,0.671772893452811,-1.3341381333686275
1.799973127749243,13.162754894414043,-0.027771332536602723,0.6543861402786848,-1.3731091346516942
1.794989717103905,13.046523508487443,-0.027599896856041087,0.6370737033502117,-1.4115428995672057
1.7900357482930178,12.933401747613598,-0.027444201042707506,0.6198347508036175,-1.4493224706368488
1.7851085245609968,12.8233764479881,-0.027302729313080157,0.6026685783685698,-1.4863276475316995
1.780205623078788,12.716434560427768,-0.02717395382257383,0.5855746167462091,-1.5224345839532294
1.7753248973158815,12.612563125307496,-0.027056332431941776,0.5685524401457026,-1.5575153569002531
1.7704644798546207,12.511749245843749,-0.02694830602651121,0.5516017761181491,-1.5914375052337093
1.7656227857313267,12.413980059476867,-0.02684829534342134,0.5347225168472187,-1.6240635342063143
1.7607985163974984,12.319242707073485,-0.02675469725467277,0.5179147320792341,-1.6552503823779876
1.7559906644044818,12.227524299635196,-0.026665880445510385,0.5011786839017691,-1.6848488471016825
1.7511985189267396,12.138811882159182,-0.026580180418292174,0.48451484360948827,-1.7127029645546998
1.7464216722523715,12.053092394250715,-0.02649589374135252,0.46792391092903207,-1.7386493401327194
1.741660027385131,11.97035262703509,-0.026411271450210036,0.4514068359112569,-1.762516424954242
1.736913806920108,11.890579175857585,-0.0263245114944877,0.4349648438387976,-1.784123734294976
1.7321835633759115,11.813758388193584,-0.026233750107696636,0.41859946353900723,-1.8032810040615381
1.7274701911899966,11.739876306116884,-0.02613705195802409,0.40231255953542977,-1.8197872820317027
1.7227749406113637,11.668918602592566,-0.026032398915674222,0.386106368512541,-1.8334299516921615
1.7180994337569029,11.600870510772047,-0.025917677245001925,0.3699835406043352,-1.8439836883203247
1.7134456831352147,11.535716745374003,-0.02579066299597865,0.3539471860405992,-1.8512093498077542
1.7088161129861548,11.473441415138733,-0.025649005326909714,0.33800092768462203,-1.8548528090729515
1.7042135838375905,11.414027925251087,-0.025490207434914713,0.322148959955872,-1.85464374142506
1.6996414207457655,11.357458868547802,-0.025311604696473717,0.30639611452508614,-1.8502943898711868
1.6951034457664735,11.30371590427432,-0.025110339517883055,0.29074793295804713,-1.841498345477744
1.6906040153073851,11.2527796231583,-0.024883332249765494,0.27521074610882607,-1.8279294004665931
1.6861480631472874,11.204629397659396,-0.024627247306876755,0.25979175943456245,-1.8092405615704004
1.6817411500912476,11.159243216495213,-0.02433845331578937,0.2444991423896794,-1.7850633543235805
1.6773895214864616,11.116597503018472,-0.02401297562627646,0.2293421184630144,-1.7550076111656578
1.67310017419114,11.076666917860045,-0.023646438766185718,0.2143310499639456,-1.7186620255652352
1.6688809351315081,11.039424147648543,-0.023233995229723074,0.19947750794164307,-1.675595882013988
1.6647405544020475,11.004839683846203,-0.022770235097616314,0.18479431208436375,-1.6253625526788789
1.6606888171268617,10.972881599194178,-0.022249067960003917,0.17029551738259327,-1.5675056047231422
1.6567366802731667,10.94351533446531,-0.021663563747720386,0.15599631293817337,-1.5015687092415388
1.6528964437229385,10.916703515840865,-0.021005731254811616,0.14191278288898604,-1.4271110011348451
1.6491819698564556,10.892405833968045,-0.02026620059500072,0.1280614601423602,-1.3437301062154288
1.6456089737740638,10.870579030079291,-0.019433755876018814,0.11445858306601593,-1.2510956638575579
1.6421954187792878,10.851177051919557,-0.018494632954822916,0.10111895204215603,-1.148996620585829
1.6389620714718842,10.834151459391908,-0.017431448238549946,0.0880542982650339,-1.0374053316545908
1.635933301775216,10.819452167496742,-0.01622154839109972,0.07527116723680485,-0.9165594913107817
1.6331382622140853,10.807028591185219,-0.014834446732573366,0.06276856955789939,-0.7870571893986213
1.6306126621615444,10.796831162228752,-0.01322777607343536,0.05053619662504516,-0.6499484154249323
1.6284015086254775,10.78881295273122,-0.011340596549533464,0.03855502001420892,-0.5067868769841773
1.6265635700435186,10.782930646394242,-0.009080943250006922,0.026803939285568297,-0.35958413956144697
1.625179612355292,10.779143014914663,-0.00629636439695744,0.01528085493198406,-0.2105999575361778
1.6243728231243355,10.777401153048764,-0.0026679603914476673,0.0040731658002279274,-0.06193592792090494
