x,y,v_x,v_y,omega
2.375,32.48,0.0,2.6666666666666665,-6.775510204081632
2.3732463483420982,31.874010178278528,-0.015249144851317783,2.602810043954788,-6.3410077911949605
2.3682440548035344,31.28239551860115,-0.0282490598318475,2.541665257587656,-5.94816257601299
2.360473742261109,30.70455483207585,-0.03931887531967998,2.483036364371467,-5.59175314790983
2.35034835774712,30.13992958388032,-0.04872794654109402,2.426748402546172,-5.267341127641172
2.3382236167528907,29.587999426702993,-0.056704583843506705,2.3726442685610154,-4.971135359039397
2.3244066387996605,29.04827838413471,-0.06344305053240888,2.320582188554481,-4.699882910865684
2.309163127976066,28.520311562676785,-0.06910921749884662,2.270433650210099,-4.450780925878853
2.2927233739488817,28.003672297995852,-0.07384516534623614,2.2220816948414925,-4.221404834661958
2.275287290224277,27.49795966125217,-0.07777295399814842,2.1754194942339926,-4.0096495260522484
2.2570286617689237,27.002796266615682,-0.0809977282223163,2.1303491547789517,-3.8136808559175033
2.238098739740543,26.517826332773485,-0.08361028941577821,2.0867807047184264,-3.6318954638405923
2.2186292943763215,26.04271396025672,-0.08568923549049573,2.044631230209972,-3.462887309559637
2.1987352161463507,25.577141593446367,-0.08730274911794363,2.0038241333583047,-3.3054196771726203
2.178516738718635,25.12080864164491,-0.08851009807958622,1.9642884910021925,-3.15840165299508
2.158061344087252,24.673430237983077,-0.08936289871504696,1.92595849736155,-3.02086828247883
2.137445399630237,24.234736118433794,-0.08990618351986918,1.8887729769800519,-2.8919637671810636
2.1167355683197373,23.8044696060274,-0.09017930613665039,1.8526749569885888,-2.7709271849734507
2.0959900263714477,23.38238668765306,-0.09021671080499515,1.8176112897448184,-2.6570803133064556
2.075259516961222,22.968255172704104,-0.09004858841436011,1.7835323185069445,-2.5498172122228198
2.0545882639971964,22.561853924367213,-0.08970143735977444,1.7503915800747425,-2.4485952853353274
2.0340147661153147,22.16297215563314,-0.08919854422180552,1.7181455393519824,-2.352927586480761
2.013572487907329,21.77140878317276,-0.08856039671720145,1.6867533516078344,-2.2623761797851856
1.9932904627687122,21.386971833116288,-0.08780503927076955,1.6561766488832173,-2.176546393391318
1.973193819570334,21.009477893528306,-0.08694837984556417,1.6263793475340063,-2.09508183363229
1.9533042435329846,20.638751609011454,-0.08600445526182131,1.5973274743516732,-2.017660048178637
1.9336403801541464,20.274625213417636,-0.08498566107590257,1.5689890090728185,-1.9439887445723654
1.9142181897502581,19.916938097113565,-0.08390295113182061,1.5413337413973593,-1.8738024853322093
1.8950512590933282,19.5655364056502,-0.08276601110235324,1.5143331408928107,-1.8068597930541084
1.876151075703996,19.22027266703399,-0.081583409674448,1.4879602383785664,-1.742940609108349
1.8575623689786398,18.8810129438384,-0.08005751837212835,1.4621243111483133,-1.673641241966402
1.8393248442574153,18.547628494432296,-0.07852965311678173,1.4368709010786842,-1.607891544572421
1.8214384652712943,18.219988013978014,-0.07700407719731361,1.4121767550454816,-1.545463589138375
1.803902282853705,17.897965406598765,-0.07548446556433172,1.3880198308610343,-1.4861468673114668
1.786714562101767,17.581439516035786,-0.07397397575686852,1.3643792175126825,-1.4297467485188375
1.7698728942172637,17.270293873921123,-0.07247531019533505,1.3412350617452715,-1.3760830929562997
1.7533742948865885,16.964416464275338,-0.07099077094097193,1.3185685003919734,-1.324989001909697
1.7372152908229181,16.663699502969166,-0.06952230787355254,1.2963615979225902,-1.2763096902346363
1.7213919958895918,16.36803923100351,-0.06807156111189404,1.2745972887352546,-1.2299014676691649
1.705900178046576,16.07733572056572,-0.06663989839259055,1.2532593237672858,-1.1856308172566778
1.6907353182081424,15.791492692912328,-0.06522844802857133,1.2323322210448189,-1.1433735605484736
1.6758926619662,15.510417347211778,-0.06383812798831871,1.2118012198295172,-1.1030141004669396
1.6613672650173466,15.234020199555072,-0.06246967156692895,1.191652238054885,-1.0644447337667315
1.6471540330302448,14.962214931409633,-0.06112365006004251,1.1718718327750064,-1.0275650259540665
1.6332477566013819,14.694918246852332,-0.05980049279963487,1.152447163375445,-0.9922812423316827
1.6196431418698818,14.432049737972356,-0.05850050486558467,1.1333659573199808,-0.958505829544773
1.6063348372943382,14.173531757884316,-0.05722388274783608,1.114616478228194,-0.926156942624578
1.5933174570353361,13.919289300836809,-0.05597072820000967,1.0961874960979603,-0.8951580130727745
1.5805856013353208,13.669249888942588,-0.054741060495776685,1.0780682595039663,-0.8654373540110897
1.5681338742418438,13.423343465093488,-0.05353482727358716,1.060248469618624,-0.8369277988451249
1.5559568989800963,13.181502291657068,-0.052351914132912354,1.0427182559154686,-0.8095663702664445
1.5440493312453696,12.943660854582632,-0.05119215312558121,1.0254681534274463,-0.7832939767487999
1.5324058706550296,12.70975577257246,-0.05005533026867773,1.0084890814435918,-0.7580551339883427
1.5210212705722252,12.479725710999624,-0.04894119219049276,0.9917723235375927,-0.7337977089984855
1.509900487396649,12.253627276503199,-0.047761270205821195,0.974301019909585,-0.7308110867158448
1.499046329177092,12.031531686685973,-0.0466227143120669,0.9569649785010713,-0.7305386761820186
1.4884492884994573,11.813408312821934,-0.045525465493452155,0.9397600116210152,-0.7328334421303939
1.478099887174178,11.599227468424072,-0.044469328639412595,0.9226821135777903,-0.7375534820219325
1.4679887060862753,11.388960368428268,-0.04345398516843488,0.9057274516031161,-0.7445616603006625
1.4581064122616838,11.18257909038542,-0.04247900461062252,0.8888923574651322,-0.7537252596331424
1.4484437833801178,10.980056537508034,-0.04154385522908164,0.8721733197295429,-0.7649156475138065
1.438991729947109,10.78136640342644,-0.040647913753603285,0.8555669766321528,-0.7780079567086738
1.4297413153216327,10.586483138517764,-0.03979047429401586,0.8390701095302365,-0.7928807780887106
1.4206837737809033,10.395381917677817,-0.038970756494937864,0.8226796369040915,-0.809415864471896
1.4118105267903158,10.208038609412203,-0.038187912988429655,0.8063926088838442,-0.8274978441503548
1.4031131976340858,10.024429746128341,-0.03744103619617996,0.7902062022801712,-0.8470139428262491
1.3945836245507675,9.844532495514496,-0.0367291645283284,0.7741177161010799,-0.86785371271784
1.3862138725075046,9.668324632895736,-0.03605128802178175,0.7581245675403221,-0.8899087676254934
1.3779962437374569,9.495784514459562,-0.03540635345689465,0.7422242884264191,-0.9130725227665711
1.3699232871563376,9.326891051246182,-0.03479326898762131,0.7264145221247017,-0.9372399381981751
1.3619878067663438,9.161623683799693,-0.034210908316672804,0.7106930208882549,-0.9623072646475761
1.354182869148889,8.999962357376958,-0.03365811444380338,0.6950576436572523,-0.9881717905617164
1.3465018101414636,8.841887497610735,-0.033133703012070186,0.6795063543099125,-1.0147315891692237
1.3389382407885961,8.687379986522284,-0.03263646527373351,0.6640372203722703,-1.041885264320592
1.3314860526522654,8.536421138776682,-0.032165170694360555,0.6486484121981746,-1.0695316938341954
1.3241394225631908,8.38899267807081,-0.03171856921063455,0.6333382026354825,-1.0975697690271018
1.3168928168912208,8.245076713539802,-0.03129539315432245,0.6181049671993734,-1.1258981290497325
1.3097409954105184,8.104655716062272,-0.030894358851786635,0.6029471847791491,-1.1544148885716223
1.3026790148334528,7.967712494337917,-0.030514167905305516,0.5878634389108987,-1.1830173572812457
1.2957022320860279,7.834230170602826,-0.03015350815925987,0.5728524196551023,-1.211601749565407
1.2888063073973586,7.7041921558380295,-0.029811054350907085,0.5579129261257374,-1.2400628826224103
1.2819872072761784,7.5775821243150965,-0.029485468441963956,0.5430438697258658,-1.268293861137571
1.2752412074486497,7.454383987308891,-0.02917539962350454,0.528244278154175,-1.296185746509254
1.2685648958339357,7.334581865791527,-0.028879483982703014,0.5135133002576834,-1.3236272084584482
1.2619551756371243,7.218160061902825,-0.028596343815657073,0.4988502118179898,-1.3505041566853664
1.2554092686432508,7.105103028970948,-0.028324586565852457,0.484254422372245,-1.3766993500539249
1.248924718801467,6.995395339831784,-0.028062803362702442,0.4697254831856886,-1.4020919805915177
1.2424993961949284,6.88902165316674,-0.027809567128936206,0.4552630965103397,-1.4265572293913515
1.2361315014998788,6.785966677545332,-0.027563430219321113,0.4408671262845098,-1.4499657913041724
1.229819571046847,6.686215132820813,-0.027322921546173686,0.42653761045043376,-1.4721833651155019
1.2235624826080282,6.589751708483355,-0.027086543139205818,0.4122747750926826,-1.4930701057384836
1.2173594620480153,6.496561018525451,-0.026852766078298923,0.3980790506282353,-1.5124800348332645
1.2112100909903385,6.406627552317541,-0.026620025727586386,0.38395109031010594,-1.5302604062238205
1.205114315670106,6.319935620927783,-0.026386716187477795,0.36989179133997485,-1.5462510225690713
1.1990724571637712,6.236469298247808,-0.026151183867607647,0.35590231892066854,-1.560283500024391
1.193085223211219,6.156212356206176,-0.025911720067628093,0.3419841336152797,-1.572180478198909
1.187153721873581,6.079148193262817,-0.025666552433572114,0.3281390224139204,-1.581754773711778
1.181279477303293,6.005259755282374,-0.025413835134149704,0.31436913393777427,-1.5888084772749942
1.1754644479420553,5.934529447783408,-0.025151637572266204,0.30067701822716203,-1.593131996764821
1.1697110475091006,5.866939038458323,-0.024877931409948324,0.2870656715561912,-1.5945030525941297
1.1640221691987962,5.802469548761575,-0.024590575636177225,0.2735385866763951,-1.5926856374451386
1.1584012135763804,5.7411011332826085,-0.02428729934135089,0.26009980879287475,-1.5874289608992718
1.1528521207485063,5.682812945572227,-0.023965681770596974,0.2467539973843494,-1.5784664119032996
1.1473794074987,5.627582989104287,-0.02362312909728332,0.23350649364120799,-1.5655145900528598
1.1419882102284122,5.575387952170985,-0.023256847166089126,0.2203633927353377,-1.5482724828120613
1.136684334750098,5.526203025794199,-0.022863809167079564,0.20733161923670268,-1.5264209035292415
1.1314743142682178,5.480001704284728,-0.022440716762313077,0.19441900258479838,-1.4996223594342153
1.126365477302584,5.436755569040738,-0.021983952504067643,0.18163434736294676,-1.467521596703942
1.1213660279286985,5.396434057759727,-0.021489520312327603,0.16898748986323475,-1.4297471807938578
1.1164851416483694,5.3590042237517395,-0.020952969081837892,0.15648932759751347,-1.3859146273859648
1.1117330816488096,5.324430493916719,-0.02036929178389963,0.1441518014026726,-1.3356318185915221
1.1071213424617328,5.292674439763161,-0.019732788103724502,0.13198779993262139,-1.278507738238418
1.1026628315792937,5.263694584313569,-0.019036871743572395,0.12001094310729374,-1.2141659528749273
1.0983721051884823,5.237446279608985,-0.018273792524352673,0.10823518475864177,-1.1422647457388329
1.0942656830506574,5.213881705217904,-0.017434226065428122,0.09667415777248932,-1.0625263180202824
1.09036248152303,5.192950056910696,-0.01650665678350651,0.08534017533365391,-0.9747778122196997
1.0866844255807184,5.174598012600974,-0.015476438367028477,0.07424281866394457,-0.8790066182384517
1.0832573346995724,5.158770569033301,-0.014324351903805507,0.06338712540279097,-0.7754305288733989
1.0801122307567201,5.145412313583016,-0.013024378034041304,0.0527716176431671,-0.664578150900287
1.0772873043531224,5.134469085324056,-0.011540199388548706,0.04238688895647881,-0.5473644411182944
1.0748309465441561,5.125889712077608,-0.009819433732897325,0.0322163566648087,-0.425129569508651
1.0728066836997088,5.119626956351368,-0.007782851870993335,0.022242388780759983,-0.29959141740591105
1.0713023350425628,5.115635576339827,-0.0052984407998414055,0.012465263493524755,-0.1726569562186714
1.0704532317678863,5.1138607881845175,-0.002085065936476093,0.002967676987412878,-0.0460694220294707
