x,y,v_x,v_y,omega
2.375,32.48,0.0,2.1025641025641026,-7.020408163265306
2.3738793473187627,32.04274200330224,-0.010672882678450719,2.0617977707479143,-6.681582277494218
2.3706459465926217,31.613909092563627,-0.020121409951465018,2.022325188667381,-6.366478142154995
2.3655430029070814,31.193237496578565,-0.028478053720347313,1.9840709635713174,-6.072858658125037
2.3587875812699806,30.780478577062176,-0.03585929520441978,1.94696636515621,-5.798744910928106
2.3505737311238764,30.375397515775965,-0.04236784904419424,1.9109485042362768,-5.542381014061078
2.3410751814964366,29.977772160716633,-0.048094528359993435,1.8759596391859272,-5.302204508473427
2.33044767515339,29.587392006982487,-0.05311981776425998,1.8419465868535678,-5.076821311964497
2.3188309975452146,29.204057292324393,-0.05751520707550293,1.8088602194139762,-4.864984418289577
2.306350746402234,28.82757819089178,-0.061344327619551844,1.7766550323251882,-4.665575704801317
2.2931198799142845,28.45777409149595,-0.06466392464663322,1.7452887714446297,-4.477590331262129
2.2792400750712605,28.09447294898311,-0.06752469290597725,1.7147221096300318,-4.300123309619587
2.264802922595197,27.737510699152566,-0.06997199734224736,1.6849183649466022,-4.132357901351064
2.249890980702687,27.386730729159964,-0.07204649687213345,1.6558432540305343,-3.9735555601439816
2.234578706499541,27.041983396580086,-0.07378468601497125,1.6274646753016282,-3.8230471866978455
2.2189332809747917,26.703125591321573,-0.0752193666016884,1.5997525176366054,-3.680225501969057
2.203015341209823,26.37002033542972,-0.07638005973134931,1.5726784908572307,-3.5445383772523256
2.1868796314578844,26.042536416515723,-0.0772933664775853,1.5462159749903432,-3.41548298565592
2.1705755831066194,25.72054805113811,-0.07798328448684737,1.5203398857488482,-3.2926006609822895
2.154147832153629,25.40393457495546,-0.0784714864940116,1.4950265540859091,-3.1754723677049825
2.13766536799519,25.092591540587488,-0.0785043626339798,1.4701452017995225,-3.057105052718291
2.1211894471671515,24.78641854215843,-0.07840916906162275,1.445788116572453,-2.944412598387207
2.1047455542248903,24.48530760719404,-0.07819933515039158,1.4219350735645866,-2.8370524995344653
2.08835648834251,24.189154901225102,-0.07788700658656281,1.3985668880443853,-2.734706941188265
2.0720426195180717,23.897860516698902,-0.07748317269380199,1.3756653455384547,-2.6370807247841084
2.0558221194675914,23.611328275945546,-0.07699778016791443,1.3532131378268648,-2.5438993934864813
2.0397111698955275,23.32946554703357,-0.0764398348041253,1.3311938041919276,-2.454907535049484
2.0237241505184387,23.05218307146657,-0.07581749259671718,1.3095916773985763,-2.369867243251151
2.007873808947003,22.77939480277545,-0.0751381414169555,1.2883918339453935,-2.288556721199988
1.9921714142940472,22.511017755152487,-0.07440847432548235,1.2675800481780988,-2.2107690117762746
1.9766268961680358,22.246971861353952,-0.07363455544605527,1.2471427499031735,-2.1363108421787667
1.9612489705285645,21.987179839170295,-0.07282187921557585,1.2270669851792588,-2.065001571036238
1.9460452537194657,21.731567065826596,-0.07197542372822363,1.2073403799988731,-1.996672227843848
1.9310223658532633,21.480061459733335,-0.07109969880703566,1.187951106603569,-1.9311646356227719
1.916186024595447,21.2325933690587,-0.07019878936264391,1.1688878522024895,-1.8683306087000913
1.901541130286239,20.98909546663921,-0.06927639453457578,1.1501397898879024,-1.8080312183835052
1.8870918432394124,20.749502650786958,-0.06833586305425007,1.1316965515621262,-1.7501361200780654
1.872841653970672,20.513751951588524,-0.0673802252194654,1.1135482027086714,-1.6945229360736431
1.8587934470308092,20.281782442324154,-0.06641222182684976,1.095685218856738,-1.6410766888339712
1.8449495590500744,20.053535155665912,-0.06543433037062336,1.078098463602692,-1.5896892801510134
1.8313118315390025,19.828953004340804,-0.06444878878244187,1.0607791680650205,-1.5402590120008057
1.817881658936314,19.607980705969595,-0.06345761695744861,1.0437189116607553,-1.4926901453563177
1.8046600323458073,19.390564711814548,-0.06246263628547233,1.0269096041015988,-1.4468924935857932
1.7916475793606046,19.17665313918958,-0.061465487383126426,1.0103434685171668,-1.4027810473970934
1.7788446003341636,18.966195707305076,-0.060467646202024265,0.994013025620977,-1.3602756285846656
1.766260705679325,18.75931031126241,-0.059378969558345034,0.9763240795472307,-1.3503759658522052
1.753902582396912,18.55612580572915,-0.05831744265510993,0.9587664493409968,-1.3431344973949917
1.741764486462564,18.35661502443555,-0.05728347100534737,0.9413362296456537,-1.3384064949745178
1.729840604028682,18.16075160341638,-0.05627731407924524,0.9240296848226609,-1.3360517590495953
1.7181250808507857,17.968509946177754,-0.055299097138814576,0.9068432412594803,-1.3359342876225504
1.7066120493234598,17.77986519041618,-0.05434882216905085,0.8897734802792896,-1.3379219586113262
1.6952956533088237,17.594793176166572,-0.053426377970339396,0.8728171316217475,-1.3418862243868181
1.6841700709274134,17.413270415262176,-0.052531549471664385,0.8559710674677217,-1.3477018171797681
1.673229535469354,17.23527406199471,-0.051664026319377596,0.8392322969843738,-1.3552464641173392
1.662468354572678,17.06078188486746,-0.050823410791824425,0.8225979613703468,-1.364400610696569
1.651880927805509,16.88977223933825,-0.050009225085972026,0.8060653293840562,-1.375047151540642
1.64146176277956,16.722224041452087,-0.04922091801830456,0.7896317933412783,-1.3870711673146616
1.631205489913884,16.558116742266257,-0.048457871178611986,0.7732948655713907,-1.4003596667005687
1.621106875960083,16.39743030297216,-0.04771940457187266,0.757052175324786,-1.4148013323462194
1.6111608363931165,16.240145170619705,-0.04700478178018894,0.7409014661271895,-1.430286269711527
1.6013624467654632,16.086242254350463,-0.046313214673653236,0.7248405935798928,-1.446705757735005
1.5917069531166417,15.935702902045701,-0.045643867696075244,0.7088675236083153,-1.4639520002370698
1.582189781524944,15.788508877294518,-0.04499586174866493,0.6929803311648631,-1.4819178769619905
1.5728065468836723,15.644642336585648,-0.044368277692017746,0.6771771993958117,-1.5004966931383583
1.5635530609801838,15.504085806624062,-0.04376015948406451,0.6614564192859459,-1.5195819264082837
1.5544253399526111,15.366822161670143,-0.04317051696900569,0.6458163897990029,-1.5390669699381296
1.545419611196255,15.232834600794902,-0.04259832832962483,0.6302556185366334,-1.5588448704783635
1.5365323197893064,15.10210662493947,-0.042042542212743915,0.6147727229436907,-1.5788080600870467
1.5277601345058016,14.974622013660593,-0.04150207953491913,0.5993664320932448,-1.5988480801706442
1.5190999534824963,14.85036480143626,-0.040975834972752374,0.5840355890908729,-1.6188552964274523
1.5105489096057219,14.729319253396536,-0.04046267813938232,0.568779154144583,-1.6387186032034693
1.502104375684279,14.611469840334156,-0.03996145444578819,0.55359620835427,-1.6583251156887784
1.4937639694750136,14.496801212837244,-0.039470985642454805,0.5384859582829776,-1.6775598482957574
1.4855255586290204,14.385298174372469,-0.038990070033670346,0.5234477413815352,-1.69630537747068
1.4773872656283973,14.27694565313082,-0.03851748235321495,0.5084810323484611,-1.7144414871004714
1.4693474727862381,14.171728672429794,-0.038051973286397686,0.4935854505184526,-1.7318447945908586
1.4614048273861449,14.069632319444889,-0.037592268619252474,0.4787607683853894,-1.7483883556170572
1.4535582470420538,13.970641712019564,-0.03713706799113792,0.4640069213796203,-1.763941245492224
1.4458069253646832,13.874741963276097,-0.036685043221913724,0.44932401903435654,-1.7783681150744282
1.4381503380275689,13.78191814371981,-0.036234836179176846,0.43471235769219235,-1.7915287191569482
1.4305882493335733,13.692155240495541,-0.035785056144590474,0.42017243491989376,-1.8032774153830644
1.4231207193921425,13.605438113418142,-0.03533427663094108,0.40570496581724985,-1.8134626319280231
1.4157481120286328,13.521751447357886,-0.03488103159295951,0.39131090142328384,-1.8219263025429564
1.408471103560069,13.441079700517307,-0.0344238109647938,0.3769914494393782,-1.8285032681208977
1.4012906925870576,13.363407048088444,-0.03396105544483753,0.3627480975021698,-1.833020644810104
1.3942082109698108,13.288717320729802,-0.03349115043370474,0.3485826392468131,-1.8352971599839192
1.387225336177959,13.216993937251939,-0.033012419012502486,0.33449720339949013,-1.8351424592439232
1.38034410523005,13.148219830852277,-0.03252311382472457,0.32049428612109365,-1.832356390311284
1.3735669304705922,13.08237736819731,-0.0320214076939235,0.3065767867833462,-1.8267282734638428
1.3668966174721313,13.019448260620457,-0.03150538276760784,0.29274804728190196,-1.818036173537185
1.360336385399853,12.959413466695523,-0.030973017920758624,0.2790118948603374,-1.8060461960260177
1.3538898902405379,12.90225308547328,-0.03042217407271712,0.2653726882086516,-1.7905118403250038
1.347561251382314,12.847946239752687,-0.029850576957986256,0.25183536627318687,-1.771173457776072
1.341355082145287,12.796470948928452,-0.0292557967279859,0.2384054987195477,-1.7477578825075344
1.3352765250190954,12.747803991256355,-0.028635223521458426,0.2250893362527952,-1.7199783311942876
1.3293312925817162,12.701920755868393,-0.027986037786915628,0.21189385791827464,-1.68753470671907
1.3235257153849038,12.658795085637866,-0.027305173611297917,0.19882681094387114,-1.6501144940925732
1.3178667985418449,12.6183991131606,-0.026589272513073307,0.1858967364586611,-1.607394509817244
1.3123622894126796,12.580703093845202,-0.02583462395516601,0.17311297130701758,-1.5590438641907494
1.3070207597612729,12.545675242606983,-0.025037087010613295,0.16048561191410607,-1.5047286265753366
1.3018517072157088,12.513281584201874,-0.024191984851901084,0.14802542051549808,-1.4441188524338533
1.2968656830524747,12.483485832115601,-0.023293959559850613,0.1357436469727969,-1.3768988397114508
1.292074456609069,12.456249317399774,-0.022336768472584628,0.12365173127319495,-1.3027817205454215
1.2874912315548355,12.431530996975006,-0.021312993948685945,0.11176084420079392,-1.2215297237975606
1.283130936600494,12.409287580182802,-0.020213624664089644,0.10008122048684875,-1.1329815678827777
1.2790106241227863,12.389473820947565,-0.019027446552173154,0.08862124842016804,-1.0370882564104438
1.275150026234124,12.372043026410388,-0.017740152387468736,0.07738631860057427,-0.9339576658962139
1.2715723415626774,12.356947822312648,-0.01633303495964139,0.06637752994934588,-0.8239061088199969
1.2683053623149263,12.344141174491323,-0.014781053114178582,0.05559054453945219,-0.7075107235880437
1.2653831125757047,12.333577568504094,-0.013049896783169174,0.04501522676751203,-0.585649563277597
1.262848294211742,12.32521405644048,-0.011091230492666325,0.03463726907643273,-0.45950756728454
1.2607561621595473,12.319010518616807,-0.008833836671092788,0.024444043529959263,-0.3305201977634179
1.2591815261958361,12.314927694256234,-0.006162696316632101,0.014439997999323618,-0.20022917302372106
1.258235499067126,12.312918579643366,-0.0028470858615595777,0.004694426885117835,-0.07004698315865221
