x,y,v_x,v_y,omega
2.375,32.48,0.0,2.1538461538461537,-5.795918367346939
2.3743195603944005,32.095781784413866,-0.00756044006221687,2.1152451304441784,-5.5447209522161796
2.3723499914843695,31.718418236911354,-0.01432365893812539,2.0776831751393092,-5.3089409677253805
2.36922784772338,31.34772689952612,-0.020366827295095292,2.041109462474395,-5.087297743939157
2.365076531314735,30.983534134501387,-0.025758910578735986,2.0054768155781915,-4.8786404594744
2.3600076801362064,30.625674500528927,-0.030561658071582752,1.9707413396713602,-4.681932740106549
2.3541223898838792,30.273990190678965,-0.03483045584316456,1.9368621031059894,-4.496239357475604
2.347512293008143,29.92833052413096,-0.03861506499834383,1.9038008585385315,-4.320714702238903
2.34026051350605,29.588551485029118,-0.041960262802693396,1.871521798148579,-4.154592762901152
2.3324425137453537,29.254515302787322,-0.04490640120504245,1.8399913378713777,-3.997178387358915
2.324126847103372,28.92609006899705,-0.047489894816978795,1.8091779264650167,-3.8478396413038856
2.3153758282122836,28.60314938678186,-0.049743648417333954,1.7790518759259752,-3.706001107857964
2.3062461309362505,28.28557204901865,-0.051697432427480816,1.749585210331897,-3.571137997569326
2.2967893228050724,27.973241742329954,-0.053378213474497886,1.720751530653638,-3.442770958274582
2.2870523434465238,27.66604677415974,-0.05481044606493205,1.6925258934598513,-3.3204614911822716
2.277077933556935,27.363879820590633,-0.05601633048605014,1.6648847017524382,-3.203807893529731
2.266905020096368,27.066637692853973,-0.05701604129802973,1.6378056064326585,-3.09244165984122
2.256569062665954,26.774221120734637,-0.05782793015101266,1.6112674171155044,-2.9860242835939848
2.24610236540042,26.486534551286955,-0.05846870613269727,1.58525002119211,-2.8842444093199355
2.235534358171839,26.203485961462306,-0.058953596407093176,1.5597343101928725,-2.7868152921068963
2.22489185043762,25.924986683407997,-0.05929648952867549,1.534702112632777,-2.6934725273356395
2.2141992606653345,25.650951241334408,-0.059510063496717155,1.5101361326293292,-2.6039720184764983
2.203478823919803,25.381297198966937,-0.059605900342520085,1.486019893675894,-2.518088155018589
2.192749886660987,25.115950725557745,-0.05960451364432714,1.4622742553151387,-2.4334415512098384
2.1820285579907126,24.85484053317531,-0.05952136046983435,1.4389501044896935,-2.3523813711616555
2.171328864292269,24.597892047825603,-0.059364125068430244,1.41603306606262,-2.274715016262085
2.1606635082497228,24.345033225982935,-0.05913983095985916,1.3935093988559017,-2.2002622054707537
2.1500439824882505,24.09619444374512,-0.05885489972316311,1.3713659593420666,-2.12885405826436
2.139480673136919,23.851308392293774,-0.05851520418051995,1.3495901678951063,-2.0603322554140058
2.128982954270741,23.610309979218748,-0.05812611655479346,1.3281699773829665,-1.9945482701644959
2.118559274090499,23.373136235302766,-0.05769255211455827,1.307093843905694,-1.9313626631754721
2.108217233611493,23.139726226396018,-0.0572190087632901,1.2863506995026301,-1.8706444352812133
2.097963658554664,22.910020970040556,-0.05670960297924953,1.2659299266691453,-1.8122704327421169
2.087804665064374,22.68396335653186,-0.05616810246842117,1.2458213345386153,-1.7561248002065402
2.0777457198153635,22.461498074129487,-0.05559795585391937,1.2260151365988623,-1.7020984770856742
2.0677916950163326,22.242571538151395,-0.055002319690864505,1.2065019298243527,-1.6500887334741083
2.0579469187682786,22.027131823706743,-0.054384083065295304,1.1872726751162321,-1.5999987421313016
2.0482152211916174,21.81512860184061,-0.053745890008714915,1.168318678951922,-1.5517371833800555
2.0385999766965983,21.606513078881015,-0.053090159935942405,1.1496315761546676,-1.505217880082243
2.029104142736022,21.401237938793987,-0.052419106292685494,1.1312033137012025,-1.4603594601238232
2.019730295347449,21.199257288366535,-0.051734753580342394,1.1130261354926927,-1.4170850440843281
2.0104806617634354,21.000526605050354,-0.05103895290869986,1.095092568020438,-1.375321955983847
2.0013571503425567,20.805002687310797,-0.05033339621217765,1.0773954068635003,-1.335001455195927
1.9923613780507927,20.61264360733663,-0.04961962925186305,1.0599277039605806,-1.2960584877902963
1.9834946957019015,20.4234086659759,-0.04889906351359694,1.0426827556031335,-1.2584314557270948
1.974758211146529,20.23725834977253,-0.04817298710165286,1.0256540911009353,-1.2220620024663365
1.9661528105827648,20.054154289986684,-0.04744257471794843,1.0088354620751654,-1.1868948136843247
1.9576791781454186,19.87405922348954,-0.0467088968081207,0.992220832337552,-1.1528774319042236
1.9493420274617304,19.697175159668674,-0.04592611078841722,0.9731576545609449,-1.1715740807500097
1.941142840445304,19.52371229851624,-0.04517596717187448,0.9542074693549585,-1.1918708399606295
1.9330758064783642,19.353650561210102,-0.04445774357190016,0.9353673896021613,-1.2136473174296294
1.9251352508284398,19.186970377484723,-0.04377065253837102,0.9166346517909264,-1.2367851530320206
1.9173156458432246,19.02365266368475,-0.04311384729735424,0.8980066126532307,-1.2611677599921847
1.9096116211570582,18.863678801384335,-0.04248642699338303,0.8794807462402532,-1.2866800691167113
1.902017972995866,18.707030616493686,-0.041887441464308416,0.8610546414336291,-1.3132082748183593
1.8945296726622687,18.553690358774247,-0.04131589557566141,0.8427259998934402,-1.3406395818465302
1.8871418742779955,18.403640681683573,-0.04077075313848415,0.8244926344474024,-1.3688619516210125
1.8798499218566789,18.25686462246967,-0.04025094043170125,0.8063524679292777,-1.397763847039061
1.8726493557765707,18.113345582432984,-0.039755349347279145,0.7883035324783496,-1.4272339745908187
1.8655359187196883,17.973067307271503,-0.039282840173636244,0.7703439693159017,-1.4571610225743261
1.8585055611413615,17.836013867421354,-0.03883224402999679,0.7524720290190955,-1.4874333941485087
1.8515544463321176,17.702169638301058,-0.038402364961598684,0.7346860723175122,-1.5179389339001794
1.8446789551323177,17.571519280362615,-0.03799198170284432,0.7169845714429866,-1.5485646465288228
1.8378756903589282,17.444047718846512,-0.03759984911259469,0.699366112069293,-1.5791964061703463
1.8311414810033408,17.31974012313064,-0.03722469928281962,0.6818293958848409,-1.6097186547877673
1.8244733862592044,17.198581885554603,-0.03686524231869883,0.6643732438488992,-1.640014087952728
1.817868699439873,17.080558599591093,-0.03652016678498282,0.6469966001901102,-1.6699633262268043
1.8113249518463306,16.965656037224605,-0.03618813980993073,0.6296985372153013,-1.6994445702260808
1.804839916648341,16.8538601253846,-0.03586780683439974,0.6124782610069894,-1.7283332373171951
1.7984116128441792,16.745156921265,-0.03555779098961908,0.5953351180996529,-1.7565015777494535
1.7920383093676628,16.639532586344615,-0.035256692082785104,0.578268603237971,-1.783818267878147
1.7857185294153803,16.53697335890305,-0.03496308516479902,0.5612783683349625,-1.810147977982702
1.7794510550721239,16.437465524804104,-0.03467551864916141,0.544364232764449,-1.8353509120356117
1.7732349323186358,16.340995386292644,-0.03439251194515054,0.5275261951406671,-1.8592823166428285
1.7670694765130066,16.24754922852174,-0.03411255256183916,0.51076444675825,-1.881791956265966
1.7609542784455505,16.15711328349356,-0.0338340926321176,0.4940793868882367,-1.9027235517691417
1.7548892110768826,16.069673691060103,-0.033555544797527266,0.4774716401501562,-1.92191417933407
1.748874437080441,15.985216456588024,-0.03327527738515765,0.46094207620630123,-1.9391936268920293
1.7429104173240608,15.903727404844823,-0.032991608796844256,0.44449183205150666,-1.9543837054811393
1.7369979204407202,15.825192129612272,-0.03270280101804901,0.4281223371990477,-1.9672975134229567
1.7311380336566233,15.749595938476347,-0.032407052138585295,0.4118353420890108,-1.977738652023101
1.7253321750658381,15.676923792182311,-0.03210248775902801,0.39563295006695354,-1.985500392775561
1.7195821075654516,15.607160237879857,-0.03178715113415429,0.37951765329366155,-1.990364797984238
1.7138899546944906,15.540289335518384,-0.03145899187652283,0.36349237294491055,-1.9921017995807966
1.7082582186549753,15.476294576590313,-0.031115853006980124,0.3475605040336554,-1.9904682450970297
1.702689800836161,15.415158794366345,-0.03075545609095666,0.331725965121524,-1.9852069257783467
1.6971880252158678,15.356864064729969,-0.03037538413452572,0.3159932530604378,-1.9760456104539843
1.6917566650795894,15.301391596712698,-0.029973061824120715,0.3003675026870286,-1.9626961210631004
1.6863999735844921,15.248721611877617,-0.029545732565849914,0.28485455103607904,-1.944853503151193
1.681122718810034,15.198833211827406,-0.029090431594794675,0.2694610050773752,-1.922195369263922
1.6759302240929332,15.151704233369955,-0.028603954150771375,0.2541943111165102,-1.8943815278509748
1.6708284146617678,15.10731109132676,-0.028082817306622054,0.23906282269676385,-1.8610540590230398
1.6658238718970368,15.065628609712721,-0.027523213412611217,0.22407586190366202,-1.8218380666941858
1.6609238969948459,15.026629843188491,-0.026920952167288487,0.20924376614334278,-1.7763434315086801
1.6561365864828284,14.99028589247995,-0.026271386855126956,0.19457790839600014,-1.7241680197642815
1.651470923044643,14.956565720134826,-0.025569318013599816,0.18009067321647587,-1.6649029814144927
1.6469368866403677,14.925435976882156,-0.024808864256124444,0.16579536292431712,-1.5981410066862218
1.6425455932531041,14.896860854380787,-0.023983284491250343,0.15170599820200106,-1.523488713545595
1.638309472191746,14.870801987694762,-0.023084727301616516,0.1378369649760706,-1.4405847005447023
1.634242498412346,14.847218440638816,-0.022103870247272672,0.1242024467566554,-1.3491251777843078
1.630360504797466,14.82606681879924,-0.021029392140279716,0.1108155736830822,-1.2488993565541007
1.6266816122455623,14.807301566620282,-0.01984719176976299,0.09768722830534732,-1.1398366446027413
1.6232268349770465,14.790875511256075,-0.01853922232485779,0.08482449796363024,-1.0220665771101072
1.6200209481553594,14.776740705578806,-0.017081742360553934,0.07222889845048962,-0.8959893103500943
1.6170937514888568,14.764849574326792,-0.015442665045030926,0.05989478212745406,-0.762348045286467
1.6144819432603859,14.755156245026008,-0.013577426382423057,0.04780887677014537,-0.622283920433302
1.6122319901357232,14.74761769332526,-0.011422052780498296,0.03595280879370408,-0.4773401417969869
1.6104048464827454,14.742193840610117,-0.008879543363697721,0.024312221374536928,-0.32937218501196897
1.6090850665600471,14.738844558569902,-0.005784677999617436,0.01290202351673735,-0.18032646353387927
1.608406073850421,14.737516069220884,-0.0017596854406730696,0.0018589692501391319,-0.0319044836383357
