x,y,v_x,v_y,omega
2.375,32.48,0.0,3.128205128205128,-7.510204081632653
2.373262153190209,31.86188862729705,-0.0173784680979102,3.05290859882434,-7.021482813869334
2.3683080116860196,31.258512329753977,-0.032162946943981856,2.9808543766063824,-6.580490708214059
2.36061905135148,30.669246131779435,-0.04472665640141329,2.911807603139047,-6.181155817578301
2.350607995020792,30.093509522829613,-0.05538390690546795,2.845558486359156,-5.818327867819104
2.3386295522781837,29.530761815533822,-0.06440052052061493,2.7819185865987732,-5.487616886102744
2.324989282786139,28.980498175988668,-0.07200217439983446,2.7207178088527533,-5.1852639005012255
2.309950951953666,28.442246200971752,-0.07838113392489726,2.66180194131642,-4.9080365476142775
2.293742666093174,27.915562944723664,-0.08370172468002073,2.6050306211644476,-4.653144207630748
2.2765620128708237,27.400032318806517,-0.08810480754348035,2.550275638007046,-4.4181685791817635
2.2585803861883798,26.895262804314257,-0.09171145928095961,2.4974195069155156,-4.201006556538003
2.2399466387354505,26.4008854277527,-0.09462601524833478,2.4463542587000653,-3.999822978457762
2.2207901775574364,25.916551961196483,-0.09693859653180567,2.396980406862128,-3.8130113494707367
2.201223596115497,25.441933314564746,-0.09872721788758662,2.3492060594552164,-3.6391610380824075
2.1813449190297276,24.976718093542825,-0.10005955297010906,2.3029461507640097,-3.4770297658563365
2.16123952193438,24.520611301185042,-0.100994417983366,2.2581217728137917,-3.325520440579063
2.14098177784353,24.073333164838083,-0.10158302292513477,2.2146595906558444,-3.1836615731100735
2.1206364725312867,23.634618072929307,-0.1018700301972988,2.172491328431884,-3.0505906637842224
2.100260024219204,23.20421360852449,-0.10189445292352652,2.13155331561629,-2.9255400597683647
2.079901536986927,22.781879668490213,-0.10169041939924416,2.091786084726488,-2.8078248765955447
2.0596037125108966,22.367387658687896,-0.10128782536106279,2.0531340132966975,-2.696832650493032
2.0394036407799807,21.96051975694662,-0.10071289194809506,2.0155450041160483,-2.5920144470962185
2.019333487171109,21.561068236664514,-0.099988644140624,1.9789701987050177,-2.492877199767297
1.9994210905618575,21.16883484481457,-0.09913532195188898,1.9433637197944609,-2.398977089379572
1.9796904849067132,20.783630228913353,-0.09817073459955251,1.9086824392176622,-2.309913808918238
1.9601623548264118,20.40527340817585,-0.09711056620346128,1.8748857681573827,-2.2253255820167754
1.9408544341886775,20.033591284647134,-0.09596864017388135,1.8419354671297798,-2.1448848257172517
1.9217818553400146,19.668418190588838,-0.09475714831274853,1.8097954734531827,-2.068294365198427
1.9029574555382855,19.30959546881791,-0.09348684970454103,1.778431744256083,-1.9952841226601234
1.8843920461991188,18.95697108305866,-0.09216724368712768,1.7478121133364086,-1.9256082145455817
1.8660946497766597,18.61039925568482,-0.09080672053746272,1.7179061604020018,-1.859042401273605
1.8480727084270154,18.269740130503894,-0.0894126929589788,1.6886850914072598,-1.79538184199949
1.830332268031306,17.934859458477295,-0.08799171099811522,1.6601216288587408,-1.734439113918841
1.8128781406683663,17.60562830448164,-0.08654956263128208,1.6321899110977947,-1.6760424615070855
1.7957140482114171,17.2819227734034,-0.08509136193821049,1.6048653996846123,-1.6200342460415058
1.778842749367311,16.963623754024084,-0.083621626502851,1.5781247941085557,-1.5662695699383709
1.7622661521719891,16.65061667929956,-0.08214434545036874,1.5519459531366935,-1.5146150539833803
1.7459854136938087,16.342791301767072,-0.08066303933143593,1.5263078221881858,-1.464947748544445
1.730001028470941,16.040041482929432,-0.07918081289723918,1.5011903661882195,-1.4171541624185293
1.7143129070146494,15.742264995569307,-0.07770040166567678,1.476574507413009,-1.3711293951506167
1.698936639384139,15.449367986518642,-0.07606227463942823,1.4523955830936544,-1.3221240223328818
1.6838855071297016,15.161259867802276,-0.07444904790494548,1.4286856040700207,-1.2753429341830815
1.6691544430316712,14.877848523852169,-0.07286159307536065,1.4054278354310497,-1.2306588896561999
1.6547382249040605,14.599045109343447,-0.07130058820074477,1.3826063096561894,-1.1879533096129384
1.6406315118932477,14.324763900166516,-0.06976654190738264,1.3602057821131015,-1.147115593165299
1.626828876231126,14.054922152990422,-0.06825981471383478,1.3382116896478458,-1.1080424952068118
1.6133248309737072,13.78943997282407,-0.0667806378603525,1.316610112015654,-1.0706375590161397
1.6001138541930442,13.528240188030104,-0.06532912994627833,1.2953877359240016,-1.034810598495612
1.5871904100350527,13.27124823228963,-0.06390531163363597,1.2745318214807593,-1.00047722519821
1.5745489670073463,13.018392033055644,-0.06250911864342819,1.254030170859081,-0.9675584158181638
1.562184013818647,12.769601906068974,-0.06114041324356559,1.2338710990076145,-0.9359801162806786
1.5500900730539617,12.524810455543232,-0.05979899440328674,1.2140434062498169,-0.905672878973174
1.5382617129368406,12.283952479655266,-0.0584846067679245,1.1945363526298416,-0.8765715300205403
1.5266935574010967,12.046964881004804,-0.057196948589514025,1.1753396338747781,-0.8486148638260886
1.515380294668878,11.813786581731911,-0.05593567873267501,1.156443358854148,-0.8217453623831488
1.5043166845094973,11.584358443003737,-0.054700422861131116,1.1378380284276044,-0.7959089371140233
1.4934975643335948,11.358623188602891,-0.05349077889789331,1.1195145155808672,-0.7710546912170264
1.4829178542596748,11.13652533236899,-0.0523063218413063,1.1014640467581638,-0.7471347007019402
1.4725725612745797,10.918011109262483,-0.051146608009645114,1.0836781843069048,-0.7241038124722858
1.4624567825957568,10.703028409836083,-0.0500111787785834,1.0661488099571146,-0.7019194579718488
1.4525657083310493,10.491526717913942,-0.04889956386849217,1.0488681092642924,-0.6805414810551208
1.442894623520996,10.283457051292512,-0.04781128423204081,1.031828556950001,-0.6599319788686454
1.4334389096391065,10.078771905289553,-0.04674585458685245,1.015022903079587,-0.6400551546443805
1.4241940456171296,9.877425198979484,-0.04570278563291778,0.9984441600211084,-0.6208771814085837
1.4151648061980013,9.67955069708044,-0.04458960855836432,0.9803008589693374,-0.6381403207566163
1.40635318885208,9.485293187605933,-0.043526564900848046,0.9622742357757245,-0.6573116781205726
1.3977492844366857,9.294629656597607,-0.0425124792530953,0.9443610743075282,-0.678271121662683
1.3893434237863547,9.107537720248267,-0.04154612725021517,0.9265582891858599,-0.7009015565260904
1.381126186919369,8.923995599260707,-0.04062624141964191,0.9088629206897312,-0.7250886547543683
1.3730884111277026,8.743982094180264,-0.03975151649702065,0.8912721301146928,-0.7507205929458372
1.3652211980533386,8.567476561611784,-0.03892061424661924,0.8737831955701001,-0.7776877965277608
1.3575159198465405,8.394458891234574,-0.038132167821361175,0.8563935082019821,-0.8058826895604426
1.3499642244949757,8.224909483531235,-0.037384785694286694,0.8391005688314124,-0.8351994489982305
1.3425580404065334,8.058809228147972,-0.036677055190136386,0.8219019850012128,-0.8655337623435138
1.335289580323241,7.896139482805172,-0.03600754564278837,0.8047954684268043,-0.8967825876309141
1.3281513446388178,7.736882052677483,-0.03537481120144255,0.7877788328500817,-0.9288439146719094
1.3211361241881026,7.581019170162637,-0.03477739330570934,0.7708499922983838,-0.9616165264748838
1.3142370025728214,7.428533474957401,-0.034213822847102456,0.7540069597539818,-0.9949997597317797
1.307447358084928,7.279407994357694,-0.0336826220318308,0.7372478462430837,-1.028893263229772
1.3007608652860239,7.133626123697667,-0.0331823059572105,0.7205708603571865,-1.0631967530042492
1.294171496299158,6.991171606839572,-0.03271138391144758,0.7039743082237715,-1.0978097629973262
1.287673521867618,6.852028516622404,-0.03226836040395028,0.6874565939478886,-1.1326313899235636
1.2812615122341542,6.716181235172495,-0.03185173593068874,0.6710162205511947,-1.167560030970811
1.2749303378934453,6.583614433973317,-0.03146000747640006,0.6546517914405753,-1.202493112878459
1.2686751702705448,6.454313053584791,-0.031091668752606584,0.6383620124446917,-1.237326810837068
1.26249148237854,6.328262282893945,-0.03074521016744087,0.6221456944637591,-1.2719557555416148
1.2563750495097845,6.205447537769,-0.030419118520114544,0.606001756785703,-1.3062727266047267
1.2503219500168241,6.085854438977361,-0.030111876409489056,0.5899292311307003,-1.340168330395638
1.2443285662416192,5.969468789214677,-0.02982196134255888,0.5739272664961429,-1.3735306602148216
1.2383915856548944,5.856276549076519,-0.029547844524690874,0.5579951348854502,-1.4062449365432503
1.2325080022715134,5.746263811786264,-0.029287989309120313,0.5421322380170893,-1.4381931249195408
1.2266751184127593,5.639416776472068,-0.029040849278419847,0.5263381151248697,-1.4692535287991673
1.2208905468923816,5.5357217197618525,-0.028804865925358247,0.5106124519772801,-1.4993003545400994
1.2151522137103792,5.435164965437863,-0.028578465894666148,0.4949550912625966,-1.5282032454430503
1.20945836134685,5.33773285186081,-0.02836005774062611,0.4793660445079432,-1.5558267815590836
1.2038075527579888,5.243411696837548,-0.028148028147986073,0.4638455057246809,-1.582029941773505
1.1981986761876586,5.152187759565116,-0.027940737555315398,0.4483938669996215,-1.606665524499041
1.1926309509210866,5.064047199236981,-0.027736515110404984,0.43301173628171796,-1.6295795231873285
1.1871039341224028,4.978976029844105,-0.027533652876433543,0.4176999576470255,-1.6506104528306875
1.1816175289152504,4.896960070643349,-0.02733039919509093,0.4024596343605359,-1.6695886237266588
1.1761719938859136,4.817984891698174,-0.027124951098277547,0.3872921550912203,-1.6863353590885861
1.1707679542118008,4.742035753821568,-0.026915445642851595,0.3721992236748491,-1.7006621537109265
1.1654064146452738,4.669097542168544,-0.026699950022417103,0.357182892855409,-1.7123697719870747
1.160088774614508,4.599154692636393,-0.026476450285239206,0.3422456024661092,-1.7212472853434464
1.1548168457403425,4.532191110136932,-0.02624283845641604,0.3273902225284901,-1.7270710519008798
1.149592872112403,4.46819007770981,-0.025996897822980813,0.3126201017427102,-1.7296036453384602
1.1444195537212145,4.407134155355763,-0.025736286088902435,0.29793912179775855,-1.728592746138511
1.1393000735086063,4.349005067393712,-0.025458516037180735,0.2833517578227501,-1.7237700175266275
1.1342381285809613,4.293783577102172,-0.02516093323926978,0.26886314509266085,-1.714850001765121
1.129237966235686,4.241449347419085,-0.024840690213483296,0.2544791517382196,-1.7015290918427879
1.1243044255912518,4.191980786584555,-0.024494716230858228,0.2402064566070748,-1.68348466164809
1.1194429858019306,4.145354877877988,-0.024119681662353662,0.22605263045859117,-1.660374478153201
1.1146598221060984,4.101546993115424,-0.023711955295969485,0.21202621716705877,-1.631836577270106
1.1099618713434358,4.06053069046904,-0.02326755233065626,0.19813680929678956,-1.5974898682939238
1.105356909148281,4.022277498646435,-0.022782069620891354,0.18439510892925107,-1.5569358504384585
1.1008536418910857,3.986756691806896,-0.02225060295106296,0.1708129594661267,-1.5097619924852541
1.0964618177701273,3.9539350631938177,-0.021667638258520236,0.15740332666465418,-1.4555475600192969
1.0921923635291118,3.9237767108603734,-0.021026904151634856,0.14418019666978202,-1.3938729928699145
1.0880575565378439,3.8962428567190663,-0.020321165761044035,0.13115834474327373,-1.3243343526575047
1.0840712471289249,3.8712917311427333,-0.019541928328146108,0.11835291102004379,-1.2465648706932029
1.080249154239527,3.8488785698844943,-0.01867900056583369,0.10577870156236055,-1.160266165541962
1.0766092702656096,3.8289557874820055,-0.01771983917334013,0.09344912246251878,-1.0652520651446458
1.0731724311731183,3.8114734080483643,-0.016648551751572108,0.08137467187390328,-0.9615076709403534
1.0699631392618565,3.796379840662908,-0.01544436736104664,0.06956100198066917,-0.8492643317303372
1.067010775152991,3.783623060704855,-0.01407927372760844,0.05800679759987886,-0.7290858072291715
1.064351416856406,3.7731521589217536,-0.012514309238240064,0.04670222023113471,-0.6019498665376686
1.0620306397096853,3.7649189774936893,-0.010693462228967946,0.03562959404949294,-0.46929201048888014
1.0601080591450402,3.7588790504835146,-0.008532343417483124,0.02476967605225458,-0.3329588745986438
1.0586656896955187,3.7549899683000945,-0.005891351077732381,0.0141211457819641,-0.19501278060518507
1.0578286597568618,3.753201309994189,-0.002478948308837185,0.003765437277088916,-0.057359882598452705
