x,y,v_x,v_y,omega
2.375,32.48,0.0,2.2564102564102564,-2.1224489795918373
2.3745329461040074,31.96650397556572,-0.004061338226022274,2.2087725647573966,-2.0052081309980228
2.373193022688918,31.46377791269336,-0.007590169731277484,2.1627584167413554,-1.8974525807671345
2.371095142748371,30.971458708342883,-0.010652264534348315,2.118278142828003,-1.7981738087431482
2.3683401028874633,30.489203118030158,-0.013304603821372444,2.0752487294565594,-1.7064907861167036
2.3650164563459612,30.016686298211887,-0.01559667045255799,2.033593182006668,-1.6216316143912721
2.3612021130804117,29.553600486384678,-0.017571531856565265,1.9932399643168899,-1.5429181118328068
2.35696571046905,29.099653802592243,-0.01926675172049514,1.9541225034434115,-1.469752827081225
2.3523677906264355,28.654569158406243,-0.020715159954414347,1.9161787503478995,-1.401608059701093
2.3474618141673775,28.218083261404942,-0.021945504906957188,1.879350788793838,-1.338016546696128
2.3422950352502805,27.78994570480301,-0.022983007415625964,1.8435844860055792,-1.278563537088465
2.3369092586311306,27.369918133249833,-0.023849832750895767,1.8088291796742078,-1.222880027121964
2.3313414960924534,26.957773476963073,-0.024565493672384593,1.7750373967324178,-1.1706369692049212
2.325624536835829,26.553295247337992,-0.02514719551565329,1.7421646000073905,-1.121540300450743
2.3197874441302444,26.156276888003017,-0.025610132358993842,1.7101689594271972,-1.0753266632227634
2.313855988602601,25.76652117600234,-0.025967741794428855,1.6790111449265155,-1.0317597117004758
2.307853026969746,25.38383966839793,-0.026231924578220146,1.6486541385901028,-0.9906269161444298
2.301798833686111,25.008052190111318,-0.026413234409913482,1.6190630639021593,-0.9517367910211153
2.2957113918710417,24.638986359284054,-0.026521042242861427,1.5902050302479738,-0.9149164850700093
2.289606648947727,24.276477146834754,-0.0265636788294388,1.5620489910502695,-0.8800096812390956
2.283498741640612,23.920366467239738,-0.026548558623738318,1.534565614123785,-0.8468747625705136
2.277400194315489,23.57050279787007,-0.026482287681678436,1.5077271630037474,-0.8153832068951455
2.271322094085596,23.22674082448718,-0.026370757795655855,1.4815073881518173,-0.7854181788435898
2.2652862978271675,22.888942210663572,-0.026114427060239774,1.4558718624882592,-0.7542750245612257
2.259312213830274,22.55697412264567,-0.025834129434486035,1.4308071637544046,-0.7247223927543139
2.253404956136807,22.2307078455626,-0.025533328769578287,1.4062908978374877,-0.696658557986513
2.2475688867700234,21.910019684651424,-0.0252151005067995,1.3823018057379368,-0.6699895293861686
2.2418077000741756,21.594790712462903,-0.024882175109268934,1.358819691553576,-0.6446283704311014
2.2361244976518386,21.284906532004715,-0.024536976389313278,1.3358253559089066,-0.620494586441377
2.2305218549994588,20.98025705462488,-0.024181655370511715,1.3133005343505362,-0.5975135722720846
2.225001880804478,20.68073629154261,-0.023818120238016084,1.2912278402779027,-0.575616113614184
2.2195662697484946,20.386242158028224,-0.023448062857491844,1.2695907120210903,-0.5547379361057392
2.2142163495576708,20.096676289318523,-0.023072982280105153,1.2483733637154202,-0.5348192971458436
2.2089531229518213,19.811943867430784,-0.022694205596845363,1.2275607396562354,-0.5158046159040578
2.2037773050654206,19.53195345810787,-0.02231290645881622,1.2071384718473732,-0.4976421375417583
2.1986893568455734,19.256616857189798,-0.021930121539854963,1.187092840483686,-0.48028362811909886
2.193689514872443,18.985848945763994,-0.021546765183017933,1.167410737132004,-0.4636840970613752
2.188777817995529,18.71956755349822,-0.021163642442320323,1.1480796303964722,-0.44780154440920594
2.1839541311335906,18.45769332960717,-0.020781460704970472,1.1290875338735151,-0.43259673038470087
2.1792181665460064,18.200149620946526,-0.02040084005663158,1.110422976219053,-0.4180329650763536
2.174569502848257,17.94686235676722,-0.020022322532495123,1.0920749731662207,-0.40407591628362516
2.1700076020133485,17.697759939698322,-0.019646380379751454,1.0740330013459252,-0.3906934337722575
2.1655318245738417,17.452773142559384,-0.019273423442044815,1.0562869737752851,-0.3778553883768714
2.1611414432152154,17.211835010632818,-0.01890380576340329,1.0388272168904806,-0.36553352455146165
2.15683565493019,16.97488076905416,-0.018537831497683753,1.0216444490109253,-0.3537013251136932
2.1526135918850087,16.74184773500283,-0.01817576019954787,1.004729760131084,-0.34233388705774004
2.148474331132178,16.5126752343991,-0.017817811564199565,0.9880745929447861,-0.3314078074248179
2.1444196327010827,16.28740987920535,-0.017440435662714006,0.9707545826530437,-0.3392484334358228
2.1404494574988053,16.066113428835514,-0.0170828269657824,0.953562377084638,-0.349431341862672
2.136559171940351,15.848756927323983,-0.016745743107735765,0.936494157798258,-0.3618289316903596
2.132743987014042,15.63531227898778,-0.01642977799060138,0.9195462625165596,-0.37631767238636243
2.128998994369318,15.425752213354187,-0.01613537544178042,0.9027151777755347,-0.39277781100970915
2.1253191993869494,15.220050251716458,-0.015862841796208598,0.8859975321177573,-0.4110930908919955
2.1216995514697654,15.018180675195875,-0.015612357483652882,0.8693900898003426,-0.4311504807185593
2.118134971774205,14.820118494194794,-0.01538398769513223,0.8528897449916761,-0.4528399128862788
2.1146203785866913,14.625839419130838,-0.015177692196295051,0.8364935164340489,-0.47605403005487884
2.11115071053388,14.435319832347407,-0.014993334349887632,0.8201985425522919,-0.5006879388414737
2.1077209478021652,14.248536761099885,-0.014830689404156142,0.8040020769913803,-0.5266389696334866
2.104326131529291,14.065467851520467,-0.014689452099095482,0.7879014845687946,-0.5538064415131632
2.1009613815195425,13.88609134346758,-0.014569243637848986,0.7718942376302222,-0.5820914312976204
2.097621912423573,13.710386046168107,-0.014469618066235033,0.7559779127999838,-0.611396545701685
2.0943030485145373,13.53833131456226,-0.014390068099292979,0.7401501881204151,-0.6416256956264957
2.0910002371836836,13.369907026262016,-0.014330030429866473,0.7244088405773536,-0.672683871564745
2.0877090612709366,13.20509355903425,-0.014288890550543146,0.7087517440119181,-0.7044769190931617
2.0844252503392022,13.043871768719352,-0.01426598711671287,0.6931768674219664,-0.7369113133939824
2.0811446909951483,12.886222967494923,-0.014260615875059338,0.6776822736600157,-0.7698939317091775
2.077863436353997,12.732128902392144,-0.014272033178428829,0.662266118538074,-0.803331822583475
2.074577714741438,12.581571733969579,-0.014299459104692042,0.6469266503538104,-0.8371319706940138
2.0712839377221006,12.434534015045351,-0.014342080193895483,0.6316622098568548,-0.8712010559949095
2.067978707541118,12.290998669383743,-0.014399051814651693,0.6164712306788535,-0.905445205823161
2.064658824063193,12.150948970226203,-0.01446950016730469,0.6013522402562826,-0.9397697385170759
2.061321291292246,12.014368518549407,-0.014552523927887296,0.5863038612810673,-0.9740788969885491
2.057963323554219,11.881241220924185,-0.014647195533216433,0.5713248137208585,-1.0082755705647841
2.0545823514259847,11.751551266838554,-0.014752562103602767,0.5564139174585482,-1.0422610032720074
2.0511760274945843,11.625283105335743,-0.014867645995529066,0.5415700956093865,-1.0759344865719622
2.0477422320332934,11.50242142080349,-0.014991444972218614,0.52679237858411,-1.109193034380037
2.04427907868434,11.382951107733849,-0.015122931975205155,0.5120799089779846,-1.1419310379904735
2.040784920242594,11.266857244252812,-0.015261054474755502,0.49743194737887025,-1.174039898308104
2.037258354640309,11.154125064195945,-0.015404733371201853,0.4828478792025872,-1.205407632536855
2.033698231240147,11.044739927479295,-0.015552861412818546,0.4683272226813278,-1.2359184522029405
2.03010365755247,10.938687288483582,-0.015704301088719515,0.45386963815095444,-1.2654523090965537
2.026474006503335,10.835952662133515,-0.015857881947233966,0.4394749388061401,-1.2938844054031515
2.022808924392066,10.73652158731214,-0.016012397281194916,0.4251431031188559,-1.3210846639700735
2.01910833969192,10.640379587201668,-0.01616660011137934,0.410874289146111,-1.3469171543264442
2.015372472864518,10.5475121260863,-0.016319198387769476,0.39666885098752147,-1.3712394697604144
2.0116018473786856,10.457904562088089,-0.016468849315119855,0.3825273576925714,-1.3939020504832276
2.007797302147612,10.371542095232865,-0.016614152694214547,0.3684506149615451,-1.414747447713014
2.003960005625205,10.288409710158493,-0.016753643152804407,0.35443969003299114,-1.433609523450565
2.000091471833829,10.208492112681274,-0.016885781120028753,0.34049594020369967,-1.4503125808807058
1.9961935786319605,10.13177365932728,-0.017008942374480442,0.3266210454832021,-1.4646704208432728
1.9922685885725717,10.058238278813484,-0.017121405968032095,0.3128170459411213,-1.4764853208638982
1.9883191727524663,9.98786938432913,-0.017221340293754137,0.2990863843576022,-1.485546935090831
1.9843484381108425,9.920649775322953,-0.01730678702471253,0.28543195482655653,-1.491631116551704
1.980359958704223,9.856561527350724,-0.01737564259806545,0.2718571579754269,-1.4944986680127395
1.9763578115675937,9.795585868388816,-0.01742563685088572,0.2583659634324593,-1.4938940352572427
1.9723466178726101,9.73770303988724,-0.017454308322884617,0.24496298005951736,-1.4895439680710247
1.968331590219826,9.682892140744798,-0.017458975614369227,0.23165353422259952,-1.4811561914984583
1.9643185870635793,9.63113095237938,-0.017436704005165584,0.218443755911481,-1.4684181557639708
1.9603141754820972,9.58239574320201,-0.017384266268591703,0.20534067171782683,-1.4509959716833247
1.9563257037983857,9.536661051184868,-0.017298096198465257,0.19235230234426828,-1.4285336953472973
1.9523613859734756,9.493899443997712,-0.01717423271379511,0.17948776015275647,-1.4006532099939544
1.9484304003050916,9.454081257614266,-0.01700825135910987,0.16675733883372593,-1.366955076760538
1.9445430058925868,9.417174316723365,-0.016795178314846178,0.154172581956724,-1.3270209070291419
1.9407106817752833,9.383143644255295,-0.01652937922692337,0.14174630906997457,-1.280418071309004
1.936946295955769,9.351951173619838,-0.01620441050798196,0.1294925660209612,-1.2267079333706572
1.9332643152523397,9.32355548688701,-0.015812813000101133,0.11742644904712754,-1.165459316392977
1.9296810730386325,9.297911616387005,-0.01534581494517846,0.10556372921379881,-1.0962695904198239
1.9262151220025607,9.27497096723937,-0.014792889716314999,0.09392017641782138,-1.0187965838616997
1.9228877156713358,9.254681444264012,-0.014141078381292579,0.08251045815051106,-0.9328052794480808
1.9197234897584843,9.236987895189028,-0.01337392955654694,0.07134649032762543,-0.8382334050798053
1.916751459074674,9.221833000760967,-0.012469815520064473,0.06043520035116663,-0.7352782692730462
1.9140065192615383,9.209158719859833,-0.011399226333290368,0.049775937919555285,-0.6245009642684725
1.911531769239506,9.19890826761534,-0.010120339075685122,0.03935842942383685,-0.5069295623777625
1.9093822222816357,9.19102824601725,-0.008571373601449475,0.02916349751608839,-0.3841175805921603
1.9076311361787917,9.185469740748417,-0.006655462075455002,0.01917133090855987,-0.2580840374910439
1.9063826845335416,9.18218523299176,-0.004200639187587877,0.00938960610584756,-0.13105026885233806
1.9058102702853315,9.181108800314298,-0.0007768760142398603,-2.932195401490756e-05,-0.004964723730265602
