x,y,v_x,v_y,omega
2.375,32.48,0.0,2.6666666666666665,-6.408163265306122
2.3737626227981976,31.95240472102512,-0.012373772018023324,2.6092861230821245,-6.04622373110753
2.370213236572483,31.43607499225,-0.023120090239121767,2.5540111646690766,-5.714519010576982
2.3646569278842917,30.930602915869486,-0.03244299664279355,2.5007095991360524,-5.40972234654981
2.3573607834061328,30.435605812804116,-0.040518448138794766,2.4492614315176215,-5.12894632516927
2.3485590725528165,29.950723939838483,-0.04749866039436704,2.3995572981387174,-4.8696756973705515
2.3384576372863153,29.4756184940406,-0.053515692270647126,2.351497159840137,-4.629711899247733
2.3272376259468235,29.0099698577507,-0.05868442112426854,2.304989203058826,-4.407126974207804
2.3150586812646914,28.553476046552095,-0.06310502569705294,2.259948908927242,-4.200225104042793
2.3020616718801494,28.10585132973287,-0.06686506814836764,2.216298259264966,-4.007510337686246
2.288371040297313,27.666824998311736,-0.07004124767999606,2.1739650549464193,-3.8276593981341906
2.2740968271744233,27.236140260098388,-0.07270088354890136,2.13288232718706,-3.6594986730339842
2.25933642142821,26.813553244760563,-0.07490317391323237,2.0929878261911674,-3.501984669494503
2.2441760772281416,26.398832104678,-0.07670026808744984,2.0542235746344724,-3.3541873509139966
2.228692232139977,25.991756199631997,-0.0781381827941946,2.016535475825548,-3.2152758820052534
2.2129526551152963,25.59211535522371,-0.07925758745261653,1.9798729682572975,-3.084506394367341
2.197017448459271,25.199709186423917,-0.0800944791076354,1.9441887197406627,-2.9612114538912784
2.1809399241449072,24.81434647890041,-0.08068076403600404,1.9094383554944216,-2.8447909667612064
2.164767371723638,24.435844621799575,-0.0810447601766852,1.8755802155139278,-2.7347043056954092
2.1485417324877254,24.06402908651735,-0.08121163218244311,1.842575137308314,-2.6304634745696993
2.132300192372794,23.69873294671465,-0.0812037689668713,1.8103862607187107,-2.5316271593869333
2.1160757042720033,23.339796435438856,-0.08104111204103503,1.7789788520392085,-2.4377955380310734
2.0998974489049225,22.987066535726864,-0.0807414416297746,1.7483201450807224,-2.348605741415257
2.08379124209425,22.64039660150243,-0.08032062647694578,1.7183791971636344,-2.2637278753233767
2.067779895211574,22.29964600595485,-0.07979284234981553,1.689126758312187,-2.182861526106112
2.051883534626364,21.964679814907303,-0.07917076350228405,1.660535152163241,-2.105732684945316
2.0361198852033406,21.63536848296068,-0.07846573072795157,1.6325781673029982,-2.0320910350620167
2.0205045222199605,21.311587570438917,-0.07768789910584796,1.6052309579146469,-1.9617075543484876
2.0050510954997223,20.993217479371125,-0.07684636809653378,1.5784699527632569,-1.8943723927253082
1.9897715290630544,20.680143206928186,-0.07594929627014535,1.5522727716661224,-1.8298929892802782
1.9746761991731134,20.372254114891494,-0.07500400262926574,1.526618148700811,-1.7680923991172
1.9597740932883063,20.069443713872175,-0.07401705621880474,1.5014858614923619,-1.7088078039757995
1.9450729521179673,19.771609461123155,-0.07299435548458755,1.4768566659978308,-1.651889184200191
1.9305941584598547,19.47865783325735,-0.07179358109653566,1.4526596126601854,-1.5927792815588637
1.9163561553833859,19.190498581976083,-0.07058644966815424,1.4289329001525073,-1.536359527576807
1.9023598994660595,18.90703932402974,-0.06937610950510888,1.405659679310947,-1.4824756361797644
1.888605755067399,18.628190968199167,-0.06816533448149632,1.3828238789947653,-1.4309838510460242
1.875093565223799,18.353867564253576,-0.06695656395450388,1.360410160461139,-1.3817501122389424
1.8618227149935267,18.08398616071092,-0.06575193834821755,1.3384038749654072,-1.334649297667177
1.8487921880686635,17.81846667078263,-0.06455333090041585,1.3167910243175023,-1.289564531866877
1.8360006173779824,17.557231745935745,-0.0633623760063967,1.2955582241513652,-1.246386555431176
1.823446330323162,17.300206656551875,-0.062180494541805395,1.2746926696873162,-1.205013149142798
1.8111273892188813,17.047319179204344,-0.06100891650100186,1.254182103787999,-1.1653486075085981
1.7990416274439989,16.798499490112846,-0.059848701247822156,1.2340147871269567,-1.1273032569618318
1.787186681755129,16.553680064369615,-0.05870075564087737,1.2141794703053848,-1.090793014498609
1.775560021164528,16.312795580562337,-0.05756585026513183,1.1946653677673866,-1.0557389829577786
1.7641589727405307,16.075782830447867,-0.05644463397484145,1.1754621333773205,-1.022067079545645
1.752980744650094,15.842580633356661,-0.055337646929524933,1.1565598375347523,-0.9897076945547525
1.7420224467287353,15.61312975503186,-0.054245332284062434,1.1379489457132663,-0.9585953775348764
1.7312811088327384,15.387372830628625,-0.053168046675906876,1.1196202983190735,-0.9286685484491074
1.7207536972015038,15.165254291619306,-0.052106069636437005,1.1015650917741038,-0.8998692315925596
1.7104371290339193,14.946720296368277,-0.051059612039407946,1.0837748607361788,-0.8721428102693817
1.7003282854612758,14.731718664157057,-0.050028823687029135,1.066241461376032,-0.8454378004184944
1.6904240230802512,14.52019881245571,-0.0490138001232164,1.0489570556374403,-0.8197056415525535
1.6807211841925447,14.312111697250703,-0.048014588753848106,1.0319140964126325,-0.7949005035304161
1.671216605882635,14.107409756252387,-0.047031194345249834,1.0151053135705113,-0.7709791078229532
1.6619071280516595,13.906046854817326,-0.04606358396450366,0.9985237007801055,-0.7479005620572421
1.6527978621698687,13.708160027720762,-0.04502907485340427,0.9803445701855356,-0.7618828377609429
1.6438910864810454,13.513897165422733,-0.044038682034828816,0.9622840527947597,-0.7778503340090107
1.6351780629389756,13.323234874347829,-0.0430915533858678,0.9443388579542826,-0.7956799188684575
1.6266502306496413,13.13615040553935,-0.04218676950747496,0.9265058301304915,-0.8152516024481035
1.618299218638307,12.952621628164724,-0.04132335060587086,0.9087819436157738,-0.8364482617699888
1.6101168572998015,12.772627004032845,-0.040500262779181694,0.8911642977030113,-0.859155373624721
1.602095188646719,12.596145563031364,-0.03971642375164339,0.8736501123117885,-0.8832607542854359
1.5942264754621571,12.42315687939492,-0.038970708093976084,0.8562367240526525,-0.9086543049811813
1.5865032094562568,12.253641048717782,-0.03826195196502816,0.8389215827187345,-0.9352277620487589
1.5789181185191064,12.087578665626207,-0.03758895740647618,0.8217022481970233,-0.962874450692425
1.5714641731565364,11.924950802027045,-0.0369504962192205,0.8045763877946077,-0.9914890412833381
1.5641345921899035,11.765738985849755,-0.03634531344711049,0.7875417739783094,-1.0209673071251522
1.556922847796118,11.609925180198989,-0.03577213049074423,0.7705962825293513,-1.0512058825985109
1.5498226699599145,11.457491762834245,-0.03522964787129003,0.7537378911180921,-1.0821020205751462
1.542828050406631,11.30842150589169,-0.03471654766154713,0.7369646783074522,-1.1135533479614972
1.5359332460805986,11.162697555761195,-0.03423149559877571,0.7202748229975099,-1.1454576181918439
1.5291327822316054,11.020303413028653,-0.03377314289115645,0.7036666043279177,-1.1777124594414188
1.5224214551697837,10.881222912389926,-0.033340127727061394,0.6871384020593407,-1.2102151172702886
1.5157943347477172,10.74544020243798,-0.0329310764936029,0.6706886974601274,-1.2428621903383954
1.509246766627542,10.612939725218972,-0.03254460470814773,0.6543160747299636,-1.2755493577503856
1.5027743743903665,10.483706195446132,-0.03217931766360688,0.6380192229984342,-1.308171096495098
1.4963730615454751,10.357724579251958,-0.03183381078530607,0.6217969389433178,-1.3406203873381959
1.4900390134975376,10.234980072349508,-0.03150666969407004,0.6056481300811973,-1.372788407406876
1.4837686995314532,10.115458077462218,-0.031196469966775834,0.5895718187917093,-1.404564207572456
1.4775588748765753,9.999144180868385,-0.03090177658200256,0.5735671471466266,-1.4358343725897846
1.4714065829149272,9.886024127891108,-0.030621143034478136,0.5576333826261499,-1.4664826617920828
1.4653091576017052,9.77608379714675,-0.030353110097742123,0.5417699248174379,-1.4963896279669187
1.4592642261709563,9.66930917334453,-0.030096204209745396,0.5259763132047571,-1.5254322118553036
1.4532697122048899,9.565686318406367,-0.02984893545092066,0.5102522361768741,-1.5534833095245795
1.4473238391519478,9.465201340649113,-0.02960979507849943,0.4945975413956724,-1.58041130967195
1.4414251343866553,9.367840361740477,-0.029377252574424133,0.4790122476906706,-1.6060795977271274
1.4355724339135139,9.273589481104679,-0.029149752156991716,0.4634965586673242,-1.6303460234515357
1.429764887827992,9.182434737413661,-0.02892570869822647,0.44805087824286133,-1.653062328595451
1.4240019666601955,9.09436206675418,-0.028703502979737786,0.43267582835194507,-1.6740735310989303
1.418283468741297,9.00935725700943,-0.028481476209248152,0.417372269095538,-1.6932172623443515
1.4126095287495941,8.927405897935923,-0.028257923707781952,0.4021413216395184,-1.7103230541407786
1.4069806276124872,8.848493326351576,-0.028031087663286738,0.38698439420396474,-1.7252115725187327
1.4013976039631924,8.772604565779385,-0.027799148829662397,0.37190321151796113,-1.7376937961459
1.3958616673772248,8.699724259813035,-0.02756021703001231,0.3568998481455507,-1.7475701383927709
1.3903744136443976,8.629836598387314,-0.027312320298259442,0.34197676611166977,-1.7546295139995947
1.3849378423683325,8.562925236049587,-0.02705339246239182,0.3271368572655847,-1.7586483542313303
1.3795543772287977,8.498973201242752,-0.02678125893295635,0.312383490802777,-1.7593895787949358
1.3742268892946925,8.437962795531678,-0.026493620408095327,0.29772056630794574,-1.7566015392589227
1.3689587238403464,8.37987548164519,-0.026188034135365978,0.2831525725569359,-1.7500169581496152
1.3637537311996741,8.32469175918084,-0.025861892271356206,0.2686846520865632,-1.7393519015716572
1.3586163022987536,8.272391026856916,-0.025512396737848258,0.2543226711526977,-1.7243048429203351
1.3535514096485237,8.222951430335051,-0.02513652976445035,0.24007329406593797,-1.7045559035913331
1.3485646547726047,8.17634969493852,-0.024731018994739017,0.22594405989938707,-1.6797663971908625
1.3436623233175191,8.132560943145759,-0.02429229555611639,0.21194345802821807,-1.649578861725023
1.3388514494862345,8.091558497679504,-0.02381644275672934,0.19808099663431875,-1.6136178467079418
1.3341398920183871,8.05331367253196,-0.02329913192174374,0.1843672548411237,-1.571491838724942
1.3295364248193329,8.017795556641225,-0.022735540068797883,0.17081390406621602,-1.5227968723387122
1.3250508466870852,7.9849707985433085,-0.022120241253679167,0.15743367691295884,-1.4671225987081606
1.3206941166750936,7.95480340566662,-0.02144705886623574,0.14424025185390774,-1.4040618879936344
1.3164785248940922,7.927254579611336,-0.02070885894377858,0.131248008698941,-1.3332254338426988
1.3124179136805627,7.902282619352459,-0.01989725319151563,0.1184715938898371,-1.2542632969699807
1.3085279721005216,7.879842938071398,-0.01900216260889605,0.10592521892077199,-1.1668957985694284
1.3048266393254015,7.859888255371683,-0.018011165142303727,0.0936216080763837,-1.0709564461285555
1.301334671927983,7.842369041266995,-0.016908508831881497,0.08157053297048401,-0.9664491640059021
1.2980764602842982,7.827234291828535,-0.01567360760496728,0.06977696141410283,-0.8536200520785421
1.2950812263015166,7.814432687813309,-0.014278732222848723,0.058239078738148806,-0.7330386120489308
1.2923848124887027,7.803914088064243,-0.012685405905288464,0.046946918752513056,-0.6056729396504709
1.290032422618762,7.795631075206199,-0.010838492794118628,0.03588320982793036,-0.4729272942985145
1.2880830499028602,7.78953979464724,-0.008655234364900543,0.025029595761666357,-0.33659363253086555
1.2866175910790074,7.785598289404781,-0.005999353873627619,0.014385456662923728,-0.1986643932401826
1.2857587730905717,7.783756781124911,-0.0025888260107284978,0.004029626135782324,-0.06098332511168958
