x,y,v_x,v_y,omega
2.375,32.48,0.0,3.641025641025641,-3.3469387755102042
2.3740605785153277,31.761519503705127,-0.009394214846724338,3.543779321923061,-3.097288942123506
2.3714035715111215,31.06202445312502,-0.017175855195338124,3.451171183878027,-2.8757837372551784
2.3673248242279388,30.380621580712393,-0.023611617636488752,3.3628575402482332,-2.678353268523988
2.3620716052726447,29.71648293191759,-0.028920571916449058,3.2785289476998014,-2.501618256320757
2.3558512026245175,29.068839454410465,-0.03328345456482245,3.197905827371438,-2.342757642358842
2.3488378584475833,28.436975393062127,-0.03684998720452186,3.120734786111941,-2.199404288509349
2.341178392280849,27.820223364352337,-0.039744674462821594,3.046785500985962,-2.0695622538688014
2.332996782494072,27.217960008053716,-0.04207142340495049,2.9758480620002365,-1.9515407729757055
2.3243979157956063,26.629602132725008,-0.043917243579701816,2.90773069128685,-1.8439012513361988
2.3154706688908657,26.054603286165328,-0.045355225467707844,2.8422577743099477,-1.745414473733828
2.306290451407349,25.49245069356006,-0.04644694936745837,2.7792681517427313,-1.6550258745479418
2.296921312237507,24.94266251531933,-0.047244442330960076,2.7186136306645667,-1.5718272093497427
2.287417690536885,24.404785384105757,-0.04779177467525822,2.6601576814711367,-1.4950333371830926
2.277825876299819,23.878392186663447,-0.04812636769540627,2.6037742929519747,-1.4239631045002075
2.2681852326375673,23.36308006108984,-0.048280068927107,2.549346962784131,-1.3580235373373006
2.258529221793843,22.858468584359503,-0.048280039510135646,2.496767804519218,-1.296696714466456
2.2488862689384734,22.364198128385066,-0.048149489043560034,2.4459367552251545,-1.23952882305507
2.2392804914167135,21.879928365817715,-0.04790828617403942,2.3967608704483507,-1.1861209987635983
2.2297323160442875,21.405336909251798,-0.04757346755022148,2.3491536952108176,-1.1361216308948412
2.220259002953628,20.940118069586312,-0.047159663356374996,2.3030347014440498,-1.0892198751849977
2.2108750912040493,20.483981721075914,-0.046679454139410825,2.2583287836599153,-1.0451401658823227
2.2015927787039504,20.03665226212749,-0.04614367086157671,2.214965805824333,-1.0036375577678496
2.192422246828764,19.59786766220744,-0.04556164789028656,2.172880193376149,-0.9644937599301877
2.183371938354074,19.167378586354232,-0.04494143685661292,2.1320105651559516,-0.9275137480993886
2.1744487958802132,18.744947589768127,-0.04428998788199563,2.0922994007050972,-0.8925228624753433
2.165658466740366,18.330348375799016,-0.04361330351647713,2.053692738986017,-0.8593643142642584
2.157005479409229,17.92336511139255,-0.042916569794895325,2.016139905078637,-0.827897037349845
2.148493395624163,17.5237917947008,-0.042204268055761385,1.9795932618388967,-0.7979938322904545
2.1401249417639625,17.131431670129345,-0.04148027054624746,1.9440079838756237,-0.7695397586343489
2.1319021224765042,16.74609668658968,-0.04074792232833145,1.9093418515210046,-0.7424307387654694
2.123826319085281,16.367606995163023,-0.040010111583902,1.8755550627455895,-0.716572342435047
2.1158983749195737,15.995790482767696,-0.03926933007317149,1.8426100612076624,-0.6918787260417936
2.1081186693905343,15.630482338763485,-0.03852772521722452,1.810471378834435,-0.6682717047882994
2.100487182364728,15.2715246517287,-0.037787145040839236,1.7791054915134066,-0.6456799392184122
2.093003550158951,14.918766033914338,-0.037049177016931584,1.7484806866302138,-0.6240382204543576
2.085667114288069,14.572061271118557,-0.036315181691885176,1.7185669413276052,-0.6032868408037512
2.078476963935299,14.231270995937646,-0.0355863218358147,1.6893358104815155,-0.5833710383768874
2.0714319729768436,13.896261382539802,-0.03486358774873961,1.6607603234969108,-0.5642405060100083
2.0645308322760827,13.566903861278103,-0.03414781925886792,1.6328148891200862,-0.5458489561845792
2.0577720778632393,13.243074851611386,-0.033439724869565604,1.6054752075470797,-0.5281537348100783
2.0511541155318285,12.92465551193855,-0.03273989844454493,1.5787181891812676,-0.5111154777346032
2.0446752423109507,12.611531505074598,-0.03204883376423466,1.552521879458248,-0.4946978046934612
2.038333665210681,12.303592778207388,-0.03136693723846113,1.526865389213844,-0.478867046125385
2.0321275175848306,12.000733356273766,-0.03069453902004081,1.5017288301223928,-0.4635919988993575
2.026054873409879,11.702851147783708,-0.03003190272947753,1.4770932547781987,-0.44884370751907976
2.0201201047569417,11.409848351657875,-0.029315783799892917,1.4529347064801434,-0.43282698598685504
2.0143268689909215,11.12163065844117,-0.02861657386030875,1.4292422256869142,-0.41753474978084526
2.0086718072679735,10.838106501674094,-0.027934043369171786,1.4059993419838306,-0.4029257196572451
2.003151609514642,10.559187534696115,-0.027267934164141857,1.3831903277959516,-0.3889614137481824
1.9977630196235427,10.284788486282856,-0.026617964746854718,1.360800156336623,-0.37560592789029956
1.9925028396630518,10.014827024411119,-0.02598383485805418,1.3388144623807665,-0.3628257355016037
1.98736793323379,9.749223627608732,-0.02536522943456425,1.3172195056430898,-0.35058950506676934
1.98235522808758,9.487901463388344,-0.024761822027535567,1.2960021365607888,-0.33886793350300487
1.977461718109725,9.230786273302485,-0.02417327775101343,1.2751497642978002,-0.32763359386528784
1.9726844647525337,8.97780626419236,-0.023599255820899497,1.25465032680344,-0.31686079601448497
1.9680205979967822,8.728892005234762,-0.023039411736615594,1.2344922627725208,-0.30652545901739675
1.9634673169080152,8.483976330420816,-0.02249339915105405,1.2146644853669504,-0.29660499417652003
1.9590218898460527,8.242994246127072,-0.021960871468569645,1.1951563575704858,-0.2870781977013929
1.954681654378625,8.005882843464132,-0.021441483205708784,1.1759576690589275,-0.2779251521345861
1.9504440169435564,7.772581215110474,-0.020934891144975838,1.1570586144776458,-0.26912713573530334
1.9463064522982476,7.543030376360001,-0.020440755308114105,1.138449773027079,-0.2606665391035152
1.9422665027902308,7.317173190130813,-0.019958739772051367,1.1201220892647916,-0.2525267883987628
1.9383217774782497,7.09495429570034,-0.019488513347760934,1.1020668550399204,-0.24469227457126758
1.9344699511294974,6.876320040948105,-0.019029750139761138,1.0842756924824404,-0.23714828807967217
1.9307087631153443,6.66121841790229,-0.018582130001769916,1.0667405379756993,-0.22988095862040678
1.9270360162249571,6.449599001400102,-0.018145338902104093,1.0494536270461727,-0.2228771994390163
1.9234495754136738,6.241412890684543,-0.01771906921072861,1.0324074801094159,-0.21612465583440252
1.9199473665007623,6.036612653772021,-0.017303019918387487,1.0155948890157906,-0.2096116575033648
1.9165273748292275,5.835152274436066,-0.016896896796958716,0.9990089043437582,-0.2033271744055291
1.9131910096684288,5.637154264246963,-0.01646675481102848,0.9809711975472551,-0.2304576843924465
1.9099371959857108,5.442752677626128,-0.016071382016151593,0.9630446686611012,-0.25922557571153276
1.9067590403877372,5.2519255780191685,-0.015710173963584165,0.9452263274084947,-0.28952473556763614
1.9036497769148042,5.064651615515146,-0.015382460765745173,0.9275132976317219,-0.3212514532586518
1.900602779487818,4.880910004443404,-0.015087513504117554,0.9099028130857103,-0.3543041927809572
1.8976115731285503,4.7006805017742685,-0.014824550088558274,0.8923922136056568,-0.38858337038905
1.894669844059087,4.523943386249911,-0.014592740606075625,0.8749789416379169,-0.423991136206282
1.891771448779115,4.350679438173547,-0.014391212193644759,0.8576605391257333,-0.46043115898877646
1.8889104222131172,4.180869919786595,-0.014219053466332452,0.8404346447438003,-0.497808413143219
1.8860809850135978,4.014496556164403,-0.014075318528862294,0.8232989914781292,-0.5360289670910361
1.883277550101137,3.851541516561568,-0.013959030595745854,0.8062514045502341,-0.5749997720562522
1.8804947285173417,3.6919873961378116,-0.013869185242208057,0.7892897996873303,-0.6146284503316976
1.8777273346625887,3.5358171979947706,-0.013804753305320225,0.7724121817430646,-0.6548230820477956
1.8749703909868571,3.383014315452833,-0.013764683451996065,0.7556166436763213,-0.695491989429363
1.8722191321988797,3.2335625144953077,-0.0137479044277776,0.7389013658989138,-0.7365435174780892
1.8694690090563408,3.0874459163047625,-0.013753326997612158,0.7222646160065365,-0.7778858099609001
1.8667156917978727,2.944648979812982,-0.01377984558706902,0.7057047489112731,-0.81942657951641
1.8639550732762022,2.8051564841820245,-0.013826339629634513,0.6892202073982996,-0.8610728706121897
1.8611832718509564,2.668953511128766,-0.013891674622824278,0.6728095231342742,-0.9027308139935255
1.8583966340993916,2.536025426999302,-0.013974702892825487,0.6564713181603512,-0.9443053711585457
1.8555917374036899,2.406357864492378,-0.014074264064190874,0.6402043069089045,-0.9857000672736986
1.8527653924745,2.279936703922484,-0.014189185227707802,0.6240072987900216,-1.0268167108061572
1.849914645872138,2.1567480539033035,-0.014318280795911617,0.6078792014017669,-1.0675550979942654
1.8470367825893719,2.0367782313203975,-0.014460352031750195,0.5918190244272855,-1.1078127001020237
1.8441293287630391,1.9200137404484465,-0.014614186231576603,0.5758258842922105,-1.1474843312072454
1.8411900545859932,1.8064412510524477,-0.014778555538882287,0.5598990096677706,-1.1864617940538598
1.8382169774961141,1.6960475752937967,-0.014952215359908703,0.544037747918723,-1.224633501255596
1.8352083657254827,1.5888196432408215,-0.015133902346405164,0.5282415726110467,-1.2618840688700421
1.8321627423004185,1.4847444767584612,-0.015322331904237289,0.5125100922125573,-1.2980938790686773
1.8290788895920764,1.3838091615231463,-0.01551619517918221,0.4968430601406096,-1.3331386083108876
1.8259558545278638,1.2860008168755606,-0.01571415546294514,0.4812403863352551,-1.3668887170910002
1.8227929545862644,1.1913065631856306,-0.015914843953048083,0.4657021505640597,-1.3992088969725243
1.8195897847119995,1.0997134863595512,-0.01611685478960157,0.4502286176967236,-1.4299574702627014
1.8163462253050526,1.0112085990674622,-0.0163187392798682,0.4348202552241519,-1.4589857373288508
1.813062451456294,0.9257787982112369,-0.01651899920771528,0.41947775333810194,-1.48613726624042
1.8097389436245996,0.8434108180839992,-0.016716079109229738,0.4042020479342787,-1.5112471191747798
1.8063764999759215,0.7640911785951907,-0.016908357377550857,0.3889943469538011,-1.5341410099072592
1.8029762506342792,0.6878061278463186,-0.017094136038872672,0.3738561605349194,-1.5546343868010137
1.7995396741286998,0.6145415782420685,-0.017271629016920535,0.35878933550757497,-1.5725314361447664
1.7960686163595971,0.544283035208764,-0.017438948674105316,0.34379609482546486,-1.5876240016397458
1.7925653124539163,0.47701551746728654,-0.017594090382703112,0.3288790825893162,-1.599690417580767
1.7890324119319585,0.4127234676720022,-0.017734914836876566,0.3140414153635378,-1.6084942562056086
1.785473007671948,0.35139065208426956,-0.017859127763227015,0.29928674051375875,-1.6137829943814108
1.7818906692336949,0.2930000478054282,-0.017964256619303495,0.2846193022746886,-1.6152866121076783
1.7782894811938759,0.23753371596156825,-0.018047623778888827,0.27004401616388646,-1.612716146492917
1.7746740872581555,0.1849726591315317,-0.018106315578315404,0.2555665521364526,-1.6057622417448638
1.7710497410582682,0.13529666127300288,-0.01813714642055585,0.24119342644885364,-1.5940937610093446
1.767422364729006,0.08848410848371913,-0.01813661687206609,0.2269321014440122,-1.5773565635827016
1.763798616612879,0.044511789219754405,-0.018100864289202587,0.21279109119562772,-1.555172606956623
1.7601859697950442,0.0033546732131171098,-0.01802560388914773,0.19878006887075247,-1.5271396158812673
1.7565928036873746,-0.03501433050964664,-0.01790605718754665,0.18490996835688905,-1.492831682530441
1.753028511657335,-0.07062463409787512,-0.01773686311284957,0.1711930675253834,-1.4518013405319146
1.7495036289005645,-0.10350824410846116,-0.01751196445485454,0.15764303258051074,-1.4035839153634477
1.7460299866649893,-0.13370003647666806,-0.0172244579008982,0.14427489110152733,-1.3477053259431546
1.7426209020187515,-0.16123801401359827,-0.01686638856148008,0.1311048842677965,-1.283695033278691
1.7392914174029257,-0.186163514970751,-0.016428457596777662,0.11815012530373589,-1.211106530549668
1.7360586125366433,-0.2085213237054404,-0.015899591066046187,0.10542796204316056,-1.1295486314191807
1.732942025008896,-0.22835961117186088,-0.015266284211426635,0.09295491262101901,-1.0387316967808586
1.7299642386023653,-0.24572960581704706,-0.014511579853882328,0.08074503383082551,-0.9385333798698035
1.7271517356902966,-0.2606848731804092,-0.013613449266803069,0.0688076398027762,-0.8290873100835419
1.7245361713597362,-0.27328008888466826,-0.012542194038799572,0.05714451723979529,-0.7108929862753894
1.7221563308219432,-0.2835692774807441,-0.011256211339129938,0.04574736872093276,-0.58493210477495
1.7200612284763515,-0.2916037581384856,-0.009694812116788583,0.03459743785651424,-0.45275186603747924
1.7183152824761487,-0.29743066154424724,-0.007764647885240144,0.023671596201100147,-0.31644267204514426
1.7170081159540724,-0.3010943109357811,-0.005307017335520522,0.012964897714244736,-0.17841656721902777
1.716280064176038,-0.3026480510521097,-0.0019735004448236584,0.0025725034490224306,-0.040928189744023236
