x,y,v_x,v_y,omega
2.375,32.48,0.0,2.769230769230769,-4.6938775510204085
2.374234880862003,31.98661206834924,-0.008501323755524356,2.712857360222098,-4.444655823536366
2.3720352322518243,31.50320198614887,-0.015939216357571243,2.6583657753375483,-4.214848564543817
2.3685811655736653,31.02944044359708,-0.022439302288638115,2.6056513641268193,-4.002463081462433
2.364031632953975,30.565016230842254,-0.028111060152369912,2.5546176664823532,-3.805751066197686
2.3585271263654723,30.109634842100945,-0.03305012416432385,2.505175541754372,-3.623174184045643
2.3521919952830506,29.663017225695775,-0.037340221195915096,2.4572424183030757,-3.4533751211494783
2.345136442703694,29.224898660181204,-0.041054807463606485,2.4107416429699597,-3.295153125621823
2.337458248951829,28.795027740051186,-0.04425845644599965,2.3656019140302487,-3.147443266141395
2.3292442642891134,28.373165457196073,-0.04700803980639893,2.3217567843598954,-3.0092987799439985
2.3205717045247547,27.959084366440628,-0.04935373535314322,2.2791442240339346,-2.8798759991976297
2.311509278251247,27.552567825259747,-0.05133988990804955,2.2377062335314175,-2.75842143788468
2.302118169757832,27.153409299216964,-0.05300576001878746,2.1973885002772797,-2.644260695851367
2.292452897903346,26.76141172586749,-0.054386149475501376,2.15814009249464,-2.53678889667314
2.2825620681071364,26.37638693086226,-0.05551195937126945,2.1199131853412396,-2.4354624245171888
2.2724890320196263,25.998155090821335,-0.05641066382328685,2.0826628151135176,-2.3397917646393727
2.2622724672662127,25.626544238244584,-0.05710672232575369,2.0463466579614686,-2.24933528437746
2.2519468878421267,25.261389804319244,-0.05762193794187135,2.0109248300979132,-2.1636938179345133
2.241543094209528,24.90253419598662,-0.05797576908700467,1.9763597069312122,-2.0825059400149435
2.231088570861247,24.549826404060056,-0.05818560144944997,1.9426157589195123,-2.0054438313727405
2.220607838027435,24.203121639554617,-0.058266985592901804,1.9096594022520388,-1.9322096542642249
2.2101227632787057,23.862280995707103,-0.058233844948535264,1.8774588627203608,-1.8625323682307553
2.1996528379949023,23.527171133439946,-0.05809865820483781,1.8459840513591412,-1.7961649270225846
2.189215423000034,23.197663988261915,-0.05787261951591901,1.8152064506189933,-1.732881806177674
2.178825967092693,22.873636496807144,-0.05756577945454025,1.7850990099895703,-1.6724768180832899
2.1684982017121,22.554970341396952,-0.057187169218710435,1.7556360501236605,-1.6147611775127049
2.158244314560145,22.24155171116942,-0.05674491024745735,1.726793174626675,-1.5595617858391777
2.1480751046387203,21.933271078463395,-0.056246311101707934,1.6985471887736134,-1.5067197065439601
2.138000120850543,21.630022989268774,-0.05569795321137203,1.6708760244999474,-1.4560888083852308
2.1280277860429924,21.33170586666605,-0.055105766872524616,1.6437586710859196,-1.4075345557882921
2.1181655081420896,21.038221826276757,-0.054475098693059276,1.6171751110172985,-1.360932928743116
2.108419779822339,20.749476502834707,-0.0538107715263899,1.591106260561041,-1.316169456827122
2.0987962679832717,20.46537888706636,-0.05311713779658377,1.565533914642803,-1.2731383539702235
2.0892998941514644,20.185841172139487,-0.052398127001274296,1.540440695655798,-1.2317417422967496
2.0799349067943353,19.91077860900235,-0.0516572880779407,1.5158100058679698,-1.1918889548575347
2.070704946416419,19.640109369992757,-0.05089782723223558,1.4916259831274907,-1.1534959083409968
2.0616170337674427,19.37375664731186,-0.050078979978614296,1.4678487133269111,-1.1147221641975606
2.052676759835097,19.111646187270885,-0.04925739704744809,1.444489731572824,-1.0775858177186575
2.0438844606316104,18.85370395498451,-0.04843481632462672,1.4215350716091162,-1.041999348662255
2.035240177146952,18.59985837625331,-0.04761277794935535,1.3989713587375743,-1.007880797023016
2.0267436891473767,18.350040233942792,-0.04679264426815005,1.3767857780459671,-0.9751533532035751
2.0183945455663648,18.104182569897972,-0.04597561774309379,1.3549660446742504,-0.943744982445793
2.010192091836375,17.862220592040366,-0.04516275703456704,1.3335003759657909,-0.9135880803241427
2.002135494472447,17.62409158632071,-0.044354991453524895,1.3123774653637112,-0.8846191564325722
1.9942237631855624,17.389734833224786,-0.0435531339563023,1.29158645792437,-0.8567785436883497
1.9864557707743007,17.159091528551823,-0.042757892835496365,1.271116927330756,-0.8300101309360767
1.9788302710172034,16.93210470820521,-0.04196988224336048,1.2509588542983137,-0.8042611167661418
1.971345914765086,16.70871917675365,-0.041189631669055315,1.231102606274539,-0.7794817826678097
1.9640012644118707,16.48888143953819,-0.04041759447778266,1.21153891834169,-0.7556252838208549
1.9567948069041448,16.27253963811591,-0.039654155608058704,1.192258875239222,-0.7326474559937608
1.949724965433252,16.059643488845754,-0.038899638512973234,1.1732538944291697,-0.7105066371632727
1.9427901099390987,15.850144224435095,-0.038154311422063145,1.154515710133719,-0.689163502601509
1.9359885665418097,15.643994538277887,-0.03741839299225845,1.136036358279691,-0.6685809122946313
1.9293186260056865,15.441148531426645,-0.036692057409110454,1.1178081622896734,-0.6487237696627877
1.92277855132949,15.241561662050806,-0.03597543899307447,1.0998237196640959,-0.6295588906460146
1.9163665845477222,15.04519069724379,-0.035268636359897895,1.0820758893027433,-0.6110548823061889
1.9100809528192149,14.851993667049921,-0.03457171617907369,1.0645577795180095,-0.5931820301720171
1.9039198738718175,14.661929820590686,-0.033884716569786394,1.0472627366957135,-0.5759121936233407
1.8978815608652604,14.474959584177444,-0.03320765016973801,1.0301843345625126,-0.5592187086735507
1.8919642267282066,14.291044521304848,-0.03254050690863714,1.0133163640218938,-0.5430762975653494
1.8861660880200866,14.110147294425769,-0.03188325651491806,0.9966528235234465,-0.5274609846461191
1.880490370854778,13.93245460761343,-0.03118026754406616,0.977710363280332,-0.5615123624257146
1.8749371777158739,13.758162097878017,-0.030521878443757425,0.9588730782242384,-0.5968424011624963
1.869498607177367,13.587251070432089,-0.02990668309520847,0.9401383378416213,-0.6333452724137236
1.8641670127846028,13.419703294528663,-0.02933325460216958,0.9215036166409033,-0.670916703375322
1.8589350065049612,13.255500984798932,-0.028800148504959114,0.9029664914672159,-0.7094537464454905
1.8537954616314525,13.094626783039896,-0.028305905645140243,0.8845246391887568,-0.7488545501758821
1.8487415152002815,12.93706374038495,-0.027849054701202716,0.8661758347550744,-0.7890181306100515
1.843766569980001,12.782795299790248,-0.0274281144130242,0.8479179496305091,-0.8298441419867636
1.8388642960868968,12.631805278768681,-0.027041595510355024,0.8297489506091185,-0.8712326457554379
1.8340286322787382,12.484077852301994,-0.02668800235807313,0.8116668990207258,-0.9130838768120071
1.8292537869769494,12.339597535859408,-0.02636583432846904,0.7936699503413174,-0.9552980058152098
1.8245342390656387,12.198349168448448,-0.026073586908318035,0.7757563542249154,-0.9977748963851835
1.8198647385147544,12.060317895620155,-0.025809752545952552,0.7579244549783519,-1.04041385591741
1.8152403068739347,11.925489152346643,-0.025572821240933626,0.7401726925051229,-1.0831133786647618
1.8106562376833921,11.793848645683699,-0.025361280876205674,0.7224996037498002,-1.1257708796476578
1.8061080968484542,11.665382337124981,-0.02517361728977163,0.7049038246804145,-1.1682824178461648
1.801591723025183,11.540076424546982,-0.025008314079909055,0.6873840928529071,-1.2105424070071678
1.797103228065866,11.417917323635383,-0.02486385213472359,0.6699392506093023,-1.2524433122633771
1.7926389975751384,11.298891648673262,-0.024738708873359785,0.6525682489698199,-1.293875330607799
1.788195691630119,11.182986192559977,-0.02463135718241314,0.6352701522888999,-1.3347260530962994
1.7837702457212756,11.070187905915915,-0.024540264026956315,0.6180441437562187,-1.374880106461144
1.7793598719748553,10.960483875112573,-0.024463888711046614,0.600889531836473,-1.414218771609251
1.7749620607226815,10.853861299049232,-0.024400680757551797,0.5838057577562135,-1.4526195762502452
1.7705745824910633,10.750307464476538,-0.024349077371539542,0.5667924041626111,-1.4899558586518988
1.7661954904875539,10.64980971964308,-0.02430750044523289,0.5498492050980144,-1.5260962992560407
1.7618231236724844,10.552355446013234,-0.02427435305553792,0.5329760574558438,-1.5609044166101977
1.7574561105117308,10.457932027772479,-0.02424801539728126,0.5161730341080942,-1.5942380237853842
1.753093373518198,10.366526818799695,-0.024226840086414896,0.49944039892282766,-1.625948641168787
1.7487341347022558,10.278127106743675,-0.024209146757387126,0.4827786239218422,-1.655880861257373
1.7443779220660214,10.19272007379291,-0.02419321586744044,0.466188408864461,-1.6838716608585287
1.740024577293274,10.11029275367262,-0.024177281607528342,0.44967070358319516,-1.7097496559621317
1.7356742648061894,10.030831984340463,-0.024159523804525847,0.43322673344076995,-1.7333342945370218
1.7313274823823999,9.954324355781534,-0.02413805868202407,0.41685802832511193,-1.754434982699467
1.7269850735516161,9.880756152223942,-0.024110928326684128,0.40056645564813653,-1.7728501402119339
1.7226482420207363,9.81011328800792,-0.02407608868309234,0.3843542578632387,-1.7883661822562131
1.7183185684108517,9.742381236244714,-0.024031395871179344,0.3682240950612553,-1.800756426115193
1.7139980296298067,9.677544949297719,-0.023974590584877574,0.3521790932386878,-1.8097799241232846
1.7096890212514015,9.615588770010234,-0.02390328028628911,0.3362228988444578,-1.8151802284841707
1.7053943833289225,9.556496332497534,-0.023814918852369686,0.3203597401855504,-1.8166840999955554
1.7011174301392595,9.500250451224517,-0.023706783254994868,0.3045944961813271,-1.8140001823601202
1.6968619844387418,9.44683299701974,-0.023575946750756766,0.288932772760623,-1.8068176780407093
1.692632416919386,9.396224758656299,-0.02341924790875278,0.27338098683317946,-1.7948050826205197
1.6884336916946352,9.348405288698373,-0.023233254588478268,0.25794645714378467,-1.77760906537041
1.6842714188326366,9.303352732529088,-0.02301422165595063,0.24263750029269784,-1.754853628555722
1.680151915217953,9.261043639931493,-0.022758040729422193,0.22746352856946817,-1.726139743182239
1.676082275400009,9.221452759428104,-0.022460179469953833,0.21243514369041908,-1.6910457532780232
1.6720704546445782,9.184552817001222,-0.02211560670150246,0.1975642166082466,-1.649128976891108
1.6681253672510021,9.150314283117492,-0.021718697671564695,0.18286393765541337,-1.599929126714468
1.6642570045090206,9.11870513559688,-0.02126311057267452,0.1683488125736061,-1.5429744485726196
1.660476578733928,9.089690631390113,-0.020741620261688323,0.15403456750158595,-1.4777918575371092
1.656796703109038,9.063233108516553,-0.02014588668153395,0.13993790887130042,-1.403922862226922
1.6532316223452306,9.039291851106185,-0.01946612180521398,0.12607606235499236,-1.3209477101099973
1.6497975176654893,9.017823066292646,-0.018690596858578122,0.1124659911287856,-1.228520896792347
1.6465129232737752,8.998780041151207,-0.017804896382691882,0.09912317710943196,-1.126421731963809
1.6433993132814604,8.982113567479477,-0.016790770198583573,0.08605986368758911,-1.0146234559317544
1.640481952746149,8.967772731525198,-0.015624346860430537,0.07328275802663616,-0.8933821860326374
1.6377911620275516,8.95570614043034,-0.014273327790652282,0.060790476360666756,-0.7633404560290659
1.6353642373187403,8.945863549148573,-0.012692502307251422,0.048571648992321366,-0.625626228197266
1.6332484533933629,8.938197578338507,-0.010816207974720726,0.0366058044528525,-0.4819055532913244
1.6315060425261052,8.93266463198714,-0.008543912772585063,0.02487137722898031,-0.33432188731397294
1.6302236963065795,8.929222792088126,-0.0057043785554798734,0.013371288315618816,-0.1852472523706016
1.6295380878925274,8.927819053505509,-0.0019134927117644951,0.002225807046779101,-0.03682040363749062
