x,y,v_x,v_y,omega
2.375,32.48,0.0,3.5384615384615383,-2.2448979591836737
2.374319663053534,31.746988704012114,-0.006479399490151492,3.442598423327834,-2.0743603880391954
2.3723978699764436,31.033621143023353,-0.011823391720231707,3.3513783479936947,-1.923433454618594
2.369452911092078,30.338958620765204,-0.01622383574991642,3.2644551973219866,-1.7892286915101296
2.3656664591892635,29.662131533292698,-0.019837610943556155,3.181517064320938,-1.6693561315656982
2.3611901847247885,29.00233263130094,-0.022793574432397563,3.1022820022672355,-1.561827304213083
2.3561510678190545,28.35881110693547,-0.025198015146021623,3.0264944202610446,-1.4649790690875022
2.3506556859440746,27.730867382237566,-0.02713895509188279,2.9539220054332915,-1.3774134129925306
2.344793691775321,27.117848498265282,-0.02868956080100775,2.8843530800170343,-1.2979495656887088
2.338640647219189,26.519144021231867,-0.029910863543104828,2.817594320301222,-1.2255856874158426
2.332260342911698,25.934182395822376,-0.03085393938538202,2.753468778836752,-1.1594680418907335
2.3257067044752193,25.362427686997023,-0.031561664771560104,2.691814162357111,-1.0988660591724717
2.319025365316184,24.803376660661897,-0.032070136743062166,2.632481326548819,-1.043152059897515
2.3122549691369985,24.25655616103003,-0.032409826868227215,2.5753329556594617,-0.9917846890584131
2.3054282524323084,23.7215207486441,-0.03260652270024918,2.520242400397027,-0.9442953174417034
2.298572947161539,23.197850568145377,-0.03268209892612705,2.467092651971753,-0.9002768291793972
2.2917125358770694,22.685149419150118,-0.03265515140215458,2.415775433697384,-0.859374337077386
2.2848668853444303,22.183043007191436,-0.03254152033726485,2.366190394480546,-0.8212774626151071
2.2780527797420183,21.691177354724346,-0.032354723495232635,2.318244390920294,-0.7857138915274897
2.2712843705870656,21.209217354772242,-0.0321063160757452,2.2718508467187775,-0.7524439737147536
2.2645735573830654,20.736845451993112,-0.031806190629017954,2.2269291797491513,-0.7212561816461588
2.2579303104530215,20.273760437826795,-0.03146282775235383,2.183404288501472,-0.6919632772690765
2.2513629453824597,19.819676348002112,-0.031083506252995195,2.14120609078126,-0.6643990658558676
2.244878356844782,19.37432145207671,-0.03067447982012335,2.100269108508261,-0.6384156378571059
2.238482218240164,18.93743732588826,-0.030241125938146412,2.06053209328647,-0.6138810179362398
2.232179152485769,18.508777998840984,-0.029788071722760143,2.0219376881162052,-0.5906771549045928
2.2259728784007073,18.08810916886113,-0.029319300515918405,1.9844321212157057,-0.5686981980046036
2.219866336395246,17.67520747864831,-0.028838242393237814,1.947964928430184,-0.5478490144848689
2.213861796569611,17.269859847542982,-0.028347851184238895,1.912488701144395,-0.528043911126875
2.207960951828873,16.871862853938673,-0.027850670156124573,1.8779588569919021,-0.5092055286764122
2.2021649982072553,16.481022163701645,-0.02734888814499271,1.8443334309797872,-0.4912638832829961
2.1964747042521147,16.097152000531185,-0.026844387618253796,1.8115728849293307,-0.47415553327997184
2.190890471032098,15.720074654608943,-0.026338785905712328,1.7796399333777366,-0.45782285312241455
2.185412384095425,15.349620026252918,-0.025833470634029805,1.7484993842986951,-0.44221339917979396
2.1800402585044987,14.985625201617122,-0.025329630231937135,1.7181179931850756,-0.427279354467867
2.174773677905465,14.62793405776678,-0.02482828023504761,1.6884643291991515,-0.41297704138949803
2.1696120284503477,14.276396894715905,-0.024330286004165563,1.6595086522377354,-0.39926649320964025
2.1645545282705,13.9308700922431,-0.02383638237533696,1.6312227998842201,-0.3861110763741984
2.1596002530996787,13.591215789505704,-0.023347190680105212,1.6035800833290992,-0.3734771569434645
2.1547481585599564,13.257301585655252,-0.022863233507725192,1.5765551914371019,-0.36133380538696996
2.1499970995515016,12.929000259820803,-0.02238494752517807,1.5501241022243168,-0.34965253480945585
2.1453458471258524,12.606189508973426,-0.021912694623863874,1.5242640010840567,-0.3384070683730702
2.140793103170004,12.288751702317064,-0.021446771622309308,1.4989532051669978,-0.3275731322700167
2.1363437797742373,11.97657397246892,-0.020927736908805377,1.4741680314820143,-0.31542713985062504
2.1320021654282337,11.669547655988094,-0.020420971148367578,1.4498921254782502,-0.3038569191872046
2.1277656957195292,11.367567770545236,-0.019926359410724813,1.426106783501348,-0.2928281983277374
2.123631833566484,11.070533168931327,-0.019443756332566002,1.4027941842501586,-0.2823091321921978
2.1195980750553662,10.778346359229129,-0.018972991392361346,1.3799373367231431,-0.2722701035820561
2.1156619542452453,10.490913335533328,-0.018513873465933327,1.3575200318082894,-0.26268354267076843
2.1118210470816914,10.208143418485196,-0.01806619475839108,1.335526797221525,-0.2535237630622755
2.108072974541586,9.929949104946743,-0.017629734194994463,1.313942855525651,-0.24476681272242923
2.104415405115167,9.656245926193009,-0.017204260342325174,1.2927540849861145,-0.23639033827912487
2.100846056717462,9.386952314050081,-0.016789533921534167,1.2719469830417605,-0.22837346135436865
2.0973626981091478,9.12198947445092,-0.016385309967172787,1.2515086321883566,-0.22069666573865476
2.0939631498964046,8.861281267921651,-0.015991339678002033,1.2314266680903936,-0.21334169434751982
2.09064528517021,8.604754096548131,-0.015607372000042603,1.2116892497526397,-0.2062914550142788
2.0874070298376375,8.35233679700638,-0.015233154976836465,1.192285031597364,-0.19952993427368937
2.0842463626908514,8.103960539271505,-0.014868436897318116,1.1732031373061984,-0.19304211838034144
2.0811613152535204,7.859558730648125,-0.014512967267738455,1.154433135297429,-0.1868139208843915
2.0781499714391884,7.6190669247912695,-0.014166497630659207,1.1359650157202272,-0.18083211615712713
2.0752104670516074,7.382422735410657,-0.01382878225106704,1.1177891688570474,-0.17508427832085693
2.0723409891531017,7.149565754373068,-0.013499578687080533,1.0998963648342612,-0.16955872509272799
2.0695397753236073,6.920437473937813,-0.01317864826048601,1.082277734549124,-0.16424446610110993
2.066805112830015,6.694981212878666,-0.012865756440393495,1.0649247517284839,-0.1591311552768743
2.0641353377228544,6.473142046262836,-0.012560673151612108,1.0478292160413123,-0.15420904696086904
2.061528833875059,6.254866738673211,-0.012263173017870993,1.0309832371932006,-0.14946895540369468
2.058984031975566,6.040103680674591,-0.011973035548728,1.0143792199365265,-0.14490221736501033
2.056499408488771,5.828802828338073,-0.011690045277888809,0.9980098499350589,-0.14050065754745594
2.054075727750466,5.621044789218875,-0.01139262842024935,0.9806381416763611,-0.16063927028494251
2.0517118021102663,5.416922866353769,-0.011120949105467291,0.9633801713246609,-0.18262366043643674
2.049402222585469,5.216413505150239,-0.01087504636879252,0.9462327925184882,-0.20634725634310816
2.047141582569597,5.0194937991735,-0.01065485854427454,0.9291929786885399,-0.23170631875331174
2.044924498068367,4.8261414655099095,-0.01046023194362954,0.9122578181075607,-0.2585997165249702
2.04274562618527,4.6363348211298465,-0.010290928847768993,0.8954245093216016,-0.28692870899265777
2.0405996819959524,4.450052760171662,-0.010146634860016384,0.8786903569468258,-0.31659673415744277
2.0384814539407254,4.267274732071332,-0.010026965665954433,0.8620527678182308,-0.3475092018760189
2.0363858178554923,4.0879807204651435,-0.009931473241027692,0.8455092474788084,-0.37957329123857014
2.034307749753123,3.91215122279489,-0.009859651543444647,0.8290573969998069,-0.41269775133215486
2.032242337459773,3.7397672305467964,-0.009810941726551203,0.812694910124898,-0.44679270458807374
2.0301847912038116,3.570810210056692,-0.009784736901657045,0.796419570733229,-0.48176945190756704
2.028130453248815,3.4052620838147547,-0.00978038647926185,0.7802292506185617,-0.5175402787500623
2.0260748066565513,3.243105212203485,-0.00979720011372478,0.764121907584018,-0.554018261351791
2.02401348326088,3.0843223756024543,-0.009834451273623484,0.7480955838543676,-0.5911170722195692
2.0219422709291295,2.928896756792657,-0.009891380457333412,0.7321484048103706,-0.6287507840144706
2.0198571201836857,2.7768119235920636,-0.009967198070700001,0.7162785780524391,-0.6668336709025126
2.017754150253252,2.6280518116521527,-0.01006108698104988,0.7004843928038672,-0.7052800064037333
2.0156296546205295,2.482600707342698,-0.010172204759166711,0.684764219667135,-0.7440038567164756
2.0134801061309044,2.3404432306488587,-0.01029968561821519,0.6691165107503833,-0.782918868429529
2.011302161725122,2.201564318000628,-0.010442642055904207,0.653539800185136,-0.821938049460123
2.009092666857894,2.0659492049498063,-0.010600166203406135,0.638032705060797,-0.8609735419696055
2.0068486596639623,1.9335834086037451,-0.01077133088166026,0.622593926806444,-0.8999363859098606
2.00456737493331,1.8044527097181806,-0.010955190362647681,0.6072222530560907,-0.9387362717409018
2.0022462479580825,1.6785431343430908,-0.011150780829992546,0.5919165600399886,-0.9772812807322622
1.9998829183153068,1.555840934905948,-0.011357120529775507,0.5766758155518341,-1.0154776111163795
1.997475233651818,1.4363325706052485,-0.011573209598690177,0.5614990825500782,-1.053229288199643
1.995021253540935,1.3200046869740767,-0.011798029552576512,0.5463855234610834,-1.0904378563546344
1.992519253484459,1.2068440944580665,-0.012030542413863851,0.5313344052628323,-1.1270020506139073
1.9899677291385975,1.0968377458342147,-0.012269689451480175,0.5163451054405034,-1.1628174453601712
1.9873654008485606,0.9899727122763871,-0.012514389501252865,0.5014171189197496,-1.1977760773590809
1.984711218583921,0.8862361578492859,-0.01276353682864858,0.4865500661002547,-1.2317660401087378
1.9820043673755918,0.7856153121849587,-0.013015998488771599,0.47174370213143446,-1.264671046185253
1.979244273365543,0.6880974410637499,-0.01327061113074109,0.4569979275943751,-1.296369953948716
1.9764306105924154,0.5936698145844765,-0.013526177184759663,0.442312800779671,-1.3267362546434538
1.973563308650194,0.5023196725656938,-0.013781460360206275,0.42768855178016885,-1.3556375155890787
1.9706425613733392,0.41403418677040094,-0.014035180371745209,0.41312559865117165,-1.3829347748283585
1.9676688367205672,0.3288004194895038,-0.014286006797510678,0.3986245659288067,-1.4084818822963001
1.964642888051173,0.24660527795374776,-0.014532551958624795,0.3841863058402875,-1.4321247823354208
1.9615657670128275,0.1674354639688005,-0.014773362692286466,0.36981192258778794,-1.4537007322554187
1.9584388382886841,0.09127741808235612,-0.01500691087098273,0.35550280014027014,-1.4730374516964004
1.955263796485001,0.018117257495120498,-0.01523158249742809,0.3412606340239084,-1.4899521979144374
1.9520426854791004,-0.052059293181656585,-0.015445665177816282,0.32708746765965435,-1.5042507629298125
1.9487779205923397,-0.1192669793404022,-0.01564733374371474,0.31298573385219647,-1.5157263900015407
1.9454723140051065,-0.18352110311343495,-0.015834633753745154,0.29895830208147095,-1.5241586094679411
1.9421291038924249,-0.24483762072086535,-0.01600546255750644,0.28500853227501616,-1.529311998137114
1.9387519878319734,-0.30323325186128613,-0.01615754754203165,0.27114033572901425,-1.5309348728783618
1.9353451611246506,-0.3587256027086241,-0.01628842109913899,0.25735824376943883,-1.5287579389645285
1.9319133607765173,-0.41133330418296055,-0.016395391740225442,0.24366748455756354,-1.5224929286752755
1.9284619160279715,-0.4610761672095194,-0.016475510626876758,0.23007406807632969,-1.5118312880888223
1.9249968064939826,-0.5079753566186795,-0.016525532553969075,0.21658487867756976,-1.4964430033887457
1.9215247292183015,-0.5520535850929988,-0.016541870071566822,0.2032077734588098,-1.475975707567115
1.918053176277621,-0.5933353280127776,-0.01652053888729371,0.189951682920014,-1.4500542816792406
1.9145905250528583,-0.6318470590013163,-0.016457091824732463,0.17682670744699894,-1.4182812727602154
1.9111461440041289,-0.6676175041387893,-0.016346537210786077,0.16384419862419333,-1.3802386087820582
1.9077305178945072,-0.7006779097720823,-0.016183235261800787,0.1510168074071395,-1.335491321270002
1.904355398159046,-0.7310623139766079,-0.01596076221878188,0.1383584707311939,-1.2835943168308777
1.901033986937158,-0.7588078041628279,-0.01567172560872459,0.12588429294710962,-1.2241037032414475
1.8977811678965502,-0.7839547319577775,-0.015307503349445275,0.11361025748099807,-1.156594802912389
1.8946138045749041,-0.8065468401366473,-0.01485786161861141,0.10155267755588876,-1.0806897730124974
1.8915511395327609,-0.8266312343314439,-0.014310376877991585,0.08972726715643675,-0.9960985901503316
1.8886153483746555,-0.844258105881849,-0.01364953891348786,0.07814769999031032,-0.9026776775107804
1.8858323368671648,-0.8594800886549834,-0.012855332586423542,0.0668235645157627,-0.8005097050895813
1.8832329256216809,-0.872351132295698,-0.011900964989614057,0.05575780349102868,-0.6900040630982062
1.8808546616250146,-0.8829248434576016,-0.010749168311970198,0.04494420757469989,-0.5720067522320631
1.8787446715518907,-0.8912524743921892,-0.00934597524158945,0.03436656323092471,-0.4478871889308417
1.8769643772085842,-0.897381281158907,-0.007609208980376899,0.024003025023518705,-0.31953897988765156
1.8755981931408028,-0.9013551951635179,-0.005402067855636707,0.013843775020366806,-0.18920820523833734
1.8747746079473337,-0.9032237632288229,-0.0024416006535911534,0.003952111315869445,-0.05908162719077181
