x,y,v_x,v_y,omega
2.375,32.48,0.0,2.1025641025641026,-4.938775510204081
2.3740271725115996,32.00135472371397,-0.00845936946435287,2.0595687347056457,-4.68114535096018
2.3712286759810017,31.532434451132506,-0.015875382975627756,2.0179988529593107,-4.443071988998786
2.366830569249893,31.072920744984394,-0.022369023381836932,1.9777725048503554,-4.2225824418359545
2.3610328527000037,30.622513227276496,-0.028045903138941102,1.9388146056531006,-4.017943581707567
2.354012751232378,30.180928091714716,-0.03299845744910756,1.9010561383623878,-3.8276283332658148
2.3459275334667513,29.747896786258483,-0.03730778399112427,1.8644334743005009,-3.6502872990949182
2.3369169410380377,29.323164840583544,-0.04104519364986656,1.8288877924381108,-3.4847248301245117
2.327105288575817,28.906490817746928,-0.044273523412922386,1.7943645800542076,-3.329878757096719
2.3166032843563418,28.497645372941072,-0.047048252408598674,1.7608132008662594,-3.184803153617475
2.3055096131036468,28.096410405100634,-0.04941845413657534,1.7281865194853872,-3.048653622014009
2.2939123155288987,27.702578289443952,-0.05142761173080028,1.6964405731814038,-2.9206746882974928
2.2818899935886128,27.315951180911853,-0.05311431818472876,1.6655342836194706,-2.80018896796016
2.2695128658480224,26.93634038000137,-0.05451287955953626,1.635429202558627,-2.686587824575045
2.2568436935516525,26.563565753752567,-0.055653836061070126,1.6060892865614045,-2.5793232915697684
2.243938594870377,26.197455205687532,-0.05656441334132632,1.577480696612815,-2.4779010666626538
2.230847762188612,25.83784418936541,-0.05726891432619375,1.549571619231722,-2.381874420231528
2.2176160951187547,25.484575260939284,-0.05778906019430471,1.5223321062128488,-2.2908388848381778
2.2042837601044973,25.137497666706913,-0.05814428775576082,1.4957339305903652,-2.204427614423863
2.1909181722374753,24.796473711293576,-0.05807821543573551,1.469691768656064,-2.1162560762903153
2.17757933755267,24.461371295578687,-0.05791165138865867,1.4442422810386317,-2.0326380643131428
2.1642890216256783,24.13205685826922,-0.057656313193877984,1.4193615216523743,-1.9532788236384864
2.151066435700968,23.80840219927824,-0.05732269484708203,1.3950268173996143,-1.8779063240053457
2.1379285029877835,23.490284196893796,-0.05692019831104417,1.3712166815955749,-1.806269227761844
2.124890096433793,23.177584544030232,-0.05645724998452452,1.3479107346093304,-1.7381350643826619
2.1119642512310386,22.870189501985166,-0.05594140395247102,1.3250896309999178,-1.673288587972299
2.0991623549088585,22.56798967028139,-0.055379433631701974,1.3027349925111946,-1.6115302972081018
2.0864943175216784,22.270879771310952,-0.054777413213344076,1.2808293463621458,-1.5526750997338299
2.073968724138254,21.978758448621036,-0.05414079012077788,1.2593560683328004,-1.496551105221526
2.0615929715766885,21.691528077789627,-0.05347444954500959,1.2382993302011556,-1.4429985332289141
2.049373391100814,21.409094588936,-0.05278277198433242,1.2176440511347324,-1.391868723635269
2.0373153585937773,21.13136729999701,-0.05206968459859701,1.1973758526825908,-1.343023238877477
2.0254233935498602,20.858258759977684,-0.051338707087641024,1.1774810170506806,-1.2963330484608533
2.013701248072426,20.589684601453616,-0.05059299271613297,1.1579464483759947,-1.2516777873123737
2.002151986931468,20.325563401664844,-0.049835365031326156,1.1387596367437356,-1.2089450804995345
1.9907780596161146,20.065816551596846,-0.04906835075435687,1.1199086247171206,-1.1680299276749164
1.9795813652135013,19.810368132494602,-0.04829420926836796,1.1013819761719597,-1.1288341413407408
1.9685633108538165,19.559144799301293,-0.047514959076716656,1.0831687472481366,-1.0912658336729888
1.957724864380499,19.31207567055425,-0.04673240156082903,1.0652584592479084,-1.0552389472127155
1.9470666018331642,19.069092224308157,-0.04594814232903701,1.047641073326793,-1.0206728252330803
1.9365887502676868,18.830128199689323,-0.04516361041424497,1.0303069668369853,-0.9874918180329804
1.9262912263819258,18.595119503715537,-0.04438007554889375,1.0132469111959155,-0.9556249217994345
1.9161736713660167,18.364004123044158,-0.04359866371988243,0.9964520511639251,-0.925005447027449
1.9062427769095263,18.136840741227893,-0.04275694024959973,0.9788817037601387,-0.9162801302407948
1.8965028696415214,17.913702474001656,-0.041937905559138414,0.961451054728853,-0.9104254041927844
1.886948621433819,17.694557693596174,-0.041142513638273544,0.9441557314057942,-0.9072890138820983
1.8775745069158867,17.4793757559426,-0.04037152564809485,0.9269915525383078,-0.9067240313491256
1.8683748459918328,17.268126957747086,-0.039625525865415054,0.9099545187270213,-0.9085884839672793
1.8593438428337565,17.060782495681458,-0.038904936378727155,0.8930408035828044,-0.9127449999272627
1.8504756216277443,16.857314427530454,-0.038210030630073805,0.8762467455563551,-0.9190604693106507
1.8417642593280021,16.657695635145217,-0.03754094588942312,0.8595688404022095,-0.9274057192382825
1.8332038156555026,16.461899789061,-0.03689769474100828,0.8430037342431709,-0.937655201656749
1.8247883605600173,16.269901314644446,-0.036280175654516605,0.8265482172051182,-0.9496866923933932
1.816511999348334,16.081675359642325,-0.03568818270794592,0.8101992175959344,-0.9633810001672958
1.8083688956667374,15.89719776300911,-0.035121414523328,0.7939537966059258,-0.9786216842911443
1.800353292512355,15.716445024895705,-0.0345794824713009,0.7778091435106268,-0.9952947798370541
1.792459531435656,15.539394277685545,-0.03406191819564931,0.7617625713603335,-1.0132885290685674
1.7846820700851522,15.36602325796753,-0.033568180504382705,0.7458115131441336,-1.0324931179613828
1.777015498235139,15.196310279337698,-0.03309766166964663,0.7299535184196242,-1.0528004166469305
1.7694545524280358,15.030234205923097,-0.03264969317472679,0.7141862504029891,-1.074103722615693
1.7619941293545462,14.867774426522221,-0.03222355094257383,0.6985074835176761,-1.0962975055111
1.7546292980873393,14.708910829256272,-0.031818460076616414,0.6829151014036229,-1.1192771523296916
1.747355311277301,14.553623776624676,-0.03143359914110863,0.6674070953928813,-1.142938711818824
1.7401676154155163,14.401894080856408,-0.031068104004843895,0.6519815634616312,-1.1671786368291177
1.7330618602590553,14.253702979445922,-0.03072107126872973,0.6366367096730253,-1.1918935233347576
1.7260339075142928,14.109032110758559,-0.030391561294423806,0.6213708441301313,-1.216979844780138
1.7190798388679198,13.967863489585291,-0.030078600847949822,0.6061823834635066,-1.242333680345753
1.7121959634529813,13.830179482520357,-0.029781185368907465,0.5910698518837519,-1.2678504356490703
1.705378824835216,13.695962783027607,-0.02949828087252914,0.5760318828358264,-1.2934245543069172
1.6986252076037114,13.565196386052094,-0.029228825488379278,0.5610672212990824,-1.3189492186841294
1.6919321436494195,13.437863562022422,-0.028971730635899855,0.5461747267850152,-1.3443160380385375
1.6852969182154691,13.313947830076362,-0.028725881833233977,0.5313533770937537,-1.3694147221445958
1.6787170758044947,13.193432930327024,-0.028490139131760284,0.5166022729004951,-1.3941327383373026
1.6721904260304257,13.076302794969191,-0.028263337164490934,0.5019206432545776,-1.4183549497651902
1.6657150495054447,12.962541518004922,-0.028044284791865288,0.4873078520868739,-1.4419632324775868
1.6592893038571845,12.852133323343807,-0.02783176432344255,0.47276340583585746,-1.4648360687996804
1.652911829976813,12.745062531005967,-0.02762453028848145,0.4582869623192672,-1.486848114273477
1.646581558605573,12.641313521124601,-0.02742130772230318,0.4438783409969422,-1.5078697352702348
1.640297717375724,12.540870695408952,-0.02722078992855771,0.42953753479132684,-1.5277665142204893
1.6340598384318987,12.443718435687568,-0.02702163566992308,0.41526472365547057,-1.5463987192763624
1.6278677667707693,12.349841059105213,-0.026822465731202342,0.4010602901041302,-1.5636207351392821
1.6217216694509413,12.259222769493789,-0.02662185878903866,0.38692483695172214,-1.579280451786114
1.6156220458414046,12.171847604378272,-0.026418346511281603,0.37285920753102886,-1.5932186079533006
1.6095697390960613,12.087699377011933,-0.026210407796050317,0.35886450869800884,-1.6052680865565858
1.6035659490643104,12.006761612761323,-0.02599646204526408,0.3449421369594537,-1.615253159825452
1.5976122468739518,11.929017479080716,-0.02577486134915724,0.3310938080893142,-1.6229886829475215
1.591710591453651,11.854449708228849,-0.02554388143606742,0.3173215906225831,-1.628279236635167
1.5858633482988802,11.783040511790166,-0.02530171121411371,0.30362794362684203,-1.63091822150917
1.58007331082921,11.71477148597176,-0.025046440696063103,0.29001575914189154,-1.6306869109189783
1.5743437247381407,11.649623506562602,-0.024776047052365077,0.27648840963340165,-1.627353474321847
1.5686783158025106,11.58757661237355,-0.024488378474853356,0.2630498007061971,-1.6206719913871503
1.563081321701505,11.528609875941818,-0.02418113544693507,0.249704429134942,-1.610381488665092
1.5575575285024577,11.47270126030736,-0.023851848892605262,0.23645744594728607,-1.5962050475103795
1.5521123126127199,11.419827460790245,-0.023497854496420358,0.22331472376675843,-1.5778490561853857
1.5467516891905628,11.369963730976615,-0.023116262217987592,0.21028292678654903,-1.5550027138088647
1.5414823682795327,11.32308369264436,-0.022703919617057776,0.19736958045045458,-1.5273379434670238
1.536311820321095,11.279159130258513,-0.022257366978051175,0.184583135948216,-1.4945099424929587
1.5312483532753223,11.238159772130402,-0.02177278124606087,0.17193302168754512,-1.456158698017555
1.5263012044430362,11.200053062634922,-0.02124590425207858,0.1594296695775001,-1.4119119364472814
1.5214806514017338,11.164803933394108,-0.020671948280986015,0.1470844977339285,-1.3613901702390148
1.5167981485070952,11.132374586563742,-0.02004546819413078,0.13490982253013162,-1.3042147691845294
1.5122664985931786,11.102724310919097,-0.01936018323123146,0.12291866133635859,-1.2400203277367952
1.5079000744906579,11.075809361965383,-0.01860872200807864,0.11112437304374619,-1.1684730196818949
1.5037151128042279,11.05158295117431,-0.017782249178271186,0.0995400686177424,-1.0892970759825042
1.4997301146218374,11.02999540607107,-0.01686990892947026,0.08817771488871008,-1.002311833453186
1.4959664068375558,11.010994579141482,-0.015857984846891045,0.07704686710772285,-0.9074816029515296
1.4924489471436404,10.994526590737806,-0.014728621187157552,0.06615303205467524,-0.8049791195191517
1.4892075014099673,10.980536970058434,-0.013457863453476467,0.055495843418133996,-0.6952592133878699
1.4862783964886153,10.968972171982639,-0.012012614123498876,0.04506761811052693,-0.5791308009090057
1.4837071897504654,10.959781234156104,-0.0103457053386723,0.03485358038106892,-0.4578013954050611
1.481552924586845,10.952916896712242,-0.008387035214550415,0.024836310435104078,-0.33285225179398503
1.4798956831138188,10.948334576266483,-0.006023760203067356,0.015009954310628718,-0.20609473540699996
1.4788537992868964,10.945984643489389,-0.0030360991614760404,0.005424243751059312,-0.07927622085896496
