x,y,v_x,v_y,omega
2.375,32.48,0.0,2.358974358974359,-7.510204081632653
2.3736188986078717,31.989743056225866,-0.013153346591698534,2.3101393912554578,-7.111425084507472
2.3696471777598473,31.50955997417286,-0.024672566246630293,2.2630328187731754,-6.743831059501184
2.3634076479848716,31.039099320347056,-0.03475152684837536,2.2175448367106623,-6.404171733972705
2.355185097253725,30.578031609409056,-0.04355848011492513,2.173576219841729,-6.089608614847377
2.345231262774401,30.12604723166563,-0.05123994349768404,2.1310369015242303,-5.797653718797115
2.3337690589550415,29.682854653674717,-0.057923902400977514,2.0898447936273064,-5.5261188401658305
2.3209961898736626,29.248178846392246,-0.06372246980262936,2.049924799539088,-5.273073286865822
2.3070882491091744,28.821759904220485,-0.0687341089067856,2.0112079830491045,-5.036808472853403
2.29220139006183,28.403351825284926,-0.07304550106792092,1.973630863956239,-4.815808101323936
2.2764746344686726,27.9927214287426,-0.07673312362881865,1.9371348173992617,-4.60872293589221
2.2600318746491648,27.589647389259333,-0.07986458893792212,1.9016655586318545,-4.414349359305235
2.242983615329072,27.193919372247606,-0.08249978553915226,1.867172698622656,-4.231611076122076
2.2254284931181614,26.805337256227336,-0.08469185456475592,1.833609358713271,-4.0595434384850195
2.2074546054347075,26.42371043090786,-0.08648802813480513,1.800931834805549,-3.8972799707955765
2.1891406755565965,26.048857161405007,-0.08793035165673012,1.7690993033168696,-3.744040745859056
2.1705570762909487,25.6806040104894,-0.08905630801610409,1.7380735625460504,-3.5991223263966865
2.151766731304005,25.318785311979596,-0.08989935852621793,1.7078188042140034,-3.46188903515084
2.132825910295176,24.96324268939849,-0.09048941298643799,1.6783014108441139,-3.331765356713103
2.113784931820072,24.61382461484551,-0.09085323915740912,1.6494897753747848,-3.20822930666587
2.0946887855775507,24.27038600373251,-0.09101482029517566,1.621354139987077,-3.09080663017169
2.0755776843045077,23.932787841614605,-0.09099566801951982,1.59386645161206,-2.979065713955643
2.05648755401266,23.600896839837716,-0.09081509666474517,1.567000231977334,-2.872613113630616
2.037450470108499,23.27458511714047,-0.09049046432726479,1.5407304603773715,-2.7710896132421383
2.01849504592419,22.9537299047006,-0.09003738504710594,1.5150334676213706,-2.674166746334916
1.999646779323605,22.638213272417588,-0.08946991591084745,1.489886839835909,-2.5815437182263423
1.9809571937784896,22.32793244798495,-0.0885261368997748,1.4651686309511252,-2.4856770741662557
1.9624719074253207,22.022788411512817,-0.08752420932088022,1.4409650497358664,-2.394380284016102
1.9442022652593174,21.72267513749992,-0.08647238273629634,1.417256607529832,-2.3073793485996883
1.926157970226818,21.42749059109067,-0.08537804614465122,1.3940247868439504,-2.224419852852795
1.908347254636223,21.13713653067316,-0.08424781662291787,1.3712519790370965,-2.145265339936541
1.8907770339612464,20.851518323048637,-0.08308761837685859,1.3489214269107395,-2.06969583895303
1.8734530449340316,20.5705447701887,-0.0819027533109032,1.3270171717553205,-1.997506529981347
1.8563799696069876,20.294127946688818,-0.0806979640895142,1.305524004434023,-1.9285065320684187
1.839561546870669,20.02218304710909,-0.07947749054209398,1.2844274201348351,-1.8625178014771964
1.8230006727469998,19.754628242466488,-0.07824512015951537,1.2637135764613667,-1.7993741289492922
1.806699490629542,19.491384545208447,-0.07700423334008516,1.2433692545675818,-1.7389202260104628
1.7906594725125893,19.232375682056283,-0.07575784396422422,1.2233818230721034,-1.6810108914604838
1.7748814921364306,18.977527974159678,-0.07450863580871567,1.203739204514618,-1.6255102501654761
1.759365890875094,18.726770224050874,-0.07325899525163196,1.184429844140648,-1.5722910571289725
1.7441125371036574,18.4800336089298,-0.07201104066681382,1.1654426808219607,-1.521234060573577
1.7291208797032345,18.237251579849946,-0.0707666488610228,1.1467671199385239,-1.4722274184313935
1.7143899962918172,17.998359766409635,-0.06952747886676013,1.1283930080644826,-1.4251661632299677
1.6999186367071153,17.763295886584746,-0.0682949933684947,1.1103106093153858,-1.3799517108812027
1.6857052622124746,17.53199966136779,-0.06707047800903633,1.0925105832270627,-1.3364914093420903
1.6717480808480003,17.304412733903874,-0.06585505879547976,1.074983964048323,-1.2946981235255282
1.6580450793054688,17.080478592838077,-0.06464971780005935,1.0577221413401998,-1.2544898532033213
1.644594051666814,16.860142499610046,-0.06345530732998529,1.040716841783923,-1.2157893809672446
1.631392625311405,16.64335141945136,-0.0622725627215296,1.0239601121083148,-1.1785239476025546
1.6184382842664609,16.430053955859215,-0.06110211389698769,1.0074443030549598,-1.1426249524857683
1.6057283902473956,16.220200288336272,-0.0599444958083949,0.99116205430641,-1.1080276768485287
1.5932709982552786,16.013903737842412,-0.05869733268795636,0.9735669980160667,-1.1051505330872877
1.581071399313111,15.81128885294553,-0.057489323904117054,0.9560985724304145,-1.104743844639468
1.5691213978629244,15.612329430973446,-0.05632021371670729,0.9387530653989696,-1.1066701545682742
1.5574128634616833,15.417000032127962,-0.05518963772368496,0.9215269236056465,-1.1107962268918126
1.5459377525817022,15.225275946876344,-0.054097132561849615,0.9044167454573827,-1.1169927306641698
1.5346881284553464,15.037133164777028,-0.053042144832015116,0.8874192745361152,-1.1251339366219246
1.5236561791209704,14.8525483446242,-0.05202403930489895,0.870531393586058,-1.1350974250892478
1.5128342338157155,14.671498785801436,-0.05104210645943369,0.8537501190116799,-1.1467638038941608
1.5022147778503725,14.493962400739377,-0.05009556940097314,0.8370725958650783,-1.1600164350989857
1.491790466091964,14.319917688376556,-0.049183590202919056,0.8204960933046412,-1.1747411693899725
1.4815541351709391,14.149343708526018,-0.04830527571160362,0.8040180005099968,-1.1908260870048542
1.4714988145218868,13.98222005705313,-0.04745968285079926,0.787635823041326,-1.2081612441029266
1.4616177363593617,13.818526841772204,-0.04664582345896397,0.7713471796341672,-1.2266384235003487
1.4519043446838,13.658244658971103,-0.045862668689242395,0.7551497994239289,-1.2461508887038188
1.4423523034065024,13.501354570473858,-0.045109152999306186,0.739041519597461,-1.2665931401786552
1.432955503677268,13.347838081151536,-0.044384177755308035,0.7230202834722778,-1.2878606727825515
1.423708070493451,13.19767711679117,-0.043686614471520516,0.707084139007395,-1.3098497332838417
1.4146043686649572,13.050854002231297,-0.043015307704610574,0.6912312377532992,-1.3324570768628308
1.4056390082059842,12.907351439670705,-0.04236907761894128,0.6754598342523425,-1.3555797214664769
1.3968068492211345,12.767152487054194,-0.04174672223677199,0.6597682859049151,-1.3791146988502327
1.3881030063508772,12.630240536435458,-0.04114701938472372,0.6441550533211384,-1.4029588010959397
1.379522852839218,12.496599292212565,-0.04056872834536437,0.6286187011826079,-1.4270083213410918
1.3710620242848313,12.366212749125776,-0.04001059122022449,0.6131578996439707,-1.4511587873923653
1.3627164221358727,12.239065169900616,-0.039471334007952115,0.5977714263099203,-1.4753046868249002
1.3544822169881818,12.115141062410967,-0.03894966739862731,0.5824581688296155,-1.4993391820884243
1.3463558517466683,11.994425156227301,-0.038444287282453686,0.567217128157682,-1.5231538140521268
1.3383340447103609,11.876902378404157,-0.03795387496809197,0.5520474225389231,-1.5466381923226993
1.330413792642921,11.76255782834788,-0.037477097102764506,0.5369482922827785,-1.5696796705651086
1.3225923738924263,11.651376751590817,-0.03701260528289762,0.5219191054035245,-1.5921630049450224
1.3148673516269762,11.543344512281045,-0.03655903534043671,0.5069593642133459,-1.613969993697861
1.3072365772561991,11.43844656417702,-0.03611500628601225,0.492068712967834,-1.634979095715958
1.2996981941131596,11.336668419914282,-0.035679118885793365,0.4772469466773009,-1.6550650259378434
1.2922506414765245,11.23799561828584,-0.03524995384406466,0.4624940212126326,-1.674098325230272
1.2848926590192855,11.142413689249128,-0.03482606955821209,0.44781006485128644,-1.6919449023858124
1.27762329177796,11.04990811633986,-0.034405999406794,0.43319539142745656,-1.7084655458329538
1.2704418957451677,10.9604642961366,-0.03398824852456124,0.41865051527025615,-1.7235154026947177
1.2633481441989873,10.87406749437908,-0.033571290010490716,0.40417616813469437,-1.736943422967935
1.2563420348947703,10.79070279829801,-0.03315356050586201,0.3897733183516897,-1.7485917668736135
1.249423898259431,10.710355064664423,-0.03273345506879749,0.37544319244438407,-1.7582951739119141
1.2425944067450092,10.633008863012677,-0.03230932125902991,0.3611872994770185,-1.7658802929304875
1.2358545855180263,10.55864841343379,-0.031879452331283385,0.3470074584171301,-1.7711649737038617
1.2292058246845008,10.487257518276198,-0.03144207941657933,0.33290582879802266,-1.7739575222934612
1.2226498932783691,10.418819487031541,-0.030995362546578132,0.3188849449606266,-1.7740559250484
1.2161889552747938,10.353317053627716,-0.030537380344615995,0.30494775412343506,-1.7712470498450148
1.209825587931262,10.290732285306085,-0.03006611816521009,0.29109765846353386,-1.7653058385063731
1.203562802811215,10.231046482233829,-0.029579454406665956,0.2773385612722429,-1.7559945119309754
1.1974040699111375,10.174240067010157,-0.02907514464169154,0.2636749170484361,-1.743061820184016
1.1913533453985374,10.120292463287527,-0.02855080309735692,0.2501117850718599,-1.7262423849066428
1.185415103583958,10.069181962877366,-0.028003880851019004,0.2366548855010902,-1.7052562026033151
1.179594373908652,10.020885580989791,-0.027431639866180267,0.2233106562853314,-1.6798084070576071
1.1738967839515373,9.975378899734356,-0.026831121630150046,0.21008630805216336,-1.649589430565929
1.16832860977639,9.932635900778802,-0.02619910860934736,0.19698987247691907,-1.614275761269813
1.1628968354020695,9.892628789258389,-0.02553207590799183,0.1840302372412938,-1.5735315734079784
1.1576092238608369,9.855327812834108,-0.024826129246605058,0.17121715727565295,-1.5270116161186493
1.1524744033299064,9.820701082461383,-0.02407692342892385,0.15856122722650207,-1.474365893052491
1.147501973360122,9.788714405266926,-0.023279552473784666,0.14607379367308193,-1.4152468579426107
1.142702638560281,9.759331145308611,-0.022428398000890255,0.13376677735850628,-1.3493200949953368
1.1380883806467508,9.7325121352639,-0.021516915461302095,0.12165236592446296,-1.2762797394629368
1.1336726851649537,9.708215671410105,-0.020537327222480507,0.10974252792118455,-1.1958701837667929
1.1294708473566772,9.686397635158343,-0.019480175713485988,0.09804829352415592,-1.1079158013308907
1.1255003939212143,9.667011794941537,-0.018333666529018917,0.08657875615970803,-1.0123602659386388
1.1217816757379606,9.650010347439096,-0.017082697121016427,0.07533979148259284,-0.9093160854148701
1.118338714015504,9.635344746330105,-0.015707414521426225,0.0643326000316008,-0.7991224248360914
1.1152004246601381,9.6229668203157,-0.014181055529678065,0.05355240962939925,-0.6824041297974024
1.112402418075972,9.612830067790867,-0.012466626224286508,0.04298809060710235,-0.5601163554855425
1.1099897227921134,9.604890784152378,-0.010511424098176996,0.032624134521355416,-0.4335485272754427
1.108021188246779,9.59910823516508,-0.008236523952626093,0.02244776059577179,-0.30425369599924246
1.10657774366242,9.595442067573408,-0.005510567326982391,0.012468121229681954,-0.17387344689838694
1.1057839113704613,9.593840831623364,-0.002049740215481225,0.002781744961224762,-0.04386288990186915
