x,y,v_x,v_y,omega
2.375,32.48,0.0,4.0,-6.8979591836734695
2.3733029246071164,31.769556558630875,-0.018856393254262745,3.8938160152124714,-6.388767356548421
2.368497422286747,31.077765540478467,-0.034538076972061536,3.792750853147617,-5.936443693918008
2.361108471896563,30.403741182572517,-0.04756137180776489,3.6964086791407205,-5.532822293031239
2.3515763199827258,29.746665073263003,-0.05835142723486711,3.6044369798538884,-5.171120037705572
2.3402712936972425,29.105778933100165,-0.06725997593716848,3.5165201330665323,-4.845670008908126
2.3275057615500625,28.48037844219785,-0.07457927014261322,3.43237421029251,-4.55171238224532
2.313543847696287,27.86980791806922,-0.08055310601044344,3.351742724470036,-4.285229091556874
2.298609363691638,27.273455692752147,-0.08538560515232357,3.274393112386317,-4.042812136258486
2.28289231641254,26.690750071011326,-0.08924825350432337,3.2001137958450308,-3.8215579779505733
2.2665542717906937,26.12115577599956,-0.09228557562729993,3.1287117042856813,-3.618982329383824
2.2497327940163685,25.56417080735862,-0.09461973297631614,3.06001016950257,-3.4329509991602967
2.2325451339053646,25.01932365098423,-0.09635426825706063,2.9938471235462227,-3.2616234627298732
2.2150913046253833,24.486170790722763,-0.09757716818717563,2.9300735460256155,-3.103406583468881
2.19745665535263,23.964294480926654,-0.09836337928786305,2.8685521183755953,-2.9569164760836877
2.1797140317864407,23.453300745659636,-0.09877688255868296,2.809156051257931,-2.820946937179512
2.161925595388167,22.952817575838893,-0.09887241075547037,2.751768057861436,-2.6944431995728166
2.144144359684026,22.46249330004332,-0.09869687484609695,2.696279450978261,-2.5764800231249403
2.1264154911911937,21.981995108339213,-0.09829055285203796,2.642589345734033,-2.4662433340384164
2.108777413892414,21.511007711452216,-0.0976880838010701,2.5906039530103717,-2.3630147803330983
2.091262749237761,21.04923212008064,-0.09691930125062684,2.5402359511182593,-2.2661586937584937
2.073899118039071,20.59638453120239,-0.0960099342903761,2.491403925306767,-2.1751110453129874
2.0567098260684995,20.15219530995475,-0.0949821987159733,2.4440318663336384,-2.089370058578299
2.039714451463664,19.71640805712488,-0.0938552968933115,2.3980487206649377,-2.00848820660981
2.022929349009982,19.28877875352743,-0.09264584148093129,2.3533879859733777,-1.932065367495387
2.006368083883922,18.86907497360326,-0.0913682154752886,2.309987346517386,-1.8597429534822036
1.990041805394152,18.45707516147985,-0.09003487885549162,2.2677883437427613,-1.7911988607664944
1.9739595695677787,18.052567963515337,-0.08865663032643294,2.226736078085151,-1.7261431131967124
1.9581286180294994,17.655351612023807,-0.08724283121000495,2.186778938487368,-1.6643140944698884
1.942554619459215,17.265233355466037,-0.08580159734870996,2.1478683565989725,-1.6054752808579005
1.9272418789456294,16.882028930901143,-0.0843399639133529,2.1099585830109766,-1.5494124008378576
1.9121935197448856,16.505562074941466,-0.0828640272060224,2.0730064832076343,-1.495930959815954
1.8974116412763489,16.135664069844832,-0.08137906688883044,2.0369713511994076,-1.4448540779022756
1.8828974566193777,15.772173321722928,-0.07988965152195912,2.001814739043993,-1.3960205967951016
1.8686514122967457,15.41493496814849,-0.07839972984061927,1.9675003006719654,-1.3492834185720741
1.8546732927270413,15.063800512712636,-0.07691270982276419,1.9339936486152887,-1.304508044807674
1.8409623113874107,14.718627484321722,-0.07543152728423948,1.901262222394859,-1.2615712891401234
1.827517190439127,14.379279119234702,-0.07395870547446896,1.8692751674609331,-1.2203601403569473
1.814336230323192,14.04562406403016,-0.0724964069248096,1.8380032237006543,-1.1807707563878074
1.8014173706245156,13.717536097860187,-0.07104647861604033,1.8074186226323898,-1.1427075723926379
1.7887582433253135,13.394893872498333,-0.06961049137509313,1.7774949924993055,-1.1060825084999302
1.7763562194164293,13.077580668823334,-0.068189774279177,1.7482072705562546,-1.0708142647559769
1.764208449705257,12.76548416850082,-0.0667854447338453,1.7195316219161476,-1.0368276925500493
1.7523119005474825,12.458496239733648,-0.0653984347969821,1.6914453643857401,-1.0040532332315926
1.7406633851341204,12.156512736048974,-0.06402951424037576,1.6639268987773084,-0.9724264158739361
1.7292595908829862,11.859433307178055,-0.06267931077222687,1.6369556442328932,-0.941887407198236
1.7180971034127726,11.56716122116427,-0.06134832778570246,1.6105119781424795,-0.9123806075792381
1.7071724275166562,11.27960319690649,-0.0600369599489225,1.5845771802773028,-0.8838542878342344
1.6964820054994227,10.996669246409976,-0.05874550690922757,1.5591333807950518,-0.8562602621677118
1.6860222331962609,10.718272526075921,-0.057474185348127975,1.5341635118055426,-0.8295535932229422
1.675789473951645,10.444329196414166,-0.05622313959204961,1.509651262213945,-0.8036923256918208
1.6657800708022217,10.174758289612331,-0.05499245095709626,1.485581035584216,-0.7786372453671444
1.6559968069490267,9.909483213756502,-0.05371048074507029,1.4619198072583401,-0.7525572323885439
1.6464415599365885,9.648429910613885,-0.05245893050424645,1.438672449881846,-0.7275697447816392
1.6371089080853716,9.391525120580237,-0.051237201175940224,1.4158252171586903,-0.703616820794511
1.6279935392849,9.138698006417922,-0.05004467438485374,1.393364940200348,-0.6806441547496161
1.6190902540172596,8.889880052082088,-0.048880717477817415,1.3712789968644925,-0.6586008294360646
1.610393967535033,8.645004966891737,-0.0477446878802575,1.3495552830282966,-0.6374390707182419
1.6018997113088629,8.404008594710294,-0.046635936854965046,1.3281821856543967,-0.6171140223021554
1.5936026338455676,8.166828827824652,-0.04555381273720533,1.307148557519404,-0.597583538811096
1.5854980009652264,7.933405525234203,-0.0444976637110277,1.2864436934855956,-0.5788079955090091
1.5775811956147072,7.703680435081946,-0.04346684018363093,1.2660573082061672,-0.5607501131761711
1.5698477172854917,7.477597120978697,-0.042460696807652104,1.2459795151632778,-0.5433747967898435
1.56229318109524,7.255100891988846,-0.04147859419514291,1.2262008069461772,-0.5266489867946447
1.5549133165851279,7.036138736062128,-0.04051990036165936,1.2067120366840327,-0.5105415218653337
1.5477039662784988,6.820659256710638,-0.03958399193421999,1.1875044005547568,-0.49502301217015543
1.5406610840406674,6.608612612743958,-0.03867025515279635,1.1685694212972304,-0.48006572223729194
1.5337807332746884,6.399950460887819,-0.03777808669141353,1.1498989326598852,-0.46564346261156353
1.5270590849834997,6.194625901123295,-0.03690689432179329,1.1314850647236936,-0.4517314895644073
1.5204924157249644,5.992593424594357,-0.036056097439711075,1.113320230042272,-0.43830641218832356
1.5140771054829272,5.793808863941408,-0.03522512747181348,1.0953971105460663,-0.42534610626825603
1.507809635474398,5.598229345927727,-0.03441342817851092,1.0777086451614954,-0.41282963437751996
1.5016865859103303,5.405813246234235,-0.03362045586668623,1.0602480180995144,-0.40073717169557826
1.4957046337251405,5.216520146305857,-0.03284567952431026,1.0430086477713476,-0.3890499370897704
1.4898605502880682,5.030310792140142,-0.03208858088760354,1.0259841762921746,-0.3777501290435466
1.4841511991076746,4.8471470549155775,-0.03134865445010423,1.0091684595363248,-0.36682086605030423
1.4785735335391963,4.666991893363399,-0.030625407421875188,0.9925555577101043,-0.35624613112497905
1.4731310690101254,4.490030721022226,-0.02984642067891434,0.9736796905251389,-0.39511092129593534
1.4678241743682467,4.316458008543826,-0.029119075341957356,0.9549060036793189,-0.43513732978638503
1.4626437155763452,4.146255590947188,-0.028441577901396103,0.9362319696166433,-0.4762235608022299
1.4575808812797535,3.979405749269816,-0.027812136505177595,0.9176551601319263,-0.5182692141642514
1.4526271823331904,3.8158911929025834,-0.027228962901077656,0.8991732439484333,-0.56117506037905
1.4477744510027613,3.655695042328553,-0.02669027410369142,0.8807839846519092,-0.6048428166478905
1.4430148398912759,3.4988008122014627,-0.02619429380170268,0.8624852389824149,-0.6491749228112049
1.4383408206324435,3.3451923946990973,-0.02573925351865593,0.8442749554883004,-0.6940743162008973
1.433745182397331,3.194854043085673,-0.02532339353814885,0.8261511735497368,-0.7394442043384393
1.4292210302547117,3.047770355415768,-0.02494496360206587,0.8081120227825596,-0.7851878343734561
1.4247617834255912,2.903926258310026,-0.024602223388161173,0.7901557228367942,-0.8312082581044804
1.4203611734712716,2.7633069907299763,-0.02429344277094706,0.7722805836081923,-0.8774080913600092
1.4160132424538183,2.6258980876755444,-0.024016901867423425,0.7544850058854831,-0.9236892664431028
1.4117123411077501,2.4916853637243683,-0.02377089086666772,0.7367674824609073,-0.9699527762555329
1.4074531270621806,2.3606548963265546,-0.02355370963966033,0.7191265997370386,-1.0160984086168359
1.4032305631535489,2.232793008762009,-0.023363667122913143,0.7015610398690166,-1.0620244691783645
1.3990399158705051,2.108086252659856,-0.023199080466461658,0.6840695834882305,-1.1076274912012647
1.394876753974506,1.9865213899703953,-0.02305827393353075,0.6666511130613375,-1.152801930318865
1.3907369473422801,1.868085374269608,-0.022939577535644417,0.649304616947429,-1.1974398422368244
1.386616666079596,1.7527653312639657,-0.022841325383068153,0.6320291942263585,-1.2414305411371636
1.3825123799597627,1.6405485383491332,-0.02276185372618973,0.6148240603829112,-1.2846602363436617
1.3784208582451232,1.5314224030596328,-0.02269949865869387,0.5976885539448732,-1.3270116445749893
1.3743391699555123,1.4253744402276354,-0.022652593448093093,0.5806221441884156,-1.368363574857686
1.3702646846543909,1.3223922476469134,-0.022619465453255168,0.5636244400418391,-1.408590482893742
1.3661950738312252,1.2224634800126388,-0.022598432581919275,0.5466952003389881,-1.447561991378272
1.362128312967819,1.1255758208784101,-0.022587799233705554,0.5298343455968937,-1.4851423724444421
1.3580626843868755,1.031716952337991,-0.022585851665665728,0.5130419715188602,-1.5211899880809239
1.3539967809932596,0.9408745221003727,-0.022590852707843577,0.49631836445468297,-1.55555668403094
1.3499295110324647,0.8530361075818576,-0.022601035745432263,0.4796640190843881,-1.5880871323563361
1.3458601040069216,0.7681891765874553,-0.022614597871713733,0.4630796586311864,-1.6186181175580474
1.3417881179093076,0.6863210440948357,-0.02262969210177559,0.44656625795346955,-1.646977760920687
1.337713447953286,0.607418824586702,-0.022644418520686514,0.4301250699146827,-1.672984677645662
1.33363633700654,0.5314693793008765,-0.022656814220934636,0.41375765548339066,-1.6964470614308913
1.329557387959084,0.45845925768082196,-0.022664841861909524,0.3974659180727803,-1.7171616915582315
1.3254775782922719,0.3883746322124395,-0.022666376658227152,0.3812521426870587,-1.7349128584262068
1.3213982771514972,0.321201225725801,-0.02265919157260289,0.36511904049784466,-1.7494712050546333
1.3173212652693667,0.2569242301241843,-0.022640940451068944,0.34906979952009143,-1.7605924847370487
1.3132487581375765,0.1955282153798663,-0.022609138791043846,0.3331081420834442,-1.7680162392326217
1.3091834328868905,0.13699702751181775,-0.022561141772133638,0.31723838978376334,-1.7714644084082316
1.3051284594084562,0.08131367414419088,-0.022494119099359666,0.30146553652323443,-1.7706398921374393
1.3010875363406167,0.02846019615143547,-0.022405026098856563,0.28579533006293195,-1.7652251001023687
1.2970649326601311,-0.021582476147926855,-0.022290570350982416,0.2702343621522026,-1.7548805472133955
1.2930655357658145,-0.0688346837412368,-0.022147172919201878,0.2547901666623613,-1.7392435849969112
1.2890949071427777,-0.11331821790822261,-0.02197092289231742,0.23947132408196467,-1.7179274073659438
1.2851593469735836,-0.15505651828487999,-0.02175752343206237,0.22428756899204264,-1.6905205397395109
1.281265969462545,-0.19407488998852074,-0.021502226690589547,0.2092498943817531,-1.6565871236750869
1.277422791232981,-0.23040073829673702,-0.021199753637900543,0.1943706423761679,-1.6156684594399846
1.2736388360632553,-0.26406381690688363,-0.0208441926923846,0.17966356440321368,-1.5672864861946558
1.2699242606426755,-0.2950964818678017,-0.0204288675362804,0.16514382405145242,-1.5109501899406177
1.2662905082793463,-0.3235339371836474,-0.019946158722933927,0.15082790168015361,-1.4461663645316751
1.2627505011192885,-0.3494144489451827,-0.01938725416659714,0.13673334011469485,-1.3724567406041748
1.2593188873281733,-0.37277949163154034,-0.01874178795690521,0.1228782452892779,-1.289384247966475
1.2560123692883056,-0.39367377217462973,-0.017997301374957482,0.10928042741175437,-1.1965920180556235
1.2528501544840036,-0.41214505498314224,-0.017138418672843745,0.09595604823839715,-1.0938593930283598
1.2498545960248153,-0.42824368854650885,-0.01614556420702626,0.08291765802125761,-0.9811789667965773
1.2470521304509379,-0.4420217242968576,-0.01499294216939055,0.07017162809369534,-0.8588559580003648
1.244474686576715,-0.45353155140217183,-0.013645323099754416,0.057715339743094576,-0.7276231248819798
1.2421618530175365,-0.4628241073992072,-0.01205282755778435,0.045535282446226163,-0.5887471733912184
1.2401643239002562,-0.46994706844599676,-0.01014194041199584,0.03360872918480307,-0.4440748203247642
1.2385497735262905,-0.47494416503177916,-0.007797508187624562,0.021914566212804104,-0.29593773933269685
1.2374147480907722,-0.47785860193467755,-0.0048138855403565255,0.010468066041628876,-0.14683172406919084
1.236921938256736,-0.47875298880177297,-0.0006617792822685266,-0.0005304341850379587,0.0011068752728651543
