x,y,v_x,v_y,omega
2.375,32.48,0.0,2.6666666666666665,-5.428571428571429
2.37415900753808,32.004787735638445,-0.00934436068799913,2.6134696040172405,-5.149259984650858
2.3717381560704083,31.538995220825566,-0.01755398895279943,2.5620027827925345,-4.8909519163003115
2.367930010074371,31.0823196266013,-0.024758744336501874,2.512170486365968,-4.651556615296236
2.3629052198504548,30.634474668925517,-0.031072258151458636,2.463884598920506,-4.429233246430353
2.356815238846803,30.195189315468376,-0.03659419744467275,2.4170637728255238,-4.222356306233288
2.3497946653282105,29.76420663159053,-0.04141217498413139,2.371632714706091,-4.029486565588999
2.341963266516516,29.341282746004524,-0.04560336736802621,2.3275215695828493,-3.849346451904835
2.3334277332503452,28.926185919948946,-0.04923589114498714,2.2846653865902677,-3.680799110977793
2.3242832050902273,28.518695706386456,-0.052369977300765716,2.2430036529929547,-3.522830533322824
2.314614599206431,28.118602187900933,-0.055058976963638796,2.202479885735045,-3.3745342439473043
2.304497771009075,27.72570528372812,-0.0573502252292047,2.163041271740655,-3.2350981453775405
2.2940005300659054,27.33981411779336,-0.05928578525045734,2.1246383497566894,-3.1037931764209827
2.2831835312110007,26.96074644081458,-0.060903090915151246,2.087224727785294,-2.979963507651673
2.272101057728184,26.588328100509326,-0.06223550333836384,2.0507568311619773,-2.8630180419615288
2.260801710978503,26.22239255476122,-0.0633127938803169,2.015193677150302,-2.7524230270494416
2.2493290187386905,25.86278042328495,-0.06416156433982131,1.9804966725860618,-2.6476956182207543
2.2377219727528557,25.509339073904187,-0.06480561328056461,1.946629431644621,-2.5483982557408997
2.226015504513166,25.161922240043744,-0.06526625604931799,1.9135576112492103,-2.4541337423257015
2.2142409070290126,24.8203896664509,-0.06556260488572434,1.8812487620045835,-2.3645409240219992
2.2024262092790696,24.484606780514472,-0.06571181455808878,1.8496721928446211,-2.279290892421877
2.1905965091350668,24.15444438685321,-0.06572929815305022,1.818798847836067,-2.198083638408736
2.178774269773925,23.829778383106593,-0.06562891697074717,1.7886011937930328,-2.12064509789214
2.166979583934818,23.510489495087008,-0.0654231479082223,1.7590531175356945,-2.046724538603666
2.155230409812034,23.196463029648797,-0.06512323123382165,1.730129831777733,-1.9760922442834594
2.1435427818885637,22.887588643800818,-0.06473930124918183,1.7018077887553795,-1.9085374587187058
2.131930999596968,22.583760128739005,-0.06428050199077022,1.6740646008202955,-1.843866557289969
2.120407796333119,22.284875207607087,-0.06375508982977014,1.6468789673121382,-1.7819014180942196
2.108984491036322,21.990835345909353,-0.06317052457908935,1.6202306071070967,-1.7224779684716276
2.0976711242789734,21.70154557360199,-0.0625335505025635,1.5941001963080474,-1.6654448859718454
2.0864765805742915,21.416914317980087,-0.061850268438344784,1.568469310602021,-1.6106624355413597
2.0754086984066245,21.13685324655825,-0.06112620009128619,1.543320371862808,-1.5580014270686693
2.064474369311157,20.86127711921462,-0.06036634541391199,1.5186365986219597,-1.5073422794485347
2.053679627174794,20.59010364893224,-0.05957523387900897,1.4944019600711613,-1.458574179070477
2.043034011493963,20.323256659694685,-0.05870938479688797,1.4705645870127912,-1.409473363332104
2.0325452277835345,20.060662504560497,-0.05783265643009989,1.4471482478114945,-1.3624510934016338
2.0222150008579454,19.80224666888603,-0.05694764274311197,1.4241388152381271,-1.317395994811543
2.0120446133117245,19.5479371266305,-0.05605666332600613,1.4015227653788631,-1.2742037880359685
2.002034952485523,19.297664234709856,-0.05516179029845777,1.3792871448505293,-1.2327767639638145
1.9921865528335854,19.051360633059407,-0.054264872500847876,1.357419540154489,-1.1930233033737974
1.9824996341549932,18.808961150035074,-0.05336755726128786,1.3359080490047492,-1.1548574362868635
1.9729741361019615,18.570402712811397,-0.052471309994621164,1.3147412534805523,-1.1181984374982372
1.9636097493349822,18.33562426246013,-0.05157743186070241,1.293908194866841,-1.0829704549698604
1.9544059436559649,18.104566673416915,-0.05068707568393447,1.2733983500577792,-1.0491021681001353
1.9453619934161754,17.87717267706489,-0.04980126031372683,1.2532016094091618,-1.016526473186791
1.9364770004652139,17.653386789183905,-0.04892088358584665,1.2333082559351494,-0.9851801936648685
1.9277499148800363,17.433155241031926,-0.048046734027237185,1.2137089457534598,-0.9550038129391369
1.9191795536887506,17.216425913841924,-0.04717950143149317,1.1943946896910065,-0.9259412278420982
1.9107646177822457,17.003148276532514,-0.04631978641856131,1.1753568359691138,-0.8979395209381041
1.9025037071873605,16.793273326444844,-0.04546810908016185,1.156587053893912,-0.8709487500635532
1.8943953348579914,16.586753532930885,-0.0446249168017168,1.1380773184834037,-0.8449217536449527
1.8864379391250516,16.383542783630254,-0.04379059134205885,1.1198198959680485,-0.8198139704727994
1.8786298949323297,16.183596333283536,-0.04296545524373989,1.1018073301066025,-0.795583272731508
1.870969523972862,15.986870754940234,-0.042149777639234685,1.084032429263395,-0.7721898111955295
1.863455103829284,15.79332389342877,-0.04134377951163533,1.0664882541973013,-0.7495958716007117
1.8560848762116153,15.60291482096454,-0.04054763846245919,1.0491681065163878,-0.727765741289059
1.8488570543769463,15.415603794780061,-0.039761493033864594,1.0320655177556082,-0.7066655853053938
1.8417698298073955,15.231352216668633,-0.038985446627809915,1.0151742390380554,-0.6862633311969482
1.834821378215453,15.050122594339726,-0.038219571060439446,0.9984882312831305,-0.6665285618324452
1.8280156775538745,14.872103469978317,-0.03739932517932001,0.979502039399205,-0.6969975373855702
1.8213535473166915,14.697492205434909,-0.03662434412271386,0.9606231221942368,-0.7288346339995181
1.8148269649943956,14.52626973447796,-0.03589323723613092,0.9418487773274278,-0.7619301180693027
1.808428160650286,14.35841746741088,-0.035204588809529036,0.9231764123067865,-0.7961759742501265
1.8021496211124735,14.193917271560814,-0.03455696161061205,0.9046035415828569,-0.8314656663218345
1.7959840935632125,14.032751452255471,-0.03394890004784124,0.8861277840320458,-0.8676939000518473
1.7899245885902286,13.874902734218,-0.03337893298531342,0.867746860828745,-0.9047563870297998
1.7839643827609402,13.720354243309654,-0.03284557622900226,0.84945859370844,-0.9425496084297118
1.7780970207772153,13.569089488549452,-0.032347334701273094,0.8312609036271568,-0.980970577629984
1.772316317265477,13.421092344338671,-0.03188270431804295,0.8131518098259595,-1.0199166005874125
1.7666163582546133,13.27634703281618,-0.03145017358044321,0.7951294293128331,-1.0592850328183017
1.760991502392244,13.134838106267985,-0.031048224890327745,0.7771919767782085,-1.0989730317870414
1.7554363819484358,12.996550429511124,-0.030675335596429085,0.7593377649646839,-1.138877303439576
1.7499459036549736,12.861469162167843,-0.030329978775372753,0.7415652055162351,-1.1788938415453007
1.7445152494277725,12.72957974074101,-0.030010623749085894,0.7238728103374598,-1.2189176584252899
1.739139877019993,12.600867860395702,-0.029715736337350855,0.7062591934992688,-1.2588425055465329
1.7338155206539123,12.475319456344707,-0.02944377884132317,0.6887230737340135,-1.2985605823501458
1.7285381916806286,12.352920684727305,-0.029193209750720567,0.6712632775704471,-1.3379622315554358
1.7233041793182986,12.233657902860909,-0.028962483164054385,0.6538787431672897,-1.3769356190403623
1.7181100515218433,12.117517648733624,-0.028750047907673017,0.6365685249136538,-1.4153663962416223
1.7129526560399606,12.004486619592612,-0.028554346335468744,0.6193317988753662,-1.4531373428437437
1.7078291217189556,11.894551649467765,-0.028373812786809283,0.6021678691784783,-1.490127987336042
1.702736860117345,11.78769968545253,-0.02820687167553044,0.5850761754352196,-1.5262142028094852
1.6976735675005634,11.683917762543341,-0.028051935177595834,0.568056301333546,-1.5612677751437372
1.692637227291451,11.583192976815663,-0.027907400479211954,0.5511079845295339,-1.5951559405005051
1.6876261130596597,11.485512456687786,-0.02777164654068823,0.5342311280024452,-1.6277408887974143
1.682638792141834,11.39086333199256,-0.027643030324043118,0.517425813055617,-1.658879229594307
1.6776741299944966,11.299232700542014,-0.027519882424148333,0.5006923141726853,-1.6884214165925904
1.6727312953932705,11.21060759182933,-0.027400502033919288,0.48403111596825743,-1.7162111267452445
1.667809766605502,11.124974927466724,-0.027283151163508306,0.46744293250514163,-1.7420845898258404
1.6629093386788605,11.042321477905467,-0.027166048021398114,0.4509287292866057,-1.7658698642467048
1.6580301320063073,10.962633814925233,-0.027047359451414586,0.4344897482715523,-1.787386055003161
1.653172602348359,10.885898259313592,-0.026925192303565892,0.4181275363022282,-1.806442469930423
1.648337552517245,10.812100823082496,-0.026797583597702894,0.40184397737663846,-1.8228377111039207
1.6435261459549682,10.741227145487123,-0.02666248931648362,0.3856413292386165,-1.836358699352635
1.6387399224691674,10.673262422024262,-0.026517771636858326,0.369522264793178,-1.8467796317174794
1.6339808164280494,10.608191325494001,-0.026361184375562646,0.35348991887637116,-1.853860874600646
1.6292511777599283,10.545997918113557,-0.026190356381338684,0.33754794090633927,-1.8573477997864034
1.6245537961560315,10.486665553581105,-0.026002772550848083,0.321700553898672,-1.8569695771413621
1.6198919289401228,10.430176767910588,-0.025795752070360816,0.30595262021817615,-1.852437947586807
1.6152693331494412,10.376513157811047,-0.025566423381656676,0.29030971422116775,-1.8434460142606093
1.6106903024750334,10.32565524539099,-0.025311695222875314,0.2747782015572407,-1.829667110636411
1.6061597098458762,10.277582328067684,-0.025028222878871974,0.25936532425726233,-1.8107538345883767
1.6016830566261229,10.2322723128114,-0.02471236845172078,0.24407928970144277,-1.7863373810471177
1.5972665296534432,10.189701534343563,-0.024360153466941988,0.22892935994120725,-1.756027368763881
1.5929170677188367,10.149844557766766,-0.023967201362017982,0.21392593535654986,-1.7194124469078043
1.58864243963881,10.112673967526991,-0.02352866619383428,0.19908062286317424,-1.676062095974257
1.5844513369031996,10.07816014687323,-0.02303914197961334,0.18440627328971906,-1.6255302197609507
1.5803534851639305,10.046271055479608,-0.022492544012267152,0.1699169644172109,-1.5673613798481387
1.5763597808325822,10.016972018158139,-0.021881948558270716,0.15562789471022986,-1.5011008721787267
1.5724824622138969,9.990225545274317,-0.021199369427119294,0.1415551373322182,-1.426310303839986
1.5687353296146167,9.965991216278208,-0.020435437231550002,0.1277151848467481,-1.3425908922383814
1.5651340368302855,9.944225672109063,-0.01957892703879619,0.11412419481043329,-1.2496173111381572
1.561696489029546,9.924882779505577,-0.018616048524976298,0.10079683411718106,-1.1471853313260363
1.5584434019268956,9.907914047073263,-0.01752936372669481,0.08774463735296381,-1.0352762157425566
1.5553991082688734,9.893269379783199,-0.016296121362442014,0.07497388809217946,-0.9141387224109359
1.5525927468195206,9.880898233938986,-0.014885672519252312,0.062483287954642676,-0.7843837092435764
1.5500600507673967,9.870751137274006,-0.013255394726570766,0.05026223054513548,-0.647074218038041
1.5478461097548424,9.862781299252685,-0.011343949857365775,0.03829152524730367,-0.5037744749657895
1.5460098714106616,9.856945537348576,-0.00905869841131138,0.02655027368724717,-0.3564998415874596
1.5446324746551832,9.853202644763769,-0.0062457099828922905,0.015037421699500874,-0.20750263334237004
1.5438381098878056,9.851503287658147,-0.0025805652101922637,0.0038443239185197587,-0.058863814964200484
