x,y,v_x,v_y,omega
2.375,32.48,0.0,3.8974358974358974,-4.204081632653061
2.3739820527609035,31.787537812817167,-0.01131052487885064,3.7965884045955467,-3.9014137054881273
2.3710968392281075,31.112809574951296,-0.020747403263324825,3.7003920161363597,-3.6316476750200257
2.366654711317268,30.45500830402262,-0.02860957352378446,3.608510994182262,-3.390187213680802
2.3609168525391393,29.813384489093277,-0.035144412899865946,3.5206425050326593,-3.1731907552532914
2.3541036827772164,29.187240545341936,-0.040557473343723185,3.436512425537775,-2.9774311998807024
2.3464016912995542,28.57592596269885,-0.0450202097414121,3.355871826052063,-2.800184552485995
2.337969018862213,27.97883303874042,-0.04867615067349221,3.2784939957083115,-2.639140955816852
2.328940038574883,27.39539310746552,-0.05164585251905861,3.204171907346118,-2.4923331852126682
2.319429131113156,26.825073191976216,-0.054030897055688414,3.132716042535008,-2.3580788520434863
2.309533808440841,26.267373021863495,-0.05591713263670153,3.063952514273029,-2.234933438108819
2.299337308253784,25.721822366174436,-0.057377313886153455,2.9977214378276233,-2.121651938511443
2.28891075654495,25.18797864087029,-0.058473260656445585,2.9338755099961813,-2.0171573850187032
2.278314976305007,24.665424756154632,-0.059257630898473676,2.872278764622265,-1.9205148979545024
2.2676020051400037,24.153767174310318,-0.05977538204601238,2.8128054780923657,-1.8309102026280304
2.256816372554342,23.652634152996328,-0.06006498001688947,2.7553392031741937,-1.7476317682785305
2.2459961780935,23.16167415251877,-0.06015940288136141,2.699771913243059,-1.670055899677594
2.2351740039199055,22.680554388555954,-0.06008697682524106,2.64600324189936,-1.5976342458349952
2.224377689288899,22.20895951430155,-0.05987207463038887,2.593939805371784,-1.5298832956005126
2.2136309894778554,21.746590418083546,-0.05953570104787256,2.543494597050497,-1.4663755130158131
2.2029541377514903,21.29316312429041,-0.059095984800625806,2.494586445095477,-1.4067318310848576
2.1923643257263157,20.84840778694686,-0.05856859325686998,2.4471395253883927,-1.3506152750249822
2.1818761148758856,20.41206776657419,-0.057967082859018755,2.401082923196874,-1.2977255279578792
2.1715017897769444,19.98389878208083,-0.057303196018105663,2.356350237840437,-1.247794285646977
2.161251661941086,19.563668130387285,-0.056587113269212605,2.3128792254211863,-1.200581274020931
2.151134331632782,19.151153967319118,-0.05582766793416682,2.2706114753362456,-1.1558708251896903
2.141156913883523,18.746144644022912,-0.0550325292798166,2.2294921168437725,-1.1134689255112467
2.1313252339261624,18.34843809378851,-0.054208359135304016,2.1894695524273753,-1.073200663827709
2.1216439964555214,17.95784126471029,-0.053360946094042766,2.150495215108413,-1.0349080199074034
2.1121169324405242,17.574169594102244,-0.05249532073925858,2.112523347203196,-0.9984479429180697
2.1027469266449526,17.197246521005013,-0.05161585476709416,2.0755107983215804,-0.9636906778218943
2.0935361285385277,16.82690303349646,-0.05072634641540075,2.03941684066235,-0.9305183042504468
2.0844860488812507,16.462977247847174,-0.0498300942210105,2.004202999885284,-0.8988234579459254
2.075597643928576,16.105314016854344,-0.04892996080871254,1.9698329000350425,-0.8685082094527559
2.0668713889223436,15.75376456494659,-0.04802842814942118,1.936272121162236,-0.8394830785782232
2.058307342293581,15.408186147882759,-0.0471276455034938,1.9034880684358682,-0.8116661663480752
2.0499052018010655,15.068441735073073,-0.0462294710800181,1.8714498516717526,-0.7849823888728361
2.0416643536579624,14.73439971273417,-0.04533550828779421,1.8401281743160611,-0.7593627998023843
2.0335839155529447,14.405933606253566,-0.04444713732350868,1.8094952310239918,-0.7347439899531416
2.0256627743478592,14.08292182028578,-0.04356554273300098,1.779524613062503,-0.7110675543037576
2.017899619127871,13.765247395234134,-0.04269173748908801,1.7501912208446835,-0.6882796179204598
2.0102929701892376,13.452797778890545,-0.041826584051284796,1.7214711829729605,-0.6663304135326623
2.0028412044720287,13.145464612112267,-0.0409708128065888,1.693341781230136,-0.6451739044662773
1.9955425778783455,12.843143527510463,-0.04012503823433865,1.6657813810121465,-0.6247674474840368
1.9883952448591184,12.545733960212289,-0.03928977309040695,1.638769366745347,-0.6050714908018768
1.9813972756031042,12.253138969836485,-0.03846544086530564,1.6122860818747122,-0.5860493031670865
1.9745466711189812,11.965265072893413,-0.037652386736060674,1.586312773048309,-0.5676667304133531
1.9678413764645537,11.682022084884824,-0.03685088720202394,1.560831538158229,-0.5498919763632983
1.961279292345129,11.403322971436939,-0.03606115856936079,1.5358252779293986,-0.5326954053417073
1.9548582852754446,11.129083707853482,-0.03528336442713268,1.5112776507756913,-0.5160493639017416
1.9485761964754797,10.859223146523554,-0.034517622239143134,1.4871730306679325,-0.4999280196598373
1.9424348606677733,10.593663548264285,-0.033719442290928825,1.4634891722128203,-0.4831768597424826
1.9364355297013973,10.332329769221019,-0.03293979066880307,1.4402194838234719,-0.4671278245450419
1.9305748982617996,10.075148494721535,-0.03217833643783926,1.4173502328374428,-0.45174365507459524
1.9248497220433967,9.822048830224198,-0.03143473265552708,1.3948682615774382,-0.4369894425348739
1.9192568203131282,9.572962200555018,-0.030708619903012463,1.3727609569689831,-0.42283245634292643
1.913793077880392,9.327822254442253,-0.029999629349611548,1.3510162220617352,-0.4092419864171529
1.9084554465522006,9.086564774018253,-0.029307385408070517,1.3296224493160507,-0.39618919841514283
1.9032409461426942,8.849127588982302,-0.028631508030888726,1.3085684955278318,-0.38364700073458774
1.898146665097653,8.615450495140042,-0.02797161469179159,1.287843658275042,-0.3715899222103711
1.8931697607872011,8.385475177055206,-0.02732732209100742,1.2674376537786953,-0.3599939995475742
1.8883074595133669,8.15914513456795,-0.026698247618261856,1.2473405960796882,-0.34883667362514953
1.8835570562734296,7.93640561295112,-0.026084010603262806,1.2275429774406457,-0.33809669388976926
1.8789159143149514,7.717203536491446,-0.025484233379828435,1.208035649889064,-0.32775403013505716
1.8743814645139691,7.501487445297222,-0.02489854218664293,1.1888098078245197,-0.3177897910291023
1.8699512046039346,7.289207435147336,-0.02432656792485023,1.1698569716186407,-0.30818614881374967
1.8656226982795743,7.080315100208882,-0.02376794679026423,1.1511689721419565,-0.29892626965347135
1.8613935741968248,6.874763478462004,-0.023222320795840655,1.132737936156697,-0.2899942491603479
1.8572615248873627,6.672506999681179,-0.022689338198183383,1.1145562725191522,-0.28137505266545276
1.853224305603907,6.473501435831913,-0.02216865384021294,1.0966166591393691,-0.27305445984628257
1.8492797331104267,6.277703853750889,-0.0216599294206788,1.0789120306497753,-0.26501901335529277
1.8454256844295722,6.0850725699860035,-0.021162833699925172,1.0614355667378312,-0.2572559711265078
1.841660095558061,5.895567107680506,-0.0206770426502004,1.0441806811010304,-0.24975326206595244
1.8379809601593395,5.709148155392715,-0.02020223955781401,1.0271410109855315,-0.2424994448576329
1.8343863282416146,5.525777527749497,-0.019738115083576695,1.0103104072724371,-0.23548366964026954
1.8308743048282454,5.3454181278379345,-0.019284367287192527,0.9936829250782413,-0.22869564233122025
1.8274469657275731,5.168252034607551,-0.01879717827582982,0.9748292219259999,-0.27021688382267095
1.8241033279043641,4.994470522107864,-0.018354353093160466,0.9560764725149873,-0.312839246949751
1.8208355394695193,4.82405564275205,-0.01795440729400518,0.937422186994066,-0.35646469538832026
1.8176360165984229,4.656989888537158,-0.017595846829289098,0.9188639709491887,-0.4009964458966482
1.8144974450390192,4.493256174070549,-0.017277170497417012,0.9003995231242327,-0.44633875441917054
1.811412781205601,4.332837819976337,-0.016996872096119466,0.88202663347812,-0.4923967024977972
1.8083752529107455,4.175718536621073,-0.016753442291160867,0.8637431815803893,-0.5390759830367474
1.805378359785112,4.021882408097323,-0.01654537021587829,0.8455471353501517,-0.586282684436361
1.8024158734325018,3.8713138764026382,-0.016371144813125512,0.82743655014633,-0.633923072072385
1.799481837365728,3.723997725749644,-0.016229255928806786,0.8094095682202802,-0.6819033660492321
1.7965705667673957,3.5799190669407324,-0.016118195163773854,0.7914644185453933,-0.7301295140979319
1.7936766481186999,3.439063321737855,-0.016036456488400463,0.7735994170421195,-0.7785069584210865
1.7907949387387987,3.301416207154162,-0.015982536621612906,0.7558129672211231,-0.8269403952071418
1.7879205662772375,3.166963719589777,-0.015954935173511178,0.7381035612720331,-0.8753335254435848
1.7850489282023076,3.035692118728541,-0.015952154547929906,0.7204697816306034,-0.9235887955520484
1.782175691329145,2.9075879111061056,-0.01597269959832334,0.7029103030631275,-0.9716071262463691
1.7792967914328504,2.7826378332521813,-0.01601507702717365,0.685423895313796,-1.0192876278758949
1.7764084329939944,2.6608288343007764,-0.016077794515670145,0.6680094263684735,-1.0665273003591496
1.7735070891265865,2.5421480579518594,-0.01615935956663772,0.6506658663972752,-1.113220715635582
1.77058950174203,2.426582823655739,-0.01625827803954797,0.6333922924485154,-1.1592596803637758
1.767652682006803,2.3141206068773243,-0.016373052351860692,0.6161878939783136,-1.2045328763713652
1.7646939111567097,2.204749018281049,-0.016502179315843628,0.5990519793136198,-1.2489254761133157
1.761710741736595,2.0984557816582488,-0.016644147574320072,0.5819839831619477,-1.292318730119775
1.7587009993415899,1.9952287103967628,-0.016797434592402682,0.5649834752990225,-1.3345895231114657
1.7556627849443167,1.8950556822670919,-0.01696050315507812,0.54805017058622,-1.3756098951295903
1.7525944779022447,1.797924612269913,-0.01713179731238648,0.5311839404935305,-1.4152465236697835
1.7494947397507028,1.703823423255681,-0.017309737704747467,0.5143848263312861,-1.4533601624293957
1.7463625189001255,1.6127400139875654,-0.017492716190554654,0.49765305442553864,-1.489805031881148
1.7431970563712091,1.52466222427352,-0.017679089686293552,0.4809890535083027,-1.52442815648579
1.7399978927190112,1.4395777967405863,-0.01786717311590576,0.4643934746353866,-1.5570686429709162
1.736764876317022,1.3574743347641522,-0.018055231350638537,0.44786721399166834,-1.5875568937623836
1.733498173195209,1.2783392559951992,-0.01824147000284056,0.4314114389967186,-1.6157137494043665
1.7301982786524548,1.202159740849062,-0.018424024916651727,0.4150276181826019,-1.6413495537124267
1.7268660308942316,1.1289226752284343,-0.01860095017471616,0.3987175553799168,-1.6642631355729953
1.7235026269814133,1.058614586650787,-0.018770204412152724,0.3824834288161491,-1.6842407018830519
1.7201096414166823,0.9912215728354106,-0.01892963519597034,0.3663278357991633,-1.7010546373375846
1.7166890477420924,0.9267292216784497,-0.019076961188362027,0.3502538437226197,-1.7144622089459491
1.7132432435764215,0.8651225214072262,-0.01920975176353468,0.33426504817985225,-1.724204176770867
1.7097750795859294,0.8063857595616994,-0.019325403686380544,0.31836563899268233,-1.7300033181396077
1.7062878929597929,0.7505024093089645,-0.01942111438180365,0.3025604749265896,-1.7315628815110804
1.7027855460559018,0.6974550014695566,-0.01949385121698526,0.2868551677335125,-1.728564999818607
1.6992724709999942,0.6472249805447738,-0.019540316070877747,0.2712561758751881,-1.72066911369066
1.695753721170929,0.5997925430198663,-0.019556904252065896,0.25577090773489586,-1.7075104857894627
1.692235030702474,0.5551364563383032,-0.019539656508546072,0.2404078331713781,-1.6886989334746274
1.6887228834020283,0.5132338572924091,-0.01948420238529714,0.22517660067190884,-1.6638179752595
1.6852245928697909,0.47406002930284785,-0.019385692417340238,0.21008815476766438,-1.6324246875489896
1.6817483961652635,0.4375881593908062,-0.019238715410741705,0.19515484425504104,-1.5940507170551317
1.6783035642241986,0.40378907792616303,-0.019037195045533348,0.18039050535210632,-1.5482051124982368
1.674900533567404,0.37263098797217964,-0.018774256696628352,0.1658104941365686,-1.4943799559408417
1.6715510659823178,0.344079196973226,-0.018442049804330646,0.15143162807404337,-1.4320602264958184
1.6682684463370285,0.3180958726388994,-0.01803150180999467,0.13727197564070098,-1.36073995742169
1.6650677344076654,0.2946398583752554,-0.017531964071814628,0.1233504050664441,-1.2799475768605635
1.6619660960667018,0.2736666026336536,-0.016930684161116937,0.10968576984027124,-1.189284311808483
1.658983254857893,0.25512828121043185,-0.016211995936754098,0.09629557930660393,-1.0884804546262694
1.6561421308587099,0.23897421857007117,-0.015356048498616343,0.0831940055863269,-0.9774744595266104
1.6534697762380732,0.2251517317980003,-0.014336780619567387,0.07038918076998232,-0.8565176384265141
1.6509987871303848,0.21360749839340798,-0.013118653910306489,0.05788007928103757,-0.7262994949671636
1.648769492987836,0.20428942250983795,-0.011651281006902211,0.045654097203097564,-0.5880707853466325
1.646833468393757,0.1971486268004412,-0.00986010337175046,0.03368807734573996,-0.4437101973515345
1.6452595613955823,0.19214041661687986,-0.007627752163525897,0.02195870247161922,-0.2956443279566644
1.6441461175013106,0.18922113694011955,-0.00474384666171491,0.010477738381312413,-0.1465188761037445
1.6436592169548283,0.1883281868601614,-0.0006661594103125387,-0.0005560708261992658,0.0013735759380992252
