x,y,v_x,v_y,omega
2.375,32.48,0.0,3.4871794871794872,-6.775510204081632
2.373028499822191,31.757586949460915,-0.018776192169612106,3.3929448036688976,-6.2668334271857375
2.3674506797497896,31.054474232614574,-0.034345903758017174,3.303366785343906,-5.815969112338544
2.3588842912010297,30.369723094707993,-0.04723874908731461,3.2180726232901704,-5.414465693280061
2.3478458596404765,29.702468574578088,-0.05788917053700157,3.1367323303279924,-5.055330710493569
2.3347686836543486,29.051911218758566,-0.06665536266421748,3.0590520108102943,-4.732743350011784
2.3200172982990592,28.417310065705273,-0.07383402167187285,2.984768494459162,-4.441830518333023
2.3038991721054694,27.797976648718027,-0.07967194207660264,2.913645000657475,-4.178490857570343
2.286674221632616,27.193269826410344,-0.0843752052839048,2.845467592749023,-3.9392553249533244
2.268562591466922,26.602591293296207,-0.08811651057984808,2.780042246433235,-3.7211759307964605
2.249751046492401,26.025381655240338,-0.09104106060606575,2.7171924017179236,-3.5217363513500053
2.23039824724584,25.4611169785336,-0.09327131317070499,2.6567569002509916,-3.3387796703224257
2.2106391214025365,24.909305739517478,-0.0949108377178991,2.5985882332358754,-3.170449630252072
2.190588500123776,24.369486115591258,-0.09604746017505704,2.54255104225192,-3.015142610836403
2.1703441537195194,23.84122356921644,-0.09675583891310477,2.4885208279844915,-2.8714681773911033
2.1499893343664054,23.324108684983184,-0.09709958349750183,2.43638283137982,-2.738216515793658
2.1295949126613047,22.8177552264984,-0.09713300417012324,2.386031058951447,-2.614331430895028
2.1092211782430836,22.32179838521167,-0.09690256171769726,2.337367429493603,-2.4988878623460957
2.088919361576818,21.835893197622248,-0.09644807319912108,2.2903010237390053,-2.391073086003468
2.0687329235081737,21.35971311083559,-0.09580371793082505,2.244747421848209,-2.290170935857563
2.048698650784956,20.892948679333955,-0.09499887943315007,2.200628116262598,-2.1955485120664346
2.028847588966226,20.435306378222556,-0.09405885217380473,2.1578699895602598,-2.106644943598572
2.0092058386560554,19.9865075202108,-0.09300543649448592,2.116404848646901,-2.022961855505397
1.989795236544254,19.546287265264468,-0.09185744076076673,2.076169007984865,-1.9440552557373885
1.9706339391034713,19.114393713279462,-0.09063110629430508,2.0371029156818525,-1.8695286083245137
1.95173692381869,18.690587071328977,-0.08934046784646975,1.9991508171799102,-1.7990269014495444
1.9331164203831108,18.27463888806033,-0.08799766011142561,1.9622604520453037,-1.732231552600494
1.9147822822822937,17.866331348696374,-0.08661317894397608,1.9263827799923547,-1.6688560202616176
1.8967423075252356,17.46545662485279,-0.08519610445657577,1.891471732803655,-1.6086420137890873
1.879002515902231,17.071816274036685,-0.08375429195299366,1.8574839892544963,-1.5513562112343093
1.8615673890029147,16.68522068425973,-0.08229453565954266,1.8243787705260452,-1.4967874097248468
1.8444400782720682,16.30548855969375,-0.08082270939613832,1.792117653911866,-1.4447440452225004
1.8276225855817065,15.93244644372897,-0.07934388765492471,1.7606644028955527,-1.3950520285523142
1.8111159201282725,15.565928276174247,-0.0778624499968297,1.7299848119113204,-1.3475528529353644
1.7949202349010767,15.20577498167198,-0.07638217121455831,1.700046564300767,-1.3021019351824505
1.7790349454942338,14.851834086694346,-0.07490629932680411,1.6708191021528818,-1.2585671584725444
1.7634588336342938,14.50395936274747,-0.07343762314881447,1.6422735068649774,-1.2168275894565213
1.748190137457329,14.16201049364037,-0.07197853091751749,1.614382389393117,-1.1767723464611322
1.7332266302822625,13.82585276488025,-0.07053106122597269,1.5871197892746922,-1.1382995989566176
1.718565689383421,13.495356773437823,-0.06909694733442381,1.5604610816055398,-1.101315681304773
1.704204356057712,13.170398156288893,-0.06767765576756474,1.5343828912413953,-1.0657343062132993
1.6901393881047695,12.850857336283667,-0.06627441997474594,1.5088630135702854,-1.031475865361178
1.6763673056870716,12.536619284025427,-0.06488826971761437,1.4838803412701118,-0.9984668063896538
1.6629027325195493,12.227576276625413,-0.06334576044926372,1.4593863958728928,-0.961658117218819
1.6497584145769646,11.923624506646583,-0.06183821995630557,1.4353923658302439,-0.9265832162324672
1.636927031666166,11.624660918454854,-0.06036542681320656,1.4118799026624163,-0.8931394627267953
1.624401320362474,11.330586218496428,-0.05892706179338261,1.388831525513083,-0.8612314480105588
1.612174092876785,11.041304698509158,-0.05752272378460983,1.3662305696037895,-0.830770405062732
1.6002382528012347,10.756724069174954,-0.05615194360158367,1.3440611383410068,-0.8016736727988946
1.5885868081464172,10.476755303477834,-0.05481419596810619,1.3223080587744362,-0.773864209313459
1.5772128820297326,10.20131248909249,-0.05350890990507922,1.3009568401335914,-0.7472701491045937
1.5661097213281303,9.930312689182983,-0.05223547772923011,1.2799936351950418,-0.7218243998492415
1.5552707035683024,9.663675811040683,-0.050993262840558926,1.2594052042554207,-0.6974642747875855
1.544689342292453,9.401324482035768,-0.0497816064532465,1.2391788815056692,-0.6741311572087404
1.5343592911073713,9.143183932397545,-0.04859983340467247,1.2193025436202873,-0.6517701939101475
1.5242743465981006,8.889181884376274,-0.04744725715981163,1.1997645803918144,-0.630330014838803
1.514428450264432,8.639248447373298,-0.04632318411322307,1.1805538672555906,-0.6097624764188245
1.5048156896183753,8.393316018657323,-0.04522691727779375,1.1616597395632184,-0.5900224263319257
1.4954302985632097,8.151319189313288,-0.04415775943806846,1.1430719684752142,-0.571067487749424
1.4862666571594163,7.913194655096191,-0.04311501583615418,1.124780738354265,-0.5528578612201602
1.4773192908694095,7.678881131886204,-0.04209799644962498,1.106776625550382,-0.5353561426013957
1.468582869361292,7.448319275463202,-0.041106017913400406,1.0890505784782119,-0.5185271555821584
1.460052204941622,7.221451605339027,-0.04013840513107555,1.07159389889489,-0.5023377974930848
1.4517222506782297,6.9982224324041695,-0.03919449261551731,1.0543982242942145,-0.48675689722564913
1.4435880982662725,6.778577790162615,-0.03827362559359746,1.037455511339635,-0.47175508419865375
1.4356449756838554,6.562465369344164,-0.037375160905614734,1.020758020264672,-0.4573046674125785
1.4278882446775167,6.3498344556980015,-0.03649846772618278,1.0042983001749552,-0.4433795237242682
1.4203133981126115,6.1406358707845605,-0.03564292813005808,0.9880691751911626,-0.4299549945567193
1.4129234495953322,5.934966507331566,-0.03473753393926622,0.9706866672183012,-0.44468061831678013
1.4057191405739542,5.732935327497991,-0.033874932931003125,0.9534198073871814,-0.4613859046353304
1.3986915587174327,5.534518385693829,-0.0330544180834854,0.9362653526524385,-0.47995549044076846
1.3918319475044034,5.339692403814446,-0.03227521251679425,0.9192201890559704,-0.5002772269761642
1.3851317201440254,5.148434744704346,-0.031536476629662656,0.9022813262783309,-0.5222419243621668
1.3785824720618696,4.960723386719419,-0.03083731462896416,0.8854458926257471,-0.5457431047130853
1.37217599207371,4.776536899298176,-0.030176780496365244,0.8687111304336985,-0.5706767627871046
1.3659042723611443,4.59585441945622,-0.02955388343283097,0.8520743918706322,-0.5969411331837147
1.3597595173547918,4.418655629121368,-0.02896759281814468,0.8355331351279492,-0.6244364631266129
1.3537341516233612,4.244920733229517,-0.028416842719290396,0.8190849209849256,-0.6530647898886865
1.347820826860101,4.074630438503426,-0.027900535978425102,0.8027274097397409,-0.6827297219272772
1.342012428052004,3.9077659328382204,-0.027417547908213387,0.7864583585003202,-0.7133362228027239
1.3363020789115958,3.744308865218404,-0.02696672961948474,0.7702756188312645,-0.7447903969511057
1.3306831466461844,3.5842413260917603,-0.02654691100348181,0.7541771347558001,-0.7769992763729879
1.3251492461350396,3.4275458281253854,-0.026156903388373245,0.7381609411144363,-0.8098706072835873
1.319694243581106,3.274205287268451,-0.02579550188718491,0.7222251622849344,-0.8433126357457986
1.3143122597005088,3.1242030040450466,-0.025461487451835928,0.706368011271287,-0.8772338912755867
1.3089976725102856,2.977522644998423,-0.02515362864552772,0.6905877891727472,-0.9115429673688705
1.3037451197724585,2.83414822420529,-0.024870683143301694,0.6748828850475629,-0.9461482978496781
1.2985495011507584,2.6940640847753414,-0.024611398968129278,0.6592517761900437,-0.9809579278803936
1.2934059801350277,2.55725488024677,-0.02437451546740071,0.6436930288439603,-1.015879278405661
1.2883099857875793,2.42370555578324,-0.02415876403210857,0.6282052993801415,-1.0508189027211707
1.2832572143655814,2.293401329071312,-0.0239628685583482,0.6127873359715659,-1.0856822337663024
1.2782436308739202,2.1663276708097357,-0.023785545647948006,0.5974379808053478,-1.1203733206345414
1.2732654706039692,2.0424702846729943,-0.023625504542061877,0.5821561728778989,-1.1547945526768477
1.2683192407153243,1.9218150866209456,-0.023481446778365313,0.5669409514273389,-1.1888463694398248
1.2634017219198954,1.8043481834141382,-0.023352065559052313,0.5517914600660743,-1.2224269545318882
1.2585099703308211,1.6900558501801157,-0.023236044813083775,0.5367069516865252,-1.255431911346017
1.2536413195425835,1.5789245068594617,-0.023132057932035707,0.5216867942244574,-1.2877539183868834
1.2487933830135103,1.4709406933412588,-0.023038766154376042,0.5067304773774597,-1.3192823617534202
1.2439640568276615,1.366091043075567,-0.02295481656799281,0.49183762039104423,-1.3499029421163489
1.2391515229200236,1.2643622549251106,-0.022878839695224626,0.4770079810418905,-1.3794972533061416
1.2343542528570914,1.1657410629891594,-0.022809446618415507,0.46224146596715987,-1.4079423293945565
1.2295710122744703,1.070214204098967,-0.022745225597022915,0.44753814251087326,-1.435110156919076
1.2248008660842433,0.977768382645575,-0.02268473811942501,0.4328982522833234,-1.4608671486750429
1.2200431845777207,0.8883902323567767,-0.02262651432364787,0.41832222665761754,-1.4850735753013171
1.2152976505640742,0.8020662745895457,-0.02256904771108028,0.4038107044588701,-1.507582950736156
1.21056426770252,0.7187828726470578,-0.022510789065627854,0.3893645521362698,-1.528241367556455
1.2058433702055045,0.6385261815644228,-0.02245013947737703,0.37498488674596164,-1.5468867782875386
1.2011356341131794,0.5612820927342632,-0.022385442354289825,0.3606731021126901,-1.5633482190577368
1.196442090365825,0.48703617266163235,-0.022314974287179157,0.34643089857902354,-1.5774449725808222
1.1917641399314698,0.4157735950478667,-0.022236934611441373,0.3322603167901831,-1.5889856685366663
1.187103571281594,0.3474790653053432,-0.022149433482614306,0.31816377599577955,-1.5977673212114831
1.1824625805496587,0.2821367365019114,-0.02205047825010283,0.30414411737021463,-1.6035743070777693
1.1778437947568572,0.21973011562877076,-0.02193795787181703,0.2902046528501933,-1.606177289306686
1.1732502985492197,0.1602419589854165,-0.021809625058064167,0.27634921994365597,-1.6053321026833693
1.168685664963358,0.1036541553917516,-0.021663075759667465,0.2625822428531566,-1.6007786220059361
1.1641539908297058,0.04994759588817743,-0.02149572551321033,0.248908800038053,-1.5922396511869112
1.1596599375397725,-0.0008979714008603423,-0.021304782009964895,0.23533469795280101,-1.5794198909535908
1.1552087780595874,-0.04890410244128418,-0.021087213039415527,0.22186655005125913,-1.5620050731599002
1.1508064512840082,-0.0940938354023757,-0.02083970863276806,0.20851185910199826,-1.5396613934386891
1.1464596251258738,-0.1364918860256168,-0.020558635730415026,0.19527909921460124,-1.5120354371787146
1.1421757701684059,-0.17612485954407475,-0.020239982912137394,0.18217779143740326,-1.4787548849809657
1.137963246356885,-0.21302147675322658,-0.01987929148329992,0.1692185629354551,-1.4394304144123304
1.1338314061935135,-0.24721280913400534,-0.01947156721547465,0.15641317402437122,-1.3936594004734495
1.1297907194343393,-0.2787325137513861,-0.01901116382428091,0.14377448899830317,-1.3410322770036978
1.1258529267058013,-0.3076170523667656,-0.018491624066557688,0.13131635495765992,-1.2811427761235155
1.1220312333062212,-0.33390587004017647,-0.01790545592944175,0.11905333717005133,-1.2136037273050226
1.1183405606102954,-0.3576414956892151,-0.01724380784128058,0.10700024043983757,-1.138070658895041
1.1147978823402453,-0.3788695102887729,-0.016495985206814667,0.09517132717500316,-1.0542760134020288
1.1114226886678775,-0.3976383088541411,-0.015648716434783327,0.08357913535231638,-0.962077094071169
1.1082376459964574,-0.413998565205425,-0.014685023293026834,0.07223282989802823,-0.861520263197244
1.105269559590586,-0.42800230747613455,-0.01358246628670132,0.061136144108710544,-0.7529211178261596
1.1025508094111043,-0.43970155721521564,-0.012310392565505405,0.05028528197775586,-0.636953232705335
1.1001215391190333,-0.449146631317241,-0.010825514978026855,0.039667804708170995,-0.5147241855485466
1.0980331075147158,-0.45638454614858404,-0.009064309824995951,0.02926471749506408,-0.38779717794887714
1.0963539522454175,-0.4614586725388321,-0.006927645120702534,0.019060295745422146,-0.25809812724781955
1.0951815042187671,-0.46441257593136953,-0.004238526561681415,0.009072117516862384,-0.1276505722639997
1.0946799072621656,-0.4653105666401345,-0.0005385873107148693,-0.0005198250524255672,0.0018219654927965345
