x,y,v_x,v_y,omega
2.375,32.48,0.0,2.1025641025641026,-2.979591836734694
2.374560019840578,32.063392136001816,-0.004399801594222833,2.0635145374177344,-2.8419053147075934
2.373289354744404,31.65448514306999,-0.00830684936751653,2.0255553919004803,-2.7133005982947536
2.371281467956723,31.253066109693815,-0.011772018509292903,1.9886349418612974,-2.592977208993986
2.368620216624514,30.858932132440135,-0.014840494812796368,1.9527048306754977,-2.4802194999865548
2.365380919275339,30.471889671693106,-0.0175524786789519,1.9177197767947898,-2.374386327465662
2.3616312921319005,30.091753962605797,-0.019943792755434106,1.8836373140783063,-2.2749021365777202
2.3574322720793117,29.718348475164266,-0.022046407770453854,1.8504175603370006,-2.181249246721225
2.3528387414325906,29.351504418102586,-0.02388889869675574,1.8180230102798005,-2.09296115705319
2.3479001674227726,28.99106028210827,-0.025496841401425788,1.7864183496633506,-2.0096167225206103
2.3426611674514324,28.63686141834716,-0.02689315831197711,1.755570287947745,-1.930835074895227
2.337162009591322,28.288759648835253,-0.028098420289122947,1.7254474071713346,-1.8562711831852727
2.331439056483717,27.946612905608475,-0.02913111078693152,1.6960200250964188,-1.785611964247642
2.3255251596591813,27.61028489600299,-0.030007857458423694,1.667260070958443,-1.7185728680770194
2.319450010353867,27.279644791668616,-0.030743635594718634,1.6391409723852828,-1.6548948736215572
2.3132404520802914,26.954566939205183,-0.03135194714103927,1.611637552249059,-1.5943418404810699
2.306920759517074,26.63493059054251,-0.03184497849113375,1.5847259343776734,-1.5366981698157391
2.300512887687453,26.3206196513855,-0.03223373980507407,1.55838345719244,-1.481766734499412
2.2940366948860014,26.011522446220624,-0.0325281882094437,1.5325885944563042,-1.4293670442094384
2.2875101423738786,25.707531498533214,-0.03273733691178628,1.5073208824177975,-1.3793336159319733
2.280949473484383,25.408543325019235,-0.0328693519831663,1.4825608527219947,-1.3315145244227424
2.2743753064135843,25.114460153510905,-0.03287231872482124,1.458270862361305,-1.2837163555104922
2.2678056760570375,24.825187748538916,-0.03282398484064848,1.4344531873585695,-1.2381053660184085
2.261250314805532,24.540633333269597,-0.03272962767440601,1.411090965334645,-1.1945555474430511
2.25471794902279,24.260707425953164,-0.032594030153013154,1.3881681078296957,-1.1529495252511095
2.2482163931447094,23.985323689639596,-0.032421528627794384,1.3656692553059646,-1.1131778730909294
2.2417526347040173,23.714398790579153,-0.032216055779125174,1.3435797352984395,-1.075138488794067
2.235332911212926,23.447852264703947,-0.03198117913178583,1.3218855234536477,-1.0387360259466476
2.2289627797334397,23.185606391636416,-0.03172013566308097,1.3005732072216591,-1.0038813755017622
2.222647179874243,22.9275860757154,-0.03143586292888781,1.2796299519885,-0.9704911925114675
2.216390490873043,22.673718733570958,-0.031131027083109396,1.2590434694559207,-0.9384874635913036
2.210196583352477,22.42393418781605,-0.030808048122550346,1.2388019880931154,-0.9077971112011128
2.2040688662751053,22.178164566456662,-0.030469122651167305,1.218894225500792,-0.8783516312415486
2.1980103295675626,21.936344207652365,-0.03011624442425732,1.199309362542182,-0.8500867608330248
2.192023582834755,21.698409569487314,-0.02975122290382038,1.1800370191083205,-0.8229421734690704
2.186110890541319,21.464299144436843,-0.02937570003053923,1.1610672313964008,-0.7968611990243586
2.1802742039987546,21.233953378238166,-0.02899116539510506,1.1423904305903556,-0.7717905663536279
2.174515190462085,21.007314592894915,-0.028598969971589373,1.1239974228421548,-0.7476801664452393
2.1688352596091383,20.784326913564623,-0.028200338557881073,1.1058793704607537,-0.7244828342956467
2.163235587648092,20.56493619909622,-0.027796381052580105,1.0880277742232765,-0.7021541478515734
2.157717139274443,20.349089976000897,-0.027388102683910273,1.0704344567299506,-0.6806522425277808
2.152280687676656,20.13673737565484,-0.02697641329396343,1.0530915467306066,-0.65993763995226
2.146926832770187,19.927829074546153,-0.02656213577072296,1.0359914643562746,-0.6399730897194391
2.1416560178220476,19.722317237391064,-0.02614601371066925,1.0191269071946258,-0.6207234230473312
2.1364685446123612,19.520155462956325,-0.025728718386198016,1.0024908371527461,-0.6021554173379533
2.1313645872652955,19.321298732435544,-0.025310855084456508,0.9860764680550618,-0.5842376707331796
2.1263466772065684,19.125888904870088,-0.024868245502815606,0.9680218075994892,-0.6036308295273191
2.121414584907215,18.934078604964505,-0.024452677490722344,0.9500811914563583,-0.6247977228820747
2.116562921777606,18.745845333702746,-0.024063953805366658,0.9322515211612271,-0.6476248470510414
2.1117863477760266,18.561167199449557,-0.023701786210423348,0.9145298213706686,-0.6720012761163426
2.107079588827203,18.380022893774875,-0.023365803277810966,0.896913235376145,-0.6978184190106619
2.10243745274373,18.20239166813447,-0.023055557556920934,0.8793990210279022,-0.7249697818971855
2.0978548437726183,18.028253311325926,-0.022770532154195538,0.8619845470575549,-0.7533507349450307
2.0933267758809873,17.8575881276411,-0.022510146762116788,0.8446672897906603,-0.782858282544628
2.088848384887469,17.690376915637714,-0.02227376317306278,0.8274448302432492,-0.8133908360075688
2.0844149395391565,17.52660094745349,-0.02206069031006478,0.8103148515989993,-0.8448479877884392
2.0800218516278273,17.366241948586932,-0.021870188803229072,0.7932751370665565,-0.8771302862519395
2.0756646852337597,17.209282078068327,-0.021701475137445136,0.7763235681194561,-0.9101390099868095
2.0713391651806194,17.05570390894396,-0.021553725393959014,0.7594581231242129,-0.9437759406383794
2.067041184780681,16.905490408994993,-0.02142607860542097,0.7426768763654824,-0.9779431331934745
2.06276681294603,16.758624921610362,-0.021317639741092295,0.7259779974807925,-1.0125426826043897
2.0585123007383217,16.61509114673016,-0.02122748233598954,0.7093597513212635,-1.0474764855820828
2.05427408742724,16.474873121772127,-0.02115465077482659,0.6928204982590356,-1.0826459963219144
2.050048806125892,16.337955202449535,-0.021098162238655214,0.6763586949668825,-1.1179519748473952
2.0458332890701194,16.204322043382767,-0.02105700831907105,0.6599728957007874,-1.153294226567638
2.0416245726080415,16.073958578400468,-0.021030156301709388,0.6436617541221852,-1.1885713315416075
2.037419901966124,15.946850000417925,-0.02101655011746654,0.627424025703246,-1.2236803618258814
2.0332167358587365,15.822981740770988,-0.02101511095640678,0.6112585707661078,-1.2585165851514837
2.0290127510095353,15.702339447872827,-0.02102473753560715,0.5951643582155016,-1.2929731530285213
2.024805846655154,15.584908965047887,-0.021044306008202816,0.5791404700339122,-1.32694077121402
2.020594149104677,15.47067630738255,-0.021072669496569066,0.5631861066194652,-1.3603073502979686
2.016376016432235,15.359627637414672,-0.021108657227849922,0.5473005930593269,-1.3929576339649494
2.012150043384965,15.25174923946416,-0.021151073244847957,0.5314833864457823,-1.424772802274338
2.007915066594526,15.147027492383724,-0.021198694659545533,0.5157340843585698,-1.4556300470723342
2.003670170187557,15.04544884048229,-0.021250269410143335,0.5000524346557734,-1.485402116406962
1.9994146918990054,14.946999762343022,-0.021304513475372527,0.48443834673689934,-1.5139568245677049
1.9951482298022842,14.851666737222732,-0.0213601074918395,0.4688919044659862,-1.5411565241228595
1.990870649781985,14.759436208679134,-0.021415692711151364,0.45341338096999567,-1.5668575360927333
1.9865820938885328,14.67029454502628,-0.021469866223371093,0.4380032555585327,-1.590909534194793
1.982282989730021,14.5842279961659,-0.021521175361747778,0.42266223304527767,-1.6131548789564345
1.9779740610748073,14.501222646282443,-0.021568111190387967,0.40739126578930146,-1.6334278974542338
1.9736563398596458,14.421264361821983,-0.021609100961226313,0.39219157881529054,-1.6515541045665707
1.9693311798226385,14.344338734098983,-0.021642499408846615,0.3770646984147016,-1.6673493620079707
1.965000272008679,14.27043101579019,-0.021666578730750223,0.36201248467321406,-1.6806189721761933
1.960665662428039,14.199526050481825,-0.02167951707564879,0.347037168410448,-1.6911567051710537
1.9563297721872805,14.131608194335723,-0.021679385331934788,0.33214139305059326,-1.6987437595019426
1.9519954204570211,14.06666122883476,-0.02166413197066069,0.3173282619590265,-1.7031476603699969
1.947665850695045,14.004668263462154,-0.021631565649099883,0.30260139176702916,-1.7041211045392994
1.9433447606083782,13.94561162707106,-0.021579335217568277,0.2879649721439093,-1.701400768489625
1.9390363364179937,13.8894727466235,-0.021504906686278136,0.2734238323316989,-1.6947061079108061
1.9347452920904797,13.83623201194192,-0.02140553658886188,0.2589835144840889,-1.6837381933002808
1.930476914330986,13.785868625155953,-0.021278241006075536,0.24465035337560115,-1.668178650833224
1.9262371143047021,13.738360433692417,-0.021119759256762016,0.23043156125975492,-1.647688813205756
1.922032487291608,13.693683746027126,-0.020926510874180026,0.2163353153931672,-1.621909236708372
1.9178703818158018,13.651813130111186,-0.020694543883882248,0.20237084376624292,-1.5904598153494192
1.9137589802821406,13.61272119558021,-0.02041947145272877,0.18854850154351602,-1.5529408302239631
1.909707393889751,13.57637836281286,-0.02009639247116684,0.1748798261299971,-1.5089354259678691
1.9057257757218347,13.54275262500095,-0.01971978920799643,0.1613775519890907,-1.4580142237538387
1.9018254576751503,13.511809314148483,-0.01928339125884702,0.14805555653560054,-1.399743083363171
1.8980191196836536,13.483510889015509,-0.018779988656122067,0.1349286947941492,-1.3336954371034282
1.8943210041467633,13.457816773269027,-0.01820116671277924,0.12201246267067126,-1.2594711463138526
1.8907471956188044,13.434683286214884,-0.017536918566809317,0.10932240787073841,-1.1767244474095655
1.8873159972780713,13.41406372650195,-0.01677506484052303,0.09687318925860303,-1.0852041236443106
1.884048454011018,13.395908689055588,-0.01590036783000785,0.08467718520503442,-0.9848091862032502
1.8809691010711238,13.38016671006407,-0.014893161568936605,0.07274260471012711,-0.8756622231734124
1.878107063652654,13.366785326324493,-0.013727212615760062,0.061071232685640714,-0.7581985398769199
1.8754977088652829,13.355712566653157,-0.01236633525795123,0.049656364027726704,-0.6332597626444219
1.8731851903806669,13.346898697827168,-0.010758849588209319,0.0384823242321768,-0.5021634794114151
1.8712265414012197,13.340297614634448,-0.008827640206262309,0.02752850769503665,-0.36669783160605895
1.869698941866301,13.335866340586307,-0.00644835514292522,0.016784232786381054,-0.22897430452932047
1.8687160453864693,13.333558346241652,-0.0033806096553901897,0.006295710660163463,-0.09108659767678745
