x,y,v_x,v_y,omega
2.375,32.48,0.0,3.0256410256410255,-7.020408163265306
2.373261764225751,31.852335692073037,-0.016554626421420582,2.9521142879490516,-6.5573883230512395
2.368309765376387,31.239775578266443,-0.030607267382041153,2.8817915578280524,-6.140254014429226
2.3606311332774705,30.641671331618465,-0.04252256213145192,2.8144393626288977,-5.763092004662939
2.350642536713034,30.057421033085078,-0.052606928958418925,2.7498491948319246,-5.420896934843216
2.338701318166854,29.48646431741566,-0.061118961957581805,2.6878338115434603,-5.1094108012464154
2.3251146643963096,28.928278222095006,-0.06827774061903048,2.628224239129457,-4.824994595735623
2.3101472016331925,28.38237360811947,-0.0742695237916097,2.5708673225423166,-4.564524876675405
2.2940273177307224,27.848292050730578,-0.07925318004144032,2.5156237002090096,-4.325309849649297
2.276952448661706,27.325603120132527,-0.08336462061585719,2.462366115010537,-4.105020846466584
2.2590935174362134,26.813901988746636,-0.08672043867454905,2.410977993426528,-3.901636051694502
2.2405986755920084,26.312807314159436,-0.08942091222264112,2.3613522407372782,-3.7133940395517913
2.2215964679823017,25.821959356631368,-0.0915524935840876,2.3133902119110044,-3.5387552198893606
2.2021985185391135,25.341018297588036,-0.09318988206532611,2.267000826596882,-3.376369698481122
2.1825018164971213,24.869662731449374,-0.09439775642983819,2.2220998032951464,-3.225050368040706
2.1625906680960996,24.407588307853906,-0.09523222834179663,2.1786089928521504,-3.083750286627403
2.14253836720086,23.95450650509399,-0.09574206589858159,2.1364557953375725,-2.951543587022692
2.1224086289541706,23.51014351860685,-0.09596972692703258,2.0955726473970597,-2.827609307126537
2.102256823029941,23.07423925082731,-0.09595223425610122,2.0558965695509426,-2.711217646953475
2.082131036912318,22.646546390721927,-0.09572191924507105,2.0173687647860366,-2.601718249495989
2.062072994605996,22.226829572985004,-0.09530705510085587,1.9799342612798818,-2.4985301759027263
2.0421188520617166,21.814864608254908,-0.09473239770180392,1.9435415932924878,-2.4011333041384084
2.0222998872040625,21.410437776860515,-0.09401964856156705,1.908142515225518,-2.309060927643059
2.0026430996384876,21.01334517957539,-0.09318785206295889,1.8736917446328103,-2.2218933688699587
1.9831717327815808,20.623392139675182,-0.09225373705043755,1.8401467306072679,-2.1392524537978845
1.963905729215404,20.240392651289252,-0.09123201119886432,1.807467444496836,-2.0607967190202605
1.944862128443187,19.86416886963147,-0.09013561520320279,1.7756161903391678,-1.98621724393807
1.9260554148631712,19.494550639205176,-0.0889759427017101,1.7445574327684163,-1.915234017812256
1.9074978226340922,19.131375056517008,-0.08776303090856669,1.714257640452226,-1.8475927656679643
1.889199603142461,18.774486064215317,-0.08650572615458794,1.6846851433734198,-1.7830621688469575
1.8711692599680276,18.42373407389989,-0.08521182788763504,1.6558100024877715,-1.7214314258232368
1.8534137555546824,18.078975615138944,-0.08388821414422329,1.6276038904735997,-1.6625081070896341
1.835938693209108,17.74007300848236,-0.08254095105172417,1.6000399824462737,-1.6061162647795049
1.8187484775518568,17.406894060482706,-0.08117538854114308,1.5730928556456432,-1.5520947634420765
1.8018464561212557,17.07931177893176,-0.07979624413124871,1.5467383972205109,-1.5002958032329206
1.785235044468033,16.757204106693475,-0.07840767637563267,1.5209537193346012,-1.4505836108676222
1.768915836768235,16.44045367266827,-0.07701334933673168,1.4957170809054705,-1.4028332771440046
1.752912574101086,16.12895249797446,-0.07539867606468603,1.4709607733212802,-1.350778090160813
1.7372461297405324,15.822596515204992,-0.07380555594058463,1.4467152530546081,-1.3011962776617705
1.7219118308363577,15.521280448049318,-0.07223538600393745,1.4229615769994441,-1.253940172697331
1.706904738640082,15.224902902807905,-0.07068930157964055,1.3996817110140116,-1.208872602441491
1.692219700031124,14.933366183285969,-0.0691682089818625,1.3768584749091783,-1.165866024116678
1.6778513925865022,14.646576116820295,-0.06767281430025149,1.3544754914305608,-1.124801741563933
1.663794363966197,14.364441890636169,-0.06620364875027365,1.332517138894444,-1.0855691940613434
1.6500430662916443,14.086875897799306,-0.06476109100737072,1.3109685071709172,-1.048065309957114
1.63659188611232,13.813793592088953,-0.06334538689095792,1.2898153567372046,-1.0121939185264783
1.6234351704833947,13.545113351173743,-0.061956666717854166,1.2690440805505045,-0.9778652142001789
1.610567249614546,13.280756347522058,-0.06059496060451341,1.248641668513159,-0.9449952679604783
1.5979824564950063,13.02064642652416,-0.05926021196253312,1.2285956743239752,-0.9135055812705344
1.5856751438517716,12.764709991344667,-0.05795228940160707,1.2088941845283288,-0.8833226784047585
1.573639698755691,12.512875894061555,-0.056670997227730086,1.1895257895965392,-0.8543777334902657
1.5618705551531211,12.265075332682027,-0.0554160847015092,1.1704795568751614,-0.8266062289603155
1.5503622045683128,12.021241753656842,-0.05418725420142503,1.1517450052694564,-0.799947642466269
1.5391092051931239,11.781310759543153,-0.0529841684194219,1.1333120815275883,-0.7743451596006957
1.5281061895554853,11.5452200214919,-0.051806456700944775,1.1151711380081586,-0.7497454100557578
1.517347870935926,11.31290919625966,-0.05065372062819209,1.097312911822707,-0.7260982250820991
1.5068290486819311,11.084319847466624,-0.04952553893366503,1.0797285052538468,-0.7033564143278702
1.496544612552707,10.859395370842389,-0.048421471820848556,1.0624093673579114,-0.6814755603284224
1.4864895462117316,10.638080923219626,-0.047341064759869995,1.0453472766684153,-0.6604138290873885
1.4766589299710462,10.420323355052485,-0.04628385181808661,1.0285343249233931,-0.6401317953417802
1.4670479428793928,10.206071146252217,-0.045249358578613716,1.0119629017458078,-0.6205922812394831
1.4576518642357998,9.995274345146665,-0.044237104693698966,0.9956256802118162,-0.6017602072789936
1.448474859664136,9.78802871617328,-0.04316293884595894,0.9781422147728107,-0.6112074590492563
1.4395187592726357,9.584442046482845,-0.04213325535880398,0.960778448945614,-0.6228071570265704
1.4307742920752111,9.38448955758479,-0.041147384616666983,0.943530969131126,-0.6364367065301558
1.4222323358830002,9.188147173245163,-0.04020457911867717,0.9263965007700782,-0.6519771026869967
1.413883932841403,8.995391490924657,-0.03930402127748487,0.9093719022823673,-0.6693126543921412
1.4057203033982781,8.806199754439113,-0.03844483056180114,0.8924541594847093,-0.68833071835808
1.397732858836037,8.62054982774449,-0.03762607003097327,0.8756403804640828,-0.7089214421361696
1.389913212490666,8.438420169752593,-0.0368467523058913,0.8589277908873211,-0.7309775150356598
1.3822531897717871,8.259789810087774,-0.036105845016764324,0.8423137297300057,-0.7543939259008833
1.374744837089724,8.084638325698016,-0.03540227576478987,0.825795645410539,-0.7790677267347894
1.36738042978812,7.912945818236523,-0.0347349366314383,0.8093710923179571,-0.8048978011774257
1.360152479173893,7.74469289213204,-0.03410268826596111,0.7930377277247217,-0.8317846368612678
1.3530537387301949,7.57986063326771,-0.03350436357878353,0.7767933090784168,-0.85963010067148
1.346077209592531,7.418430588189228,-0.03293877106563399,0.7606356916690258,-0.8883372159382005
1.3392161453632592,7.260384743763495,-0.032404697784573666,0.744562826671289,-0.9178099405796508
1.3324640563353018,7.105705507208729,-0.03190091200549554,0.7285727595645941,-0.9479529451990726
1.3258147131920648,6.954375686416171,-0.031426165549142564,0.7126636289359577,-0.9786713901149076
1.319262150247231,6.806378470482024,-0.030979195830225965,0.6968336656749745,-1.0098707002719345
1.3128006682852948,6.661697410365967,-0.03055872761678454,0.6810811925731699,-1.0414563369408256
1.306424837061406,6.520316399589657,-0.030163474515491253,0.665404624344068,-1.0733335650643099
1.3001294975173128,6.382219654884654,-0.029792140190159324,0.6498024680845216,-1.1054072150492866
1.293909763768935,6.247391696694514,-0.029443419318201373,0.6342733242025239,-1.1375814377352136
1.2877610249203653,6.115817329429849,-0.029115998287224287,0.6188158878419098,-1.1697594511892522
1.2816789467589234,5.987481621368232,-0.02880855563127036,0.6034289508401354,-1.2018432778873374
1.2756594733862818,5.862369884082526,-0.028519762203409994,0.5881114042618177,-1.2337334707368623
1.26969882884169,5.7404676512714445,-0.028248281078418414,0.5728622415580112,-1.265328826280462
1.2637935187749665,5.62176065685486,-0.027992767176090186,0.5576805624094442,-1.2965260832909244
1.2579403322292835,5.506234812183138,-0.027751866592318927,0.542565577321264,-1.327219604824317
1.2521363435968484,5.393876182194425,-0.027524215621348127,0.5275166130474171,-1.357301041642057
1.2463789148145112,5.2846709603362925,-0.027308439448529797,0.5125331189347927,-1.386658974743533
1.2406656978711283,5.178605442047598,-0.02710315048845071,0.4976146742908805,-1.415178534570463
1.2349946377043162,5.075665996573168,-0.026906946338332842,0.4827609968941532,-1.4427409942551508
1.2293639755711252,4.975839036856975,-0.02671840731110594,0.46797195278388776,-1.4692233340916379
1.2237722529852877,4.879110987228646,-0.026536093506393542,0.45324756748591927,-1.4944977742184817
1.2182183163231888,4.785468248563053,-0.02635854137073859,0.4385880388530617,-1.5184312723251556
1.2127013222117495,4.6948971605524825,-0.02618425969058778,0.42399375172379844,-1.5408849830467641
1.2072207438242055,4.6073839606852935,-0.026011724952689372,0.40946529463039777,-1.5617136756170777
1.2017763782245483,4.5229147394732365,-0.02583937599642713,0.3950034788177578,-1.5807651063414894
1.1963683549184747,4.44147539141137,-0.0256656078709396,0.38060935986667954,-1.5978793425777937
1.1909971457884154,4.3630515610892076,-0.025488764796290985,0.3662842622491378,-1.6128880352430375
1.185663576613049,4.2876285837994565,-0.025307132111960326,0.3520298071770499,-1.6256136374981303
1.180368840398231,4.21519141991142,-0.025118927076781244,0.33784794413759833,-1.6358685683396041
1.175114512777248,4.145724582190969,-0.024922288361152727,0.3237409865333831,-1.6434543215510042
1.1699025697747794,4.0792120551598465,-0.024715264043309978,0.3097116518582548,-1.6481605231214391
1.1647354082723733,4.015637205497601,-0.02449579788436727,0.295763106829794,-1.649763944234295
1.1596158695656573,3.9549826824060155,-0.024261713608165432,0.28189901785196536,-1.648027482847785
1.1545472664679524,3.8972303067888383,-0.02401069684616707,0.26812360707352073,-1.6426991355628784
1.1495334144959113,3.842360948065135,-0.023740274316128202,0.25444171410461186,-1.6335109940917267
1.1445786677771108,3.790354387458244,-0.023447789672447362,0.24085886310386392,-1.6201783188982377
1.1396879604576948,3.7411891667231068,-0.023130375274370778,0.22738133437362607,-1.6023987689022958
1.1348668545766158,3.6948424215516056,-0.02278491883114429,0.2140162386882971,-1.5798519039598402
1.1301215956375739,3.651289699417191,-0.022408023445446745,0.20077159116328044,-1.552199131008183
1.1254591774914051,3.610504762517344,-0.021995958899017856,0.18765637931145898,-1.5190843420742564
1.1208874187058024,3.5724593779366423,-0.021544600963865197,0.1746806166952343,-1.4801356020463694
1.1164150534505846,3.5371230994582348,-0.021049353847732776,0.16185536881340154,-1.4349683984371662
1.1120518412331968,3.5044630489784154,-0.020505048222627328,0.14919273099440927,-1.383191179453153
1.1078087018497214,3.47444371073378,-0.019905803048567622,0.1367057284783111,-1.3244141968954353
1.1036978851003885,3.4470267591519566,-0.01924483265936379,0.12440809611047624,-1.2582630485775577
1.099733189833597,3.4221709517159766,-0.018514169881508568,0.11231387947028716,-1.1843987733477457
1.0959302547867433,3.3998321321225085,-0.01770425913614507,0.10043678332464785,-1.1025468287516336
1.0923069561076368,3.379963405484446,-0.01680334733153583,0.08878918465689842,-1.0125375895935347
1.0888839658166194,3.362515562922656,-0.01579656020196295,0.0773807445030111,-0.9143606996021574
1.0856855555487663,3.347437838226803,-0.014664489968065986,0.06621663355273176,-0.8082337817372885
1.0827407770046318,3.334679053699059,-0.013381019976071988,0.055295600044836815,-0.6946811168265038
1.0800852282901714,3.324189116802568,-0.011909920161645184,0.04460856087412874,-0.5746079867862499
1.0777637641347335,3.315920599019215,-0.010199262271095678,0.03413922753875116,-0.4493407265134599
1.0758348756895921,3.309829654868107,-0.008171103873107873,0.02386976437655553,-0.3205855290399128
1.0743786910173445,3.3058745119322133,-0.005697321576869091,0.013798263584349508,-0.19025353778471893
1.0735164435668856,3.304006135815122,-0.0025145589036930957,0.003995794673656867,-0.0601263612987423
