x,y,v_x,v_y,omega
2.375,32.48,0.0,2.5128205128205128,-8.0
2.3734156263572097,31.95799644247707,-0.015089272788477964,2.4586419397787878,-7.551502971343703
2.368868792416635,31.44715570921953,-0.028213907597949922,2.406507900769212,-7.1403120951770855
2.3617462634930257,30.94706288434101,-0.039619701198329096,2.3562809075976787,-6.762311082367095
2.352386784969205,30.457330449504834,-0.049518189504724794,2.3078375194134773,-6.413934405744176
2.3410877023598493,29.97759554376077,-0.05809212106056493,2.261066344815718,-6.0920808614399915
2.3281105379447284,29.50751760536706,-0.06549992098820512,2.2158664017910352,-5.794042794196866
2.313685713475296,29.046776328317474,-0.07187935967305555,2.1721457605859733,-5.517447748527483
2.298016568887742,28.59506988018064,-0.0773505887798448,2.1298204121457625,-5.260210061463668
2.2812827967761224,28.152113338536342,-0.08201866942605475,2.088813317799946,-5.0204904716454894
2.2636433891024397,27.71763731157108,-0.08597568937092104,2.049053605678739,-4.7966622387792155
2.245239174480316,27.29138671486371,-0.08930254512549615,2.0104758867724115,-4.587282585309397
2.226195010095532,26.873119681484493,-0.09207044901530308,1.97301966922014,-4.391068515439803
2.206621680996084,26.46260658656928,-0.0943422090746795,1.9366288537818745,-4.206876254587585
2.1866175504162433,26.05962917075481,-0.09617332025713746,1.901251296832112,-4.03368369879369
2.1662699974870083,25.663979749452484,-0.09761289811652564,1.8668384298567449,-3.870575378616059
2.145656672748384,25.275460497033976,-0.09870448034656508,1.8333449265099988,-3.716729533017623
2.1248465970278048,24.89388279670782,-0.09948671699228474,1.8007284099295646,-3.5714069612417214
2.1039011252619226,24.519066648262324,-0.0999939664923052,1.7689491943132698,-3.433941378778709
2.0828747935442853,24.150840126999924,-0.10025681177090874,1.7379700558048292,-3.3037310503982122
2.061816064945388,23.789038888139906,-0.10030250821859148,1.7077560285762903,-3.1802315112384156
2.0407679873689952,23.43350571175859,-0.10015537346133799,1.6782742226743472,-3.062949217941558
2.019768774796244,23.084090083998994,-0.09983712723152884,1.6494936607503345,-2.9514359972239923
1.9988523216605025,22.740647810839437,-0.09936718834696233,1.621385131245457,-2.845284180177175
1.9780486587380361,22.4030406611814,-0.09876293472414675,1.5939210559739339,-2.744122327881703
1.9573843577892538,22.071136036417062,-0.09803993145473386,1.5670753703531155,-2.647611468266085
1.936882891207813,21.74480666397769,-0.09721213122565345,1.540823414783773,-2.5554417760999564
1.9165649521017292,21.423930312656363,-0.09629205073705155,1.5151418358955295,-2.4673296380129157
1.8964487395185279,21.108389527749615,-0.09529092624581627,1.4900084965496798,-2.3830150528239544
1.8765799882490506,20.79808177497275,-0.0939352763206346,1.4653034346585527,-2.2945699509264217
1.856999132617085,20.492908200879434,-0.09254906303141852,1.44111155670641,-2.2103359792725383
1.8377119322311297,20.192763068315053,-0.09113855969196558,1.4174135153352962,-2.130060982812193
1.8187229031804255,19.8975446026682,-0.08970933602902698,1.3941909193966227,-2.0535107980539213
1.8000354579386748,19.60715479742662,-0.0882663329400277,1.3714262733803328,-1.9804677631455871
1.7816520304317833,19.321499231960345,-0.0868139290303678,1.34910292153658,-1.9107293681825313
1.763574187895222,19.040486900592207,-0.08535599988926333,1.327204996255179,-1.8441070309614502
1.745802730957803,18.764030052102314,-0.0838959709432992,1.305717370315247,-1.78042498512451
1.7283377832233233,18.49204403889005,-0.0824368646231735,1.2846256126587123,-1.7195192691429275
1.7111788714765261,18.224447175086233,-0.08098134248918076,1.2639159473776125,-1.661236805903506
1.6943249975124637,17.961160602969706,-0.07953174288284356,1.2435752156369637,-1.6054345638116765
1.6777747024763352,17.702108167098096,-0.07809011460409421,1.223590840283117,-1.5519787913328822
1.6615261245022226,17.44721629561257,-0.07665824705412033,1.2039507929123592,-1.5007443177796806
1.6455770503521567,17.196413888221137,-0.07523769723222129,1.1846435631965442,-1.45161391393102
1.6299249616801492,16.94963221040588,-0.07382981392975393,1.165658130282089,-1.4044777067567178
1.6145670764779418,16.706804793436174,-0.07243575942460367,1.146983936096065,-1.3592326431261879
1.5995003861991488,16.46786733980318,-0.07105652894485326,1.1286108604086185,-1.3157819979162142
1.5847216890052607,16.23275763372122,-0.06969296813979552,1.110529197514807,-1.2740349224069265
1.5702276195297746,16.001415456368978,-0.06834578876959677,1.092729634411329,-1.23390602927574
1.5560146755148314,15.77378250556854,-0.06701558280129097,1.075203230354731,-1.1953150108725108
1.5420792416375098,15.54980231962304,-0.06570283507796028,1.0579413976976544,-1.1581862877912632
1.5284176108098178,15.32942020505438,-0.06440793470958345,1.0409358839086542,-1.1224486850495499
1.5150260032069423,15.112583168001606,-0.06313118531780182,1.0241787546892016,-1.0880351334501497
1.5019005832520607,14.899239849057818,-0.061872814252499034,1.0076623781087795,-1.0548823939351655
1.489037474762583,14.689340461339413,-0.060632980885384144,0.9913794096855647,-1.022930802952947
1.4764443026622023,14.48299579927285,-0.05930199149919486,0.9738078480912403,-1.0222467303753429
1.464125988003965,14.280328007794203,-0.05801529096020772,0.9563615945625301,-1.0239816689884478
1.4520732848439977,14.081311156443064,-0.05677235818233842,0.9390369897340315,-1.0280000959623734
1.4402770665703635,13.885920066859189,-0.05557257775703259,0.9218305301124147,-1.034170643818723
1.4287283447750498,13.694130280781724,-0.05441524886500154,0.9047388611015269,-1.0423657874580485
1.417418286331125,13.505918029454957,-0.053299593458092064,0.8877587705819715,-1.052461543626389
1.406338228822731,13.321260204327004,-0.052224763764708415,0.870887183017577,-1.0643371815185088
1.3954796944648122,13.140134328933378,-0.05118984916785247,0.8541211540645788,-1.0778749432744912
1.384834402639604,12.962518531862024,-0.050193882500796955,0.8374578656626053,-1.092959773176426
1.3743942811678496,12.788391520700529,-0.04923584580162581,0.8208946215897164,-1.109479054393437
1.3641514764244236,12.61773255686959,-0.04831467556433568,0.8044288434668322,-1.1273223521566014
1.3540983624004774,12.45052143124958,-0.04742926752086657,0.7880580671999292,-1.146381162270633
1.3442275488073308,12.28673844050919,-0.04657848098529228,0.7717799398514189,-1.1665486638867228
1.3345318883110902,12.126364364046598,-0.04576114278842823,0.755592216935183,-1.1877194754707514
1.3250044829813354,11.969380441454454,-0.04497605082828276,0.7394927601328628,-1.2097894129032283
1.315638690032164,11.815768350420122,-0.04422197725906487,0.7234795354322214,-1.2326552486417455
1.3064281269293834,11.665510184972103,-0.043497671338845925,0.7075506116917565,-1.2562144708633476
1.2973666759336941,11.518588433982345,-0.04280186195343175,0.6917041596392877,-1.280365041482881
1.2884484881462748,11.374985959832038,-0.04213325983151476,0.6759384513160137,-1.3050051519138737
1.2796679871202752,11.23468597714579,-0.041490559463719864,0.6602518599815929,-1.3300329754005782
1.2710198720993349,11.097672031495204,-0.04087244073571103,0.6446428605001954,-1.3553464147032306
1.2624991209423635,10.963927977968293,-0.04027757028306425,0.6291100302322782,-1.3808428438630378
1.254100992792465,10.833437959495381,-0.039704602573112105,0.6136520504621082,-1.4064188427086861
1.245821030547066,10.706186384815187,-0.03915218071639993,0.5982677083968894,-1.4319699226920293
1.237655063186032,10.582157905956631,-0.038618937007735214,0.5829558997798225,-1.4573902425570096
1.2295992080148466,10.461337395102252,-0.03810349319403076,0.5677156321666368,-1.4825723122528485
1.221649872880837,10.343709920687822,-0.03760446046320489,0.5525460289231875,-1.5074066834005015
1.2138037584219468,10.22926072257976,-0.03712043914527236,0.5374463340107345,-1.5317816245110683
1.2060578604097865,10.117975186156894,-0.036650018113396805,0.5224159176356159,-1.5555827790376746
1.1984094722516314,10.009838815105763,-0.036191773869033175,0.507454282851353,-1.5786928042205544
1.190856187719795,9.904837202718912,-0.03574426929131398,0.49256107321388715,-1.6009909885621134
1.1833959039814284,9.802956001462952,-0.03530605202646377,0.4777360816047925,-1.6223528456498881
1.1760268250073898,9.704180890557382,-0.034875652488189496,0.46297926035303016,-1.6426496819381144
1.1687474654454968,9.608497541275977,-0.03445158143460028,0.4482907328031987,-1.6617481360140989
1.161556655051343,9.515891579649427,-0.03403232708114957,0.4336708064972888,-1.679509686829401
1.1544535437790886,9.426348546210665,-0.03361635170222475,0.4191199881575925,-1.6957901283901802
1.147437607645409,9.339853852382678,-0.03320208766615415,0.4046390006803826,-1.7104390085071388
1.1405086554923345,9.256392733062096,-0.03278793283931569,0.3902288023727631,-1.723299029447112
1.1336668367893457,9.17595019490074,-0.03237224528438792,0.37589060868779123,-1.7342054087667456
1.1269126506321472,9.098510959731438,-0.03195333716512185,0.3616259167341065,-1.7429851993294752
1.120246956115568,9.024059402524738,-0.03152946775468069,0.3474365328535055,-1.7494565686296673
1.1136709842816332,8.95257948320032,-0.031098835425649167,0.3333246035695307,-1.7534280392392003
1.1071863518719736,8.884054671553823,-0.030659568475871406,0.3192926502066369,-1.754697694685082
1.100795077147613,8.8184678644994,-0.030209714613276772,0.30534360745452754,-1.753052358687818
1.0944995980806398,8.75580129477687,-0.029747228881704623,0.2914808660933989,-1.748266760895009
1.0883027932739167,8.69603643023866,-0.029269959753752874,0.2777083199847767,-1.740102709670965
1.0822080060307102,8.639153862829797,-0.02877563303869027,0.2640304172424922,-1.7283083030435387
1.076219072081687,8.58513318642439,-0.0282618331424812,0.250452215189945,-1.7126172238116275
1.0703403515908503,8.53395286281567,-0.027725981055965625,0.23697943822641923,-1.6927481858207234
1.0645767662179424,8.485590075418422,-0.027165308209823023,0.2236185369854816,-1.6684046279345761
1.0589338422330061,8.440020570698966,-0.026576824980045186,0.2103767460569591,-1.6392747935935317
1.0534177609905275,8.397218488093518,-0.025957282091179444,0.19726213589970215,-1.6050323915710303
1.048035418524557,8.357156180345523,-0.025303122346633646,0.1842836521764337,-1.5653381136177302
1.0427944966978386,8.319804027974552,-0.024610418860208764,0.17145113230901002,-1.519842394785242
1.037703549344426,8.285130254237309,-0.023874794029435736,0.15877528423616138,-1.468189951487947
1.032772108367977,8.25310075078401,-0.023091310508173934,0.14626760579524206,-1.4100268301915455
1.0280108170764073,8.223678929641551,-0.02225432084010855,0.1339402146091284,-1.3450109521086657
1.0234316015745613,8.19682562455996,-0.021357255367949593,0.12180554807269453,-1.2728274406489637
1.0190478964423504,8.172499074354523,-0.02039231731977365,0.10987588245526415,-1.1932103323597214
1.014874949146075,8.150655032284039,-0.019350037882848992,0.09816261345410673,-1.1059724950709304
1.01093024004451,8.13124705689005,-0.018218620227294282,0.086675247441029,-1.0110454715844752
1.0072340734610752,8.114227046164519,-0.0169829662816072,0.07542009280213363,-0.9085300610610965
1.003810423201066,8.099546067719114,-0.015623226670860425,0.06439874953507183,-0.7987559299819134
1.0006881589694665,8.087155492609778,-0.014112623153897804,0.053606727696714505,-0.6823432930743188
0.9979028533829097,8.07700832608008,-0.012414096718070597,0.04303295353852256,-0.560250864294089
0.9954995208033239,8.069060393412126,-0.010474784992270227,0.032661643299114355,-0.43378288827388634
0.9935370451281444,8.063270587275944,-0.008215459533247886,0.022479367521653637,-0.3045194502702503
0.9920964719772125,8.059598347827396,-0.005504284761341397,0.01249434151214727,-0.17413781174924958
0.991302550216171,8.057992227311956,-0.002056874867625671,0.0028020443491768143,-0.04412694741747031
