x,y,v_x,v_y,omega
2.375,32.48,0.0,3.230769230769231,-7.26530612244898
2.3735999666752097,31.905060550553,-0.015555925831005454,3.157446874197421,-6.823360798598895
2.369596466884129,31.343056713553995,-0.028927405180999552,3.0870402035692903,-6.421556310217819
2.3633562105978405,30.793481187386888,-0.04040877577776004,3.019354531620791,-6.055128259185684
2.355196836498244,30.255860004890092,-0.05025093643998227,2.954214162788043,-5.71998748147854
2.3453940856262223,29.729749346031678,-0.058668517693588836,2.891459824527651,-5.412609722489852
2.3341878040766586,29.21473277257642,-0.06584572174601071,2.830946547197451,-5.129945753134184
2.321786989240858,28.710418812469772,-0.07194110976288615,2.772541898431966,-4.869347674359169
2.3083740499343146,28.21643883657709,-0.07709154919870605,2.7161245003756047,-4.628508143048236
2.294108416785682,27.732445181821333,-0.08141548578609935,2.6615827746883536,-4.405409985465858
2.2791296128750265,27.25810948356782,-0.08501566877674127,2.6088138725729118,-4.198284215992459
2.2635598739151996,26.79312118696484,-0.08798143077688841,2.5577227563491043,-4.005574898118989
2.2475063909040545,26.337186212340747,-0.0903906026802826,2.508221406140839,-3.8259096062721154
2.2310632351331527,25.890025754031548,-0.09231112810751269,2.4602281306280305,-3.65807449587664
2.2143130149734778,25.451375195427506,-0.09380242922221008,2.4136669649724327,-3.5009931831223597
2.1973283054083286,25.0209831257767,-0.0949165659461158,2.3684671422587407,-3.353708788352555
2.1801728844209545,24.598610446514137,-0.09569922280248279,2.324562627325308,-3.2153686175629352
2.162902804741873,24.1840295567076,-0.09619055140953398,2.281891703858418,-3.0852110524569913
2.145567324864738,23.77702360871109,-0.0964258916697456,2.2403966072139068,-2.9625542963161853
2.1282097194524163,23.37738582635859,-0.09643639068938357,2.2000231967027544,-2.846786684764571
2.1108679861212916,22.984918879066058,-0.0962495352120023,2.1607206621031523,-2.737358320515335
2.093575462988986,22.599434306077338,-0.09588961070250443,2.1224412599937477,-2.6337738318308315
2.0763613692009835,22.22075198582151,-0.09537809805307786,2.0851400761821037,-2.5355860876086225
2.059251278836868,21.848699645969695,-0.0947340171037624,2.0487748110603174,-2.4423907292079945
2.0422675370741885,21.483112410308014,-0.09397422470378361,2.0133055851805826,-2.3538214015201695
2.025429626206509,21.123832378996394,-0.09311367382599296,1.978694762726298,-2.2695455842818255
2.0087544880306822,20.770708239172365,-0.09216563923874603,1.9449067908740338,-2.189260939966671
1.9922568082032188,20.4235949031958,-0.0911419143997355,1.91190805331005,-2.112692107347044
1.9759492673891401,20.08235317212266,-0.09005298353447388,1.8796667363914836,-2.039587880464452
1.9598427633663846,19.746849422250342,-0.08890817227391902,1.8481527066342323,-1.969718721661094
1.9439466076859058,19.416955312799693,-0.08771577973140268,1.8173373983729733,-1.9028745648080805
1.9282687000066554,19.092547512994063,-0.08648319448249076,1.7871937105784914,-1.8388628711672999
1.9128156828128717,18.773507446967628,-0.08521699655954743,1.7576959119374678,-1.7775069056439372
1.8975930788677768,18.459721055086955,-0.0839230472748427,1.7288195534033082,-1.7186442056900166
1.882605413454054,18.15107857040421,-0.08260656843318744,1.700541387516074,-1.6621252189410096
1.8678563231898664,17.847474309079708,-0.08127221228000907,1.67283929386727,-1.6078120889185845
1.853348652983394,17.54880647371789,-0.07992412334745996,1.6456922101529377,-1.5555775709046489
1.8390845424937114,17.254976968655537,-0.07856599320457051,1.6190800683176532,-1.5053040624609062
1.825065503296789,16.965891226326,-0.07720110898345632,1.5929837353438927,-1.456882735097225
1.811292487808796,16.681458043899234,-0.07583239643868818,1.5673849582868193,-1.4102127553337083
1.7977659508914734,16.401589429465897,-0.07446245819822933,1.542266313194734,-1.365200584899271
1.7844859049534865,16.126200457095184,-0.07309360777940245,1.5176111575909634,-1.3217593511004642
1.7714519692650295,15.855209130151799,-0.0717278998701221,1.4934035862244273,-1.2798082795089833
1.7586708696995328,15.588539725713446,-0.07028431752428461,1.4695897964239533,-1.236769410487074
1.746147772427876,15.326119005154453,-0.06886120771634721,1.4461959875648511,-1.1955466794635574
1.7338789342900642,15.067872637662276,-0.06745921603711556,1.4232080956815496,-1.1560430541146813
1.7218605082547493,14.813728770086847,-0.0660788510219376,1.4006126551565372,-1.1181676667137892
1.710088566644496,14.563617922145536,-0.06472050020310009,1.3783967664135905,-1.0818353596332309
1.6985591216302063,14.317472887255676,-0.06338444440012078,1.3565480656959736,-1.0469662688584624
1.687268143294135,14.075228638633558,-0.062070870445115084,1.335054696772004,-1.0134854419644674
1.6762115755275133,13.836822240325912,-0.06077988251734813,1.31390528442406,-0.9813224873701943
1.6653853499992746,13.602192762864696,-0.05951151224085957,1.293088909589428,-0.9504112520111703
1.6547853984062804,13.371281203258722,-0.058265727681299624,1.27259508603253,-0.9206895248588098
1.6444076631923366,13.144030409056363,-0.05704244136252034,1.2524137384381295,-0.8920987639715553
1.6342481069028323,12.920385006232749,-0.05584151740975005,1.2325351818242434,-0.864583844991639
1.6243027203236853,12.700291330672211,-0.05466277791410269,1.212950102181735,-0.8380928292052521
1.6145675295371884,12.4836973630329,-0.0535060086025307,1.1936495382550822,-0.8125767494661166
1.605038602013046,12.270552666795236,-0.05237096388794058,1.1746248643856205,-0.7879894124454107
1.5957120518402004,12.060808329309502,-0.05125737136589969,1.1558677743447732,-0.7642872158168948
1.5865840441937364,11.854416905670334,-0.05016493581703436,1.1373702660904286,-0.7414289791168603
1.5776507991211068,11.651332365257566,-0.049093342767737344,1.119124627384781,-0.7193757871358722
1.5689085947229648,11.451510040793437,-0.048042261656062575,1.1011234222166584,-0.6980908448047012
1.5603537697959053,11.25490657977613,-0.04701134864459889,1.083359477975659,-0.6775393426316368
1.5519827259973071,11.061479898158677,-0.04600024911760354,1.0658258733293589,-0.6576883318337229
1.5437919295861122,10.871189136150775,-0.045008599895671936,1.0485159267584483,-0.6385066083813581
1.535777912787712,10.683994616028798,-0.044036031197663486,1.0314231857079672,-0.6199646052450843
1.5279372748260427,10.499857801846655,-0.043082168376441236,1.014541416315834,-0.6020342921960231
1.5202666826614677,10.31874126094679,-0.042146633452170186,0.9978645936826487,-0.5846890825680366
1.512770954851519,10.140832111729814,-0.041139231102815456,0.9789037309504138,-0.6174744334739046
1.5054517138397054,9.966326383812397,-0.04018566902844798,0.9600488014653298,-0.6515818099207827
1.4982994310333617,9.79520524831468,-0.039284139930927005,0.9412971485092897,-0.6869026631389157
1.4913049035226966,9.627450344874418,-0.03843283240979463,0.9226462230491551,-0.723330140274751
1.4844592546003246,9.46304376251836,-0.03762993339433938,0.904093580907042,-0.7607588443295022
1.477753933870808,9.30196802100814,-0.03687363026695734,0.8856368803176448,-0.7990845961972115
1.471180717004097,9.144206052591088,-0.0361621126964981,0.8672738798718274,-0.838204197755471
1.464731705183607,8.989741184086238,-0.035493574197834644,0.8490024368487306,-0.8780151949454841
1.4583993242969662,8.838557119235087,-0.03486621343150597,0.8308205059418338,-0.9184156397532431
1.4521763239151875,8.690637921245422,-0.03427823525492489,0.8127261383877972,-0.959303849969883
1.4460557761041573,8.545967995454571,-0.03372785153430012,0.7947174815105585,-1.0005781655662458
1.4400310741109044,8.404532072035881,-0.033213281724066214,0.776792778697118,-1.0421367004637927
1.434095930966098,8.26631518866882,-0.0327327532182235,0.7589503698257758,-1.0838770884205633
1.4282443780436598,8.131302673088985,-0.032284501475535694,0.7411886921723665,-1.1256962216761686
1.4224707636182428,7.999480125429191,-0.0318667699179876,0.7235062818253399,-1.1674899809129793
1.4167697514616924,7.870833400256728,-0.031477809599238536,0.7059017756464598,-1.209152954990856
1.4111363195204323,7.745348588204699,-0.0311158786369857,0.6883739138205405,-1.2505781487990042
1.405565758717091,7.623011997086788,-0.030779241400139025,0.6709215430451339,-1.2916566774398792
1.4000536719216166,7.503810132374966,-0.030466167438465433,0.6535436204195527,-1.332277444815555
1.3945959731396589,7.387729676908005,-0.030174930138840546,0.6362392181022275,-1.3723268045257846
1.3891888869692073,7.274757469685337,-0.029903805088400674,0.6190075288163241,-1.4116882008084493
1.3838289483803918,7.164880483585229,-0.029651068120661112,0.6018478722959943,-1.4502417870569206
1.3785130028780928,7.058085801828405,-0.029414993015995428,0.5847597027798168,-1.4878640192352857
1.3732382071126115,6.954360592987545,-0.02919384882268319,0.5677426176741693,-1.5244272212825074
1.3680020300102647,6.853692084319377,-0.028985896758948443,0.5507963675277127,-1.5597991193527958
1.3628022545034653,6.756067533168757,-0.028789386649933864,0.5339208674791679,-1.5938423414860305
1.3576369799488064,6.661474196162835,-0.02860255284627615,0.5171162103644241,-1.6264138790460563
1.3525046253319952,6.569899295877395,-0.028423609562736363,0.5003826816960139,-1.6573645060171036
1.3474039333704055,6.481329984616497,-0.028250745566038755,0.4837207767584042,-1.6865381520262583
1.342333975637718,6.395753304899554,-0.028082118130491256,0.4671312200965334,-1.7137712247878003
1.3372941588508664,6.313156146196732,-0.027915846167859564,0.45061498771260866,-1.7388918775800717
1.332284232477596,6.233525197393156,-0.027750002424034012,0.4341733323271093,-1.7617192174207434
1.3273042978437364,6.156846894394398,-0.02758260461885171,0.41780781210352863,-1.7820624498792055
1.322354818943259,6.08310736220977,-0.027411605386451175,0.4015203232812273,-1.7997199570665903
1.3174366351818931,6.012292350766067,-0.027234880850948225,0.38531313720435045,-1.8144783064346006
1.3125509763172685,5.944387163613122,-0.027050217644881355,0.3691889422728356,-1.826111189823319
1.3076994798962618,5.879376578585518,-0.02685529814408174,0.3531508913672165,-1.8343782950548586
1.3028842115348116,5.817244759385353,-0.026647683649809604,0.33720265530128773,-1.839024116746664
1.2981076884389386,5.757975156954554,-0.02642479519322233,0.3213484828186923,-1.8397767195944037
1.293372906630936,5.7015503994218335,-0.026183891562361797,0.3055932675448734,-1.8363464771256675
1.2886833724259852,5.647952169354291,-0.025922044048203106,0.28994262209449817,-1.8284248232563014
1.284043138808379,5.597161067041778,-0.025636107258531535,0.2744029591556547,-1.8156830749115858
1.27945684749324,5.549156458631668,-0.025322685131903756,0.25898157873445715,-1.7977714144093393
1.2749297776450543,5.503916308171593,-0.024978090959048398,0.24368675971080747,-1.7743181644061943
1.2704679024838015,5.461416993097227,-0.02459829972153802,0.22852785222658117,-1.7449295519205903
1.266077955383393,5.4216331035550915,-0.02417889028300206,0.2135153649082692,-1.7091902496500173
1.2617675076207433,5.384537227374395,-0.023714973746439202,0.1986610370994694,-1.666665114123314
1.257545060772499,5.350099724784155,-0.023201102345165068,0.18397788056987435,-1.6169027268087104
1.2534201580511624,5.318288500517983,-0.022631150114129285,0.16948016683201322,-1.5594416060144742
1.2494035209000336,5.289068786308981,-0.021998151565080226,0.1551833243791399,-1.4938203168126338
1.2455072203741078,5.2624029546420985,-0.021294076500762538,0.14110369414178964,-1.4195931820984637
1.2417448979378205,5.2382503957447994,-0.020509506124652254,0.12725807138375436,-1.336353887603313
1.2381320584422486,5.216567504645575,-0.01963315493725733,0.11366294082987054,-1.2437699106840758
1.234686470962654,5.19730784314584,-0.018651150391572377,0.10033329805608586,-1.1416311655064546
1.2314287335691632,5.1804225593166,-0.017545931758325646,0.08728096671325357,-1.0299159944678593
1.2283830900992758,5.165861154817652,-0.016294551240422776,0.0745124166083819,-0.9088754870649269
1.2255786375359528,5.153572665593238,-0.014866032796501252,0.0620263525517867,-0.7791310254931183
1.2230511465598155,5.1435072210399255,-0.013217200271689482,0.04981192026280353,-0.6417672605570126
1.220845879553326,5.135617697484726,-0.01128576646708276,0.037849452572737884,-0.49838223560002454
1.2190221956383203,5.129860660277398,-0.008977388144090468,0.026117627508685612,-0.3510338037803893
1.2176621220985193,5.126194633650002,-0.006134540075920998,0.014616001684620884,-0.2020142061979803
1.2168921389110925,5.124569411720106,-0.00242082867326699,0.003442019758653875,-0.05342283437202089
