x,y,v_x,v_y,omega
2.375,32.48,0.0,3.0256410256410255,-6.408163265306122
2.3738512581756317,31.94128052132315,-0.012763798048535644,2.9601309596572447,-6.040454508278432
2.37055830354745,31.41413448917899,-0.023824586709042993,2.8970471752778946,-5.704043231574623
2.3654081666765796,30.89813876085309,-0.03339915630062726,2.836238695009883,-5.395435154441435
2.358651571857699,30.39289614515629,-0.041674119464710474,2.777568146065701,-5.111602318351433
2.3505079469755272,29.898033106139817,-0.0488106014483084,2.720910065228428,-4.8499113727308005
2.341169662683998,29.413197747286997,-0.054948112902016545,2.666149477580672,-4.608064354466268
2.3308056336568366,28.938058031703378,-0.06020776517755667,2.613180695570673,-4.384049519960873
2.3195643890202122,28.47230020238456,-0.064694953007156,2.56190629686065,-4.176100319444621
2.3075766989858186,28.015627373309393,-0.06850160293055121,2.51223624841896,-3.982661006636505
2.294957828819231,27.567758267346655,-0.07170806558709016,2.4640871511670404,-3.80235768625111
2.2818094786227126,27.12842608111518,-0.0743847143742257,2.417381584738232,-3.633973841224676
2.2682214572552524,26.697377460252724,-0.076593300819776,2.3720475359556996,-3.476429568241507
2.2542731305085666,26.27437157121586,-0.07838810747673343,2.3280178977872636,-3.328763896849458
2.2400346769911343,25.859179257894645,-0.07981693160584763,2.2852300280039564,-3.1901196835274535
2.2255681797253026,25.45158227308969,-0.08092192690339094,2.243625358717787,-3.0597306644929554
2.2109285769895712,25.051372576348037,-0.08174032571584916,2.203149049522806,-2.9369103250690234
2.1961644922481214,24.658351690852758,-0.08230506030025884,2.1637496782025227,-2.821042303057937
2.181318959952429,24.27233011305774,-0.08264529854076538,2.1253789639643488,-2.7115720918422332
2.1664300614567553,23.893126769593636,-0.0827869069667223,2.087991518970161,-2.6079998482053264
2.151531483166168,23.520568516673123,-0.08275285181758116,2.0515446245910867,-2.5098741419564266
2.136653007257006,23.154489677817967,-0.08256354717310596,2.015998029355067,-2.4167865107825293
2.1218209438146496,22.79473161623588,-0.08223715774196558,1.98131376600148,-2.3283667054525212
2.107058511973027,22.44114233860734,-0.08178986272051096,1.9474559854267166,-2.2442785284489157
2.092386176574571,22.093576127413783,-0.08123608615122124,1.9143908056127628,-2.164216184003417
2.077821945965799,21.751893199258625,-0.080588698390685,1.8820861738890422,-2.087901069923874
2.0633816357756496,21.41595938691004,-0.07985919261097796,1.85051174109521,-2.015078951971688
2.0490791028692437,21.085645843035785,-0.07905783968242133,1.8196387463965382,-1.9455174702425428
2.034926453110743,20.760828763810707,-0.07819382430091963,1.789439911659871,-1.8790039343123488
2.020934226090411,20.441389130762474,-0.07727536481388421,1.7598893444315742,-1.8153433700726056
2.0071115595604376,20.12721246938304,-0.07630981885248345,1.730962448673276,-1.754356786388933
1.993466335971133,19.81818862317658,-0.0753037765842341,1.7026358425096095,-1.6958796341321671
1.980005313195033,19.51421154194127,-0.07426314315020967,1.6748872823271874,-1.6397604338835194
1.9667342412640645,19.21517908319443,-0.07319321163833065,1.6476955926377193,-1.5858595518112852
1.9536579667179925,18.920992825750623,-0.07209872776246962,1.6210406011822946,-1.5340481059452353
1.9407805259658268,18.63155789455134,-0.07098394726159296,1.5949030788097873,-1.4842069874097288
1.9281052288912994,18.34678279592444,-0.06985268689982319,1.5692646837113167,-1.4362259831789075
1.9156347337852768,18.066579262523206,-0.06870836983376125,1.5441079096356969,-1.3900029886380763
1.903371114558904,17.790862107258615,-0.06755406601482533,1.5194160377486723,-1.3454432997171626
1.8913159210787267,17.51954908559634,-0.06639252820936585,1.495173091832159,-1.3024589756406906
1.8794766193686523,17.252564035530664,-0.06515526856923881,1.471327464453125,-1.258621971179965
1.8678590681695635,16.989833305932613,-0.0639286336428582,1.44790286441412,-1.2166378851375506
1.8564612455031404,16.73128238159904,-0.06271384042851078,1.4248851837366796,-1.1764075740306408
1.845280926136257,16.476839232694036,-0.06151193031463711,1.4022609152078027,-1.137838201685951
1.8343157114792294,16.226434209533917,-0.06032378809677921,1.380017119904627,-1.1008427736217166
1.8235630562425666,15.979999943028801,-0.05915015897725223,1.3581413968188714,-1.065339710421275
1.8130202921954028,15.737471250417133,-0.05799166376901428,1.3366218544218667,-1.0312524564519794
1.8026846493312272,15.498785045956929,-0.05684881249960434,1.3154470840248544,-0.9985091206592622
1.7925532747132933,15.263880256262535,-0.055722016588547245,1.2946061348017452,-0.9670421464993687
1.782623249242655,15.032697739998625,-0.054611599751880874,1.2740884903528003,-0.9367880083707952
1.7728916025656773,14.805180211664062,-0.053517807770093746,1.2538840466979002,-0.9076869321682763
1.7633553263147266,14.581272169217495,-0.05244081724046759,1.233983091597287,-0.8796826378181877
1.7540113858551643,14.360919825314198,-0.05138074342133785,1.2143762851060238,-0.852722101863865
1.744856730693494,14.144071041939814,-0.05033764726388809,1.1950546412760084,-0.8267553383565569
1.7358883036852513,13.930675268241611,-0.04931154171658493,1.1760095109262567,-0.8017351964751304
1.7271030491667325,13.720683481371488,-0.04830239737806791,1.157232565408453,-0.7776171734475026
1.718497920121759,13.514048130167687,-0.04731014756608393,1.1387157813004585,-0.7543592414810728
1.710069884483162,13.310723081513736,-0.04633469286277006,1.1204514259656824,-0.7319216875299286
1.7018159306584013,13.110663569223938,-0.04537590519012764,1.1024320439209636,-0.7102669648348295
1.693733072359548,12.913826145314655,-0.044433631463796926,1.0846504439599525,-0.6893595552692908
1.6858183528096728,12.720168633529795,-0.04350769686814827,1.0670996869829485,-0.6691658416126853
1.6780688483903337,12.529650084997428,-0.04259790779117779,1.0497730744877851,-0.649653988950209
1.6704816717882975,12.342230735902355,-0.04170405445366683,1.0326641376796801,-0.6307938344707453
1.6630539746937547,12.15787196706669,-0.04082591326347682,1.015766627161026,-0.6125567849979331
1.655782950097003,11.976536265337355,-0.03996324892265417,0.9990745031648978,-0.5949157216478265
1.6486730144925228,11.798410291683854,-0.03903603557156946,0.98010298187398,-0.627223114265339
1.6417254125795298,11.62368962202217,-0.03815954123946402,0.9612377921447547,-0.6608648785978778
1.6349311639551103,11.452355357085171,-0.03733211014297466,0.942476262710793,-0.6957324196582073
1.6282815872860246,11.284389068708801,-0.03655207506908718,0.9238158303599824,-0.7317188406802082
1.6217683021125318,11.119772780639142,-0.03581776019194564,0.9052540370806714,-0.7687187043731913
1.6153832301748836,10.958488949818456,-0.0351274835597013,0.8867885275936086,-0.8066277962235239
1.6091185963200942,10.800520448080835,-0.03447955927129124,0.8684170472688525,-0.8453428888085276
1.6029669290432313,10.645850544187955,-0.03387229936051685,0.8501374404298241,-0.8847615060706886
1.5969210607145747,10.494462886134787,-0.03330401540233443,0.8319476490498288,-0.9247816864749919
1.590974127541518,10.346341483653827,-0.032773019853851205,0.8138457118497336,-0.9653017439382621
1.5851195693120608,10.20147069084453,-0.03227762714011729,0.7958297638091012,-1.0062200253762659
1.579351128965135,10.05983518885208,-0.03181615449239381,0.7778980361070017,-1.0474346636614351
1.5736628520318474,9.921419968516279,-0.031386922544133965,0.7600488565130198,-1.0888433247207454
1.5680490859910083,9.786210312907272,-0.03098825568741088,0.7422806502537067,-1.1303429474287774
1.562504479582047,9.65419177965979,-0.030618482189935757,0.7245919413849846,-1.171829474864488
1.5570239821186438,9.525350183011522,-0.030275934070100083,0.7069813547068783,-1.2131975754008129
1.5516028428471196,9.399671575444184,-0.02995894672461478,0.6894476182635371,-1.2543403519829814
1.54623661039488,9.277142228817361,-0.02966585830026906,0.6719895664789309,-1.295149037823369
1.540921132356031,9.157748614875427,-0.029395008798053065,0.6546061439869999,-1.3355126765969012
1.5356525550637161,9.041477384996387,-0.02914473889433596,0.6372964102245596,-1.3753177850606078
1.5304273236018333,8.928315349038229,-0.028913388459915024,0.6200595448660903,-1.4144479958432048
1.5252421821126263,8.818249453123013,-0.028699294753495794,0.6028948541918683,-1.4527836779552608
1.52009417446128,8.7112667561812,-0.028500790261464987,0.5858017784949541,-1.4902015323577293
1.5149806453241936,8.607354405058281,-0.02831620015060543,0.5687799006485821,-1.5265741596974687
1.5098992417741257,8.506499607962269,-0.028143839294593496,0.5518289559737743,-1.5617695970750742
1.5048479154430363,8.408689606003527,-0.027982008828620487,0.5349488435678132,-1.5956508204570705
1.4998249253523344,8.313911642547417,-0.0278289921791801,0.518139639277858,-1.628075209088066
1.494828841510503,8.222152930064642,-0.02768305050783495,0.5014016105307677,-1.6588939680096004
1.4898585493899363,8.133400614123438,-0.0275424174984608,0.48473523326036316,-1.6879515045674645
1.4849132554084559,8.047641734121367,-0.027405293406877633,0.4681412112071012,-1.7150847546125791
1.4799924935566664,7.964863180301506,-0.02726983827967331,0.45162049790247727,-1.740122454007937
1.4750961333303363,7.885051646538077,-0.02713416423510277,0.4351743216911962,-1.762884351097752
1.4702243891477256,7.8081935783089875,-0.026996326682797056,0.41880421418759384,-1.7831803560503263
1.4653778314556658,7.73427511519742,-0.02685431434008919,0.40251204260761286,-1.800809623561897
1.4605573997558323,7.663282027181207,-0.026706037880281103,0.38630004646140803,-1.8155595664611377
1.4557644178147156,7.5951996438779545,-0.026549317021017392,0.3701708791302755,-1.827204799507228
1.451000611358354,7.530012775817177,-0.026381865827443184,0.3541276548783844,-1.8355060154502458
1.446268128597258,7.4677056267112505,-0.026201275962510744,0.33817400185413193,-1.840208799682759
1.441569563980067,7.408261695600263,-0.02600499756183767,0.3223141216012884,-1.841042396219189
1.4369079856391753,7.3516636676610645,-0.025790317336958628,0.30655285550090405,-1.8377184472482175
1.4322869670720129,7.297893292413384,-0.02555433340928932,0.29089575836220655,-1.8299297424849623
1.4277106237042285,7.24693124804941,-0.025293926232759875,0.27534917901526723,-1.81734903497779
1.423183655115595,7.198756990695344,-0.025005724752054287,0.25992034714103296,-1.7996280097375819
1.418711393891451,7.153348587641126,-0.024686066627323606,0.24461746457249703,-1.776396534625624
1.4142998623164278,7.110682534034993,-0.024330950872936664,0.22944979771786853,-1.747262385167453
1.4099558384923077,7.0707335533628175,-0.02393598050617395,0.2144277653062839,-1.711811724559264
1.4056869340012261,7.0334743834115265,-0.02349629161695561,0.19956301193027612,-1.66961074849861
1.401501686051227,6.998875551631432,-0.023006463383035483,0.18486845229299526,-1.6202090869707468
1.3974096682990993,6.96690514726156,-0.022460400529494398,0.1703582629277873,-1.563145811391017
1.393421626514061,6.937528602804971,-0.021851174859820376,0.15604778658985255,-1.497959248045416
1.3895496483593757,6.910708505121207,-0.021170804636684352,0.14195329878531668,-1.4242022670227137
1.3858073815236769,6.886404467286198,-0.02040993798219008,0.12809156604809813,-1.3414652994498653
1.3822103223327957,6.86457310697627,-0.019557386360933907,0.11447910406222747,-1.249409974488511
1.3787762095346952,6.845168195000156,-0.018599422506850375,0.10113102900570077,-1.1478167538180346
1.3755255778079007,6.82814105557657,-0.01751870779086515,0.088059409034144,-1.036649752236736
1.3724825567482122,6.813441308758502,-0.01629263731678624,0.0752711111665985,-0.9161399565838547
1.3696760503935383,6.801018023695185,-0.014890766624033627,0.06276538953693236,-0.7868823027648219
1.3671415139787872,6.790821257440939,-0.013270749095423251,0.05053201328802047,-0.6499298657165085
1.3649237000512695,6.782803716649106,-0.011371627876997168,0.03855177328791391,-0.5068483575990084
1.3630811286214575,6.776921779523214,-0.009101388009804359,0.026803083666442927,-0.3596712731882749
1.3616943217041324,6.773134020998938,-0.006307577738251219,0.015283122158837667,-0.2106870529071911
1.3608861839779214,6.771391474488929,-0.002671730330759216,0.004078505730132347,-0.062022753075852866
