x,y,v_x,v_y,omega
2.375,32.48,0.0,3.948717948717949,-4.326530612244898
2.373679794392212,31.701532793951024,-0.013202056077879646,3.835954111771777,-3.978367567774243
2.3699618857590656,30.94503339241962,-0.023977030253585045,3.729039903542252,-3.6727060972251913
2.364288598490946,30.20937897379101,-0.03275584242760984,3.6275042827438453,-3.402919759721933
2.357024329589481,29.493535776948733,-0.03988684658704214,3.530927685678939,-3.1635920213699524
2.3484703338719166,28.796549536503235,-0.04565311058859869,3.4389347187760313,-2.950266898415048
2.338876447259117,28.117537248447835,-0.050285755539401705,3.3511881617779804,-2.7592564731667153
2.3284504387489213,27.45568003293498,-0.05397432956255052,3.2673839933505633,-2.587491103106415
2.317365512781742,26.810216911024987,-0.05687493010924518,3.1872472257493842,-2.4324019760799906
2.3057663594255193,26.180439349655934,-0.05911660345297972,3.110528387941144,-2.2918283808110402
2.293774057449665,25.565686457420313,-0.060806416305566054,3.037000534415049,-2.163944010743777
2.281490066109642,24.965340735527267,-0.06203349709466406,2.966456684515417,-2.0471980327574357
2.268999489121372,24.37882430531897,-0.06287227278803792,2.898707617567532,-1.9402676878996
2.2563737544458244,23.805595547118955,-0.0633850739674362,2.833579964432638,-1.8420199569984697
2.2436728229427985,23.245146095892366,-0.06362424106282354,2.7709145478332617,-1.751480394985078
2.2309470153702833,22.69699814782699,-0.06363383466232607,2.710564932820498,-1.6678076668731283
2.218238528899394,22.160702038964665,-0.06345103004656569,2.652396155802755,-1.590272643223008
2.2055827000242614,21.635834062772915,-0.06310725870476251,2.5962836061147305,-1.5182411605748036
2.1930090595313056,21.121994498308098,-0.06262914622479342,2.5421120385334373,-1.451159742352787
2.1805422163468307,20.618805824584083,-0.06203928561995731,2.4897746987067206,-1.388543722429907
2.1682026000719192,20.1259111000791,-0.06135687712915656,2.439172546343087,-1.3299673274342256
2.1560070864330836,19.64297248910825,-0.06059825925919873,2.390213563365454,-1.275055362798911
2.1439695254152444,19.16966991915509,-0.059777350919195206,2.342812136166139,-1.223476217344176
2.1321011882613914,18.705699855268414,-0.05890602061933475,2.29688850270065,-1.174935956225049
2.1204111466358735,18.250774179349428,-0.0579943956358443,2.252368256489166,-1.1291733157051824
2.108906594912047,17.804619163629706,-0.057051121602419694,2.209181900708064,-1.0859554479519316
2.097593124647891,17.366974528909928,-0.05608358103914029,2.1672644464897357,-1.0450742918257214
2.0864749587672184,16.937592579227037,-0.05509807776758376,2.1265550503391473,-1.0063434679449699
2.0755551517000566,16.51623740556856,-0.05409999290403702,2.0869966862456506,-0.9695956142965616
2.064835760698853,16.102684152080098,-0.05309391710799613,2.04853584863894,-0.9346800932244985
2.054317992693945,15.69671833893366,-0.05208376294108757,2.011122282825423,-0.9014610124630599
2.044002330347503,15.298135236655206,-0.051072860523330696,1.9747087399591388,-0.8698155125321821
2.033888640382294,14.906739287263214,-0.050064039128758134,1.9392507539607873,-0.8396322807120756
2.0239762667777503,14.522343568056279,-0.049059696916681536,1.9047064381085668,-0.810810258301522
2.014264111023163,14.144769294316134,-0.048061860629191544,1.8710362992928748,-0.7832575132098065
2.0047507012817865,13.77384535757087,-0.04707223678457312,1.8382030681597794,-0.7568902543509652
1.9954342520385264,13.40940789639782,-0.046092255648027436,1.8061715435707417,-0.7316319679729839
1.9863127155681572,13.051299897042473,-0.04512310905566299,1.7749084499827372,-0.7074126591018602
1.9773838263628605,12.699370821393462,-0.044165782997305274,1.7443823065073576,-0.6841681838222275
1.9686451394909348,12.35347626008845,-0.04322108572194974,1.7145633065427859,-0.6618396602424181
1.9600940637175874,12.013477608735037,-0.04228967201152579,1.6854232069913486,-0.6403729477752655
1.951727890099445,11.679241765417913,-0.04137206416989666,1.6569352261798842,-0.6197181858658856
1.9435438166633243,11.350640847830693,-0.04046867019131084,1.629073949692326,-0.5998293845624795
1.9355389696938847,11.027551928520928,-0.039579799503085177,1.601815243405314,-0.5806640603954335
1.927710422081688,10.70985678687143,-0.03870567661888262,1.5751361730896811,-0.5621829119361308
1.92005520912083,10.397441676562007,-0.03784645298969527,1.5490149300045386,-0.5443495301766529
1.9125703420920572,10.090197107364816,-0.037002217298034094,1.5234307619673906,-0.5271301395269992
1.9052528199216934,9.788017640224659,-0.036173004405604135,1.4983639094341679,-0.5104933657858385
1.8981078310935005,9.490802492769301,-0.03527688387632571,1.4737875651193957,-0.4921222741370308
1.8911397456266994,9.198454508159841,-0.03440397079168438,1.4496922809752197,-0.47459049583711976
1.884343970367581,8.910879190329183,-0.03355378179949918,1.4260608973313582,-0.4578497585178196
1.8777160107000963,8.627985396880156,-0.0327258148753493,1.4028770371589057,-0.441855092565002
1.8712514737728667,8.349685187035497,-0.0319195543969469,1.3801250612876816,-0.42656456928021336
1.8649460707854941,8.075893678240167,-0.031134475476778004,1.3577900266656087,-0.4119390625658595
1.8587956184725483,7.806528910831538,-0.0303700476526802,1.3358576474206834,-0.39794203177747695
1.852796039905025,7.54151172023872,-0.02962573802255245,1.314314258507482,-0.38453932364641497
1.8469433647129896,7.280765616214033,-0.02890101389780232,1.2931467817393774,-0.3716989914049235
1.8412337288191938,7.024216668637596,-0.02819534504015452,1.2723426940249913,-0.3593911294471326
1.8356633737613945,6.771793399470791,-0.02750820553783925,1.2518899976430637,-0.34758772203721106
1.8302286456706354,6.5234266804660805,-0.02683907536975098,1.2317771924040561,-0.336262504733119
1.824925993963685,6.279049636269715,-0.02618744169975103,1.2119932495596157,-0.3253908373334122
1.8197519697999365,6.038597552580491,-0.025552799937737028,1.1925275873326078,-0.31494958727777395
1.8147032243462329,5.802007789052137,-0.024934654599297675,1.1733700479509401,-0.30491702254128494
1.8097765068871423,5.569219696649249,-0.0243325199916081,1.1545108760779423,-0.2952727131595834
1.8049686628130204,5.34017453918738,-0.02374592074961081,1.1359406985407317,-0.28599744060849397
1.80027663151372,5.114815418806717,-0.02317439224339376,1.1176505052658856,-0.27707311433868337
1.7956974442018852,4.893087205146237,-0.022617480874955385,1.0996316313389218,-0.2684826948345588
1.7912282216863713,4.674936468001281,-0.022074744280180688,1.0818757401106314,-0.2602101226279279
1.7868661721133738,4.460311413262289,-0.021545751449794568,1.064374807279287,-0.25224025275174694
1.7826085886902676,4.249161821946039,-0.021030082781267636,1.047121105883199,-0.24455879416833032
1.7784528474049317,4.041438992143412,-0.02052733007208985,1.0301071921430813,-0.23715225375034685
1.774396404751376,3.83709568371928,-0.020037096463468195,1.0133258920982469,-0.2300078844323507
1.7704367954707974,3.6360860656109715,-0.019558996342319654,0.9967702889848367,-0.22311363718599495
1.7665756911974455,3.438534802756795,-0.019052046391196786,0.9787423395569232,-0.2501124425266936
1.7628122427370334,3.2445780313907733,-0.01858243821292627,0.9608253741032811,-0.27874706113511705
1.7591390548134684,3.054193853118882,-0.018149441022722236,0.9430164086156362,-0.3089109143242942
1.755548884251338,2.8673609549134937,-0.017752264598580893,0.9253125734382451,-0.34049983747060053
1.7520346512554354,2.684058586663518,-0.017390065360447685,0.9077111090615274,-0.37341185024408907
1.7485894495274583,2.504266539528043,-0.01706195191932277,0.8902093622932334,-0.4075469318908702
1.7452065553222056,2.327965125019091,-0.01676699013320551,0.8728047827962878,-0.4428068006482875
1.7418794355385483,2.155135154740975,-0.016504207703364963,0.8554949199848806,-0.4790946963795824
1.7386017549340929,1.985757920715205,-0.01627259834119088,0.8382774202728375,-0.516315165513952
1.7353673825466935,1.819815176220839,-0.016071125532802183,0.8211500246708113,-0.5543738473702013
1.732170397400849,1.6572891170806159,-0.015898725925641267,0.8041105667314353,-0.5931772609273158
1.7290050935724413,1.4981623633230434,-0.015754312358437737,0.7871569708442946,-0.6326325910828884
1.7258659846812816,1.3424179411500674,-0.01563677655315859,0.7702872508854515,-0.6726474734099991
1.722747807877481,1.1900392651385907,-0.015544991484847871,0.7534995092293326,-0.7131297763843503
1.7196455273847393,1.0410101206022446,-0.01547781344257118,0.7367919361341126,-0.753987380005581
1.7165543376612828,0.8953146460372992,-0.015434083791991439,0.7201628095153532,-0.7951279496790086
1.7134696662373454,0.7529373155730994,-0.01541263044738381,0.7036104951266454,-0.8364587041557384
1.7103871762867953,0.6138629213433937,-0.015412269058118577,0.6871334471704243,-0.8778861762491942
1.7073027689898064,0.4780765556896469,-0.015431803911768842,0.6707302093670593,-0.9193159649535954
1.7042125857433295,0.3455635931013532,-0.015470028552999381,0.6543994165158652,-0.9606524774835492
1.701113010276607,0.21630967179097382,-0.015525726114225188,0.6381397965879338,-1.0017986596324342
1.6980006707301194,0.09030067479240245,-0.015597669350650514,0.6219501733977776,-1.0426557127092186
1.694872441758188,-0.032477289538263676,-0.015684620368664248,0.6058294699088511,-1.0831227951572835
1.6917254467180594,-0.15203790775287018,-0.01578533003262253,0.5897767122372378,-1.123096706783165
1.6885570600117235,-0.26839468241942654,-0.015898537030735474,0.5737910344283502,-1.1624715533263656
1.6853649096510475,-0.3815609542716203,-0.016022966576025373,0.5578716840936145,-1.2011383888820735
1.6821468801221386,-0.49154992558178634,-0.0161573287130636,0.5420180290080484,-1.2389848334456341
1.6789011156312985,-0.5983746849611578,-0.01630031619533728,0.5262295647856848,-1.2758946625802143
1.67562602382261,-0.702048233816555,-0.016450601891547737,0.5105059237682738,-1.3117473659174137
1.6723202800662762,-0.8025835147217819,-0.01660683567178927,0.4948468852839767,-1.3464176708859705
1.6689828324274703,-0.8999934419959033,-0.016767640716270925,0.4792523874572594,-1.3797750277295007
1.6656129074378554,-0.9942909348195599,-0.016931609179876815,0.4637225407793262,-1.4116830515266818
1.6622100168063438,-1.0854889532655605,-0.01709729713523791,0.44825764368067106,-1.4419989165770946
1.65877396522233,-1.173600537672037,-0.017263218704902824,0.43285820038408895,-1.4705726981801945
1.6553048594239,-1.2586388518462641,-0.017427839279397245,0.41752494135816476,-1.4972466565401985
1.6518031187257458,-1.3406172306558872,-0.017589567702142622,0.40225884673807405,-1.5218544573164319
1.6482694872271342,-1.419549232642936,-0.01774674728397484,0.3870611731324364,-1.5442203232674294
1.6447050479498513,-1.4954486983853243,-0.017897645488853774,0.3719334842914262,-1.5641581115975858
1.6411112391902059,-1.568329815431568,-0.01804044210759975,0.35687768617101134,-1.5814703121397764
1.6374898734087282,-1.638207190747508,-0.018173215707177334,0.3418960669883552,-1.5959469625904854
1.633843159027231,-1.7050959317382706,-0.018293928107793334,0.32699134291924686,-1.607364478940481
1.630173725556768,-1.769011737043364,-0.01840040659683777,0.312166710131678,-1.6154844024311077
1.6264846525436492,-1.8299709984432155,-0.01849032353435061,0.29742590386682183,-1.6200520694248597
1.6227795028967773,-1.8879909153546848,-0.018561172934367397,0.2827732652478942,-1.620795218404641
1.6190623612520976,-1.943089623517885,-0.01861024351243147,0.26821381638411246,-1.6174225602231467
1.6153378781449295,-1.9952863395649985,-0.018634587559247327,0.253753344086994,-1.609622355642335
1.6116113209076597,-2.0446015231782226,-0.018630984813451282,0.23939849204525315,-1.5970610709695328
1.6078886324034067,-2.091057058431005,-0.018595900229078664,0.22515686048254915,-1.5793822223775407
1.6041764989695526,-2.134676455574315,-0.01852543410946117,0.2110371109505748,-1.5562055783955184
1.600482429317085,-2.1754850738381677,-0.018415262415215697,0.19704907168795546,-1.527126976970122
1.596814846676359,-2.2135103645525547,-0.01826056399204356,0.18320383545589847,-1.491719141244683
1.59318319730331,-2.2487821317276087,-0.01805592973844652,0.1695138362946756,-1.449534064915777
1.5895980797398999,-2.281332803689466,-0.017795245895654968,0.15599288332388264,-1.4001078084394287
1.5860714012566595,-2.3111977037575784,-0.017471538936750193,0.142656117357217,-1.3429689330343293
1.582616571193491,-2.3384152993346206,-0.017076761694934228,0.1295198384132274,-1.2776523351246192
1.5792487462929885,-2.3630273960068635,-0.016601487310087707,0.11660112830917414,-1.2037209533882218
1.5759851519732337,-2.3850792251987443,-0.016034455887461004,0.10391716360964513,-1.1207986770557323
1.572845518079304,-2.4046193503045714,-0.015361883051836061,0.09148408744860212,-1.0286186136447923
1.5698526916325148,-2.421699289646064,-0.014566381416057038,0.07931530596630657,-0.9270911481421145
1.5670335283155588,-2.436372735173883,-0.013625251753502534,0.06741914931189712,-0.8163946745616963
1.5644202287713727,-2.448694259946315,-0.012507743688359585,0.05579609841243365,-0.6970859674887904
1.5620523954290952,-2.4587175117802857,-0.011170589734415003,0.044436419927264784,-0.5702129561731305
1.559980297849868,-2.4664931893403406,-0.009550386057855877,0.03332035567325896,-0.43738699783332213
1.558270368108998,-2.4720677741794788,-0.007548911350844387,0.022425492718148428,-0.30073957200014095
1.5570158460980768,-2.475485576460244,-0.004996308758368127,0.011752530089509633,-0.16267218866565547
1.5563662211611122,-2.4768031820114302,-0.0014999406112769995,0.0014235254223347801,-0.025360190570944574
