x,y,v_x,v_y,omega
2.375,32.48,0.0,2.6153846153846154,-2.0
2.374651282255877,31.988118320201476,-0.003670713096032838,2.562317277231385,-1.8940544732585551
2.373649153610739,31.506155337360923,-0.006878009484365731,2.510977278984956,-1.7963215380157513
2.372076430977895,31.033791492792364,-0.009676965598204693,2.4612737164735643,-1.7059634802482164
2.3700061395500427,30.570723893785814,-0.012115575747605427,2.413122062542768,-1.622244225933738
2.3675027633718546,30.116665156117865,-0.014235752443850579,2.3664435971198667,-1.5445152953823233
2.3646233205422864,29.67134234885716,-0.016074172077920834,2.321164900361236,-1.4722039192668115
2.3614182899582814,29.234496030286497,-0.017662991964234563,2.2772174003825656,-1.4048029510165791
2.357932412019144,28.80587936524833,-0.0190304600266847,2.2345369684402465,-1.341862277388576
2.354205382029774,28.385257315469865,-0.02020143459826658,2.1930635555436013,-1.2829814828497637
2.3502724520133333,27.972405895481458,-0.021197828732686993,2.1527408653870146,-1.2278035667376073
2.3461649541449168,27.56711148764189,-0.022038990934854626,2.113516059240032,-1.176009547205063
2.3419107569481366,27.169170210553915,-0.022742032189149098,2.0753394890544214,-1.1273138144069068
2.337534663676955,26.77838733581507,-0.023322107507499336,2.0381644555650054,-1.0814601185747126
2.333058760871959,26.39457674861983,-0.023792658860876902,2.00194698859538,-1.0382180976012216
2.3285027238823446,26.01756044822442,-0.02416562524032708,1.9666456471457903,-0.9973802643334166
2.3238840851407274,25.64716808471625,-0.024451624671433688,1.9322213371507448,-0.958759386608387
2.319218470133886,25.283236528906407,-0.024660112242687517,1.8986371450581057,-0.9221862036749432
2.314519805301263,24.925609472493196,-0.024799517574395965,1.8658581856072873,-0.8875074314405149
2.309800501492126,24.574137055934578,-0.024877364627043323,1.8338514623781608,-0.854584016298845
2.3050716161033513,24.228675521722955,-0.024900376307427377,1.8025857398494427,-0.8232896033963282
2.300342996587746,23.88908689098151,-0.024874565962101004,1.7720314258499967,-0.7935091902992145
2.2956234076552215,23.555238661501615,-0.0248053175381576,1.742160463412027,-0.7651379413051241
2.290920644175648,23.227003525518747,-0.02469745593104164,1.712946231144497,-0.7380801412426016
2.2862416315243443,22.90425910568266,-0.024555308819521105,1.6843634513406223,-0.7122482706377975
2.2815925148817615,22.586887707819187,-0.02438276110240312,1.6563881051169638,-0.6875621866927619
2.2769787388020655,22.274776089207336,-0.024183302894396703,1.6289973539551534,-0.6639483966932298
2.2724051181961133,21.967815241208804,-0.023960071905098867,1.6021694670820117,-0.6413394123093565
2.2678759017285293,21.665900185188825,-0.023715890911575967,1.5758837541809596,-0.6196731748235988
2.263394828502795,21.368929780758705,-0.023453300938259414,1.5501205029781897,-0.5988925426597043
2.258965178799513,21.076806545453046,-0.023174590675237524,1.524860921291893,-0.5789448337319728
2.2545898195388108,20.78943648502891,-0.022881822595308025,1.5000870831726787,-0.5597814161148758
2.250271245056152,20.50672893364162,-0.02257685616952543,1.4757818787987915,-0.5413573413750266
2.2460142679573685,20.228596905877133,-0.022233429080823413,1.4519236766168777,-0.5226245329626695
2.241822902712328,19.954956424943223,-0.021886205077498985,1.428502438476917,-0.5047102203264722
2.2376977708338694,19.68572588750689,-0.021536235748382402,1.40550321874764,-0.4875692513745946
2.233639305179925,19.420826468274647,-0.02118445534576592,1.3829117205391384,-0.47115943414218303
2.229647771100477,19.16018200010059,-0.020831692858949674,1.360714260240426,-0.45544131185771913
2.225723285411744,18.903718860613722,-0.020478682811926503,1.338897734358145,-0.4403779573784222
2.221865833426506,18.651365864943806,-0.020126074927425065,1.3174495884830753,-0.4259347851344568
2.2180752842440454,18.40305416415645,-0.0197744427826815,1.2963577882259438,-0.41207937891845847
2.2143514044807704,18.15871714903713,-0.01942429156758416,1.2756107919774418,-0.3987813340309619
2.2106938706027695,17.91829035889012,-0.019076065042949193,1.2551975253595038,-0.3860121124465261
2.207102280004077,17.681711395042605,-0.018730151785393355,1.23510735724591,-0.3737449098021531
2.203576160958905,17.44891983876642,-0.018386890795364666,1.215330077240247,-0.3619545331311115
2.200114981562407,17.219857173350306,-0.018046576536190906,1.1958558745083467,-0.3506172883733579
2.1967181577623554,16.994466710074306,-0.01770946346435504,1.1766753178705534,-0.3397108767899955
2.1933850605733167,16.77269351785527,-0.017375770104471076,1.1577793370666887,-0.3292142994950306
2.1901150225553248,16.554484356348162,-0.01704568271649746,1.139159205113416,-0.319107769394299
2.186907343630496,16.33978761230279,-0.01671935859748735,1.1208065216799479,-0.3093726298899078
2.183761296303458,16.12855323898889,-0.016396929055549014,1.1027131974137359,-0.29999127976981005
2.180676130344669,15.92073269851505,-0.016078502089599208,1.08487143915299,-0.2909471037570161
2.1776510769896937,15.716278906878589,-0.015764164804872277,1.0672737359676314,-0.28222440824217027
2.1746853527020917,15.515146181594073,-0.01545398559094034,1.0499128459746516,-0.2738083617674136
2.1717781625427675,15.317290191758087,-0.015148016086155784,1.0327817838778364,-0.26568493986917174
2.168928703184342,15.122667910417071,-0.014846292949902574,1.0158738091854873,-0.2578408739232414
2.1661361656052303,14.931237569113453,-0.014548839461799766,0.9991824150631324,-0.25026360366772965
2.1634017866649446,14.743154754722003,-0.014234096751734291,0.9806366837942275,-0.2837398036252736
2.160723992511298,14.558585420229129,-0.013953210128758935,0.9621984161307641,-0.3186182970158464
2.15809642392289,14.377509412356776,-0.013705406591320581,0.9438648246308574,-0.354796050975565
2.155512873438796,14.199907097349943,-0.013489861662303624,0.9256332280726403,-0.39217187713476365
2.1529672946461296,14.025759341108738,-0.013305704576287996,0.907501048150556,-0.43064621146359544
2.1504538105263316,13.855047489914433,-0.013152023000536217,0.8894658065263475,-0.47012089666457785
2.1479667209459263,13.687753351682552,-0.013027867319519128,0.8715251222303042,-0.5104989661998136
2.1455005093721513,13.523859177676641,-0.012932254509687803,0.8536767094108578,-0.551684429027135
2.1430498488890506,13.36334764461645,-0.012864171628215591,0.8359183754332529,-0.5935820540986281
2.1406096075853984,13.206201837113866,-0.012822578936543202,0.8182480193307908,-0.6360971536464824
2.138174853382137,13.052405230369004,-0.012806412676735083,0.80066363061511,-0.6791353642443779
2.1357408583638398,12.90194167305733,-0.012814587515870193,0.7831632884551459,-0.7226024245870531
2.133303102676095,12.754795370336492,-0.01284599867091714,0.7657451612378824,-0.7664039488756049
2.1308572780486013,12.610950866898751,-0.012899523723753616,0.748407506527802,-0.8104451946306152
2.128399291002195,12.470393029991225,-0.012974024133152615,0.7311486714461419,-0.8546308236784648
2.1259252657970196,12.333107032321745,-0.013068346447640489,0.7139670934957411,-0.8988646549671033
2.1234315471785843,12.199078334762714,-0.013181323220099147,0.6968613018624991,-0.9430494077649116
2.120914702978604,12.06829266875889,-0.01331177362179838,0.6798299192303752,-0.9870864336787937
2.118371526628268,11.940736018337418,-0.0134585037501621,0.6628716641535368,-1.030875435793815
2.1157990396430124,11.816394601609328,-0.013620306620947655,0.645985354036869,-1.0743141730849863
2.1131944941400205,11.695254851641277,-0.013795961831598404,0.6291699087847291,-1.1172981480805142
2.1105553754525843,11.577303396563892,-0.013984234878258242,0.6124243551877591,-1.1597202755632732
2.107879404909246,11.462527038768805,-0.014183876104247706,0.5957478321289597,-1.2014705298816806
2.1051645428503436,11.350912733029737,-0.014393619252620747,0.5791395967033338,-1.2424355682009829
2.1024089919603264,11.242447563363672,-0.014612179589666064,0.5625990313604948,-1.2824983267598622
2.099611201001128,11.137118718425707,-0.014838251559792012,0.5461256521970309,-1.3215375869044255
2.09676986904007,11.034913465205168,-0.015070505925031433,0.5297191185454871,-1.359427507352135
2.0938839502754334,10.935819120760499,-0.015307586334298065,0.5133792440299682,-1.3960371187934921
2.0909526595741292,10.839823021695572,-0.015548105258376346,0.49710600928503673,-1.4312297765729514
2.0879754788490383,10.746912491039794,-0.015790639216265338,0.4808995765652639,-1.4648625668094513
2.084952164418854,10.657074802147836,-0.016033723206730008,0.46476030650797295,-1.4967856609328802
2.0818827555108914,10.570297139181147,-0.0162758442455081,0.4486887773519071,-1.5268416132446498
2.0787675840877045,10.486566553671501,-0.01651543389329876,0.43268580696014436,-1.5548645957878482
2.075607286201844,10.405869916595837,-0.01675085964207581,0.41675247804684734,-1.5806795645801244
2.0724028151101828,10.328193865310276,-0.01698041500698876,0.4008901670643084,-1.6041013511880111
2.0691554564105,10.253524744598646,-0.017202308147570688,0.38510057726862723,-1.6249336738052016
2.0658668454991127,10.181848540986095,-0.017414648814399206,0.3693857765477064,-1.6429680625877185
2.0625389876901994,10.113150809351268,-0.01761543338468757,0.353748240661016,-1.657982695214341
2.0591742813861114,10.04741659074135,-0.017802527710976436,0.3381909026012783,-1.6697411408020006
2.0557755447449773,9.984630320154949,-0.01797364745885663,0.3227172088345053,-1.6779910138842378
2.0523460463592342,9.9247757229125,-0.018126335548963892,0.3073311831912823,-1.6824625458480589
2.048889540539298,9.867835698090651,-0.018257936239837624,0.29203749914396415,-1.6828670900374225
2.045410307894645,9.813792187370133,-0.018365565282827755,0.2768415610720165,-1.67889559016605
2.0419132020265653,9.762626027559541,-0.018446075433798483,0.26174959482895627,-1.6702170619414873
2.038403703302783,9.714316785049466,-0.01849601639549166,0.24676874738237206,-1.6564771681326755
2.034887980889938,9.668842570584545,-0.018511587950243182,0.2319071943536373,-1.637297012495087
2.0313729645014273,9.626179833113799,-0.018488584560395423,0.21717425270683344,-1.6122723450214071
2.0278664277175533,9.586303132245071,-0.018422328954068454,0.20258049327977007,-1.580973470161348
2.0243770853226297,9.54918489022283,-0.018307590992494877,0.18813784379645931,-1.5429462957437072
2.0209147079970124,9.514795126725769,-0.018138486119267862,0.17385966669890665,-1.4977151742425052
2.0174902590985027,9.483101183667841,-0.017908344391361075,0.15976078654244957,-1.444788498191174
2.0141160605003336,9.454067453336346,-0.01760953558936555,0.14585742747329725,-1.3836684538771675
2.0108059980836694,9.427655132630363,-0.017233226691309243,0.1321670010107511,-1.3138669503146907
2.00757578345445,9.403822040100625,-0.01676903256363199,0.11870765719703247,-1.2349305462304194
2.0044432983374585,9.382522552058667,-0.01620449498364657,0.10549748008672577,-1.14647815166016
2.0014290644732813,9.363707739234975,-0.015524282534008178,0.09255318121527835,-1.0482561484393704
1.9985569088820745,9.34732581272836,-0.014708934215537383,0.07988815043331154,-0.9402156708175049
1.995854938838747,9.333323004612854,-0.01373285571422637,0.06750982972989794,-0.8226145088302248
1.9933570146234212,9.3216449824446,-0.012561083394465964,0.055416719409611244,-0.6961383293842466
1.9911050366687695,9.312238760713342,-0.011143947707129793,0.043596140919428074,-0.5620181315331187
1.9891526250596028,9.305054704160483,-0.009407753441994057,0.03202550700541883,-0.42209039552512295
1.987571476639951,9.300047392039026,-0.007235914133287755,0.020683041641496026,-0.27871187909089223
1.9864644436937855,9.297172028924809,-0.004417064247401051,0.009583938508168613,-0.13443159152113027
1.9860080326655438,9.296361977607717,-0.0003872623656696198,-0.001057082538781404,0.008551357247853969
