x,y,v_x,v_y,omega
2.375,32.48,0.0,2.9743589743589745,-4.571428571428571
2.3736411456631243,31.804686930695976,-0.011816124668485656,2.8979285848064404,-4.248536954107609
2.3697851512822448,31.146552711821073,-0.021714261252205727,2.824977666279642,-3.959923408730713
2.363838748676685,30.50482624967931,-0.029993587491790378,2.755252439300908,-3.7008907348168836
2.3561456774146623,29.878791846765825,-0.03690268435188426,2.6885249773381075,-3.4675014592436666
2.346997238888815,29.26778366215568,-0.04264895500331209,2.6245896714457544,-3.256438037465607
2.3366409060252673,28.67118091329777,-0.047406113375363504,2.563260318623032,-3.0648917804170543
2.325287382614384,28.08840369128256,-0.05132017715405522,2.504367698900523,-2.890473988544338
2.3131164185945057,27.5189092887866,-0.05451429258401817,2.4477575401948086,-2.731144395943341
2.300281621343679,26.962188960306744,-0.05709264003186404,2.3932887944126207,-2.585153209512536
2.286914452431441,26.41776504985042,-0.05914361137890057,2.340832166077148,-2.450993899533555
2.2731275603080956,25.885188433247247,-0.060742407084974484,2.2902688478634836,-2.3273645474330693
2.2590175691543783,25.364036231613177,-0.06195316816474124,2.241489427215404,-2.213136044900933
2.244667420461829,24.853909759889135,-0.062830733509599,2.1943929356023535,-2.1073258091127265
2.230148345303163,24.35443268026924,-0.06342209395706064,2.148886017614096,-2.009075962205709
2.215521530520883,23.86524933507793,-0.06376759980189779,2.1048822014407733,-1.9176351414836588
2.200839530338528,23.38602323750942,-0.06390196700118993,2.0623012556767164,-1.8323432761640155
2.186147465520998,22.916435701800317,-0.06385511836863729,2.0210686200546086,-1.7526187986527175
2.1714840446733317,22.45618459701293,-0.06365288900237213,1.9811148998357189,-1.6779478621043011
2.156882436182879,22.004983210774675,-0.06331761961026018,1.9423754152795285,-1.6078752179504772
2.142371014377445,21.56255921113401,-0.06286865695873493,1.9047897989871545,-1.5419964720956183
2.127973999457766,21.128653696222166,-0.06232277712542489,1.8683016350288586,-1.4799514903266486
2.1137120074834286,20.70302032270557,-0.06169454439055417,1.8328581346806745,-1.4214187650265946
2.0996025240029157,20.285424505117028,-0.06099661630955761,1.7984098443501237,-1.3661105887118343
2.0856603127069935,19.875642679098494,-0.06024000365498501,1.7649103818979817,-1.313768906929888
2.0718977686594884,19.473461622400237,-0.05943429241027831,1.7323161980868567,-1.2641617449758145
2.0583252241485903,19.0786778281826,-0.05858783377144077,1.700586360327368,-1.2170801207404371
2.0449512139472326,18.691096925774566,-0.05770790710993134,1.6696823562642407,-1.172335370600514
2.0317827057263935,18.310533144572297,-0.05680086002779918,1.6395679150598623,-1.1297568272364709
2.0188253004928445,17.93680881722274,-0.05587222895958657,1.6102088445015001,-1.0891897981216079
2.0060834071924964,17.569753918641915,-0.05492684321735229,1.5815728822882837,-1.0504938015687304
1.9935603950074725,17.209205637772826,-0.05396891491328969,1.5536295600516101,-1.01354102396599
1.9812587263591606,16.8550079793011,-0.05300211681116256,1.5263500788329731,-0.9782149674398422
1.9691800731944005,16.507011392822882,-0.052029649838924025,1.49970719489063,-0.9444092618557449
1.957325418764099,16.165072427204496,-0.05105430172891496,1.4736751148344895,-0.9120266189730822
1.9457152297916611,15.829055885336196,-0.0499038632488072,1.4482078579333315,-0.8760754200563443
1.9343675886753757,15.498831869143697,-0.04877127689280339,1.423305326349268,-0.8419456106334782
1.9232782757295408,15.174273035194375,-0.047657531331849294,1.3989454036448266,-0.8095215349724368
1.9124428683644172,14.855256998080979,-0.04656340227792084,1.3751070929934044,-0.7786962728575169
1.9018567867407437,14.541666081075281,-0.04548948140619581,1.3517704461865858,-0.749370876076822
1.8915153332016073,14.233387082493017,-0.04443620154281756,1.328916498007,-0.7214536804633507
1.8814137262838238,13.930311056590273,-0.04340385861182224,1.3065272054951245,-0.6948596851600368
1.8715471300053126,13.632333107914476,-0.04239263076653481,1.2845853916857062,-0.6695099917894111
1.8619106790338327,13.339352198126008,-0.04140259507242221,1.2630746934314172,-0.6453312970854087
1.8524995002637772,13.051270964390003,-0.040433742058494065,1.241979512968632,-0.6222554333072756
1.8433087312597185,12.767995548513568,-0.03948598841158043,1.2212849729134172,-0.6002189514196561
1.8343335359665085,12.4894354360719,-0.03855918805111608,1.2009768744054257,-0.5791627426024764
1.8255691180347209,12.215503304828736,-0.037653141790516556,1.181041658143842,-0.5590316941608153
1.8170107320659423,11.946114881812626,-0.03676760576407989,1.1614663680831916,-0.539774376348497
1.8086536930439543,11.681188808461584,-0.03590229877494555,1.1422386175780403,-0.52134275700813
1.8004933841843993,11.420646513294876,-0.035056908699444424,1.1233465577846484,-0.5036919412720092
1.7925252634064055,11.164412091612995,-0.03423109806571883,1.104778848144749,-0.48677993386889545
1.7847448686042684,10.912412191765267,-0.033424508909388695,1.0865246287920263,-0.47056742184655004
1.7771478218751535,10.664575907559573,-0.032636766995955864,1.0685734947357453,-0.455017575753607
1.7697298328394653,10.420834676420785,-0.031867485488290166,1.0509154716885076,-0.4400958675308868
1.762486701173628,10.181122182933716,-0.031116268127687023,1.0335409934164277,-0.4257699035450054
1.7554143184602757,9.945374267433298,-0.03038271198842012,1.0164408805002587,-0.4120092713590703
1.7485086694479077,9.713528839329161,-0.029666409858258597,0.9996063204052719,-0.3987853989789481
1.7417658328007517,9.485525794874452,-0.028966952290924677,0.9830288487661003,-0.3860714254412531
1.7351879212752235,9.261418389657265,-0.028232278365841072,0.9657311966007447,-0.39336237653805706
1.728775163822987,9.041274787466627,-0.02753082991447723,0.9485609963613345,-0.4030154815234267
1.7225199073197213,8.825066113671419,-0.02686270489652838,0.9315144279448145,-0.414900420781589
1.7164144911545252,8.612764354053478,-0.026227870453004284,0.914587829602496,-0.42889110316382856
1.7104512759587869,8.404342319251633,-0.025626174727329504,0.8977776904135387,-0.4448653576942046
1.7046226697273292,8.199773610871567,-0.02505735772012625,0.8810806433261554,-0.46270463796553724
1.6989211515456315,7.999032589134476,-0.02452106125116068,0.8644934587354997,-0.48229373794037755
1.693339293120729,7.802094341944265,-0.02401683809581766,0.848013038570677,-0.5035205179296578
1.6878697782985614,7.608934655258977,-0.023544160357811806,0.8316364108666235,-0.526275639570778
1.6825054207369345,7.419529984657341,-0.023102427134596364,0.8153607247997676,-0.5504523086673783
1.677239179890845,7.233857427995879,-0.02269097152705235,0.7991832461694685,-0.575946024785226
1.6720641754555778,7.051894699055715,-0.022309067040487594,0.7831013533102288,-0.6026543365226863
1.666973700402655,6.873620102081432,-0.021955933419711318,0.7671125334226562,-0.6304766013902096
1.66196123273434,6.699012507116702,-0.021630741956938846,0.7512143793141223,-0.6593137492411636
1.6570204460739308,6.528051326043123,-0.02133262030748939,0.735404586543083,-0.6890680481960461
1.6521452192014365,6.3607164892297945,-0.021060656844635078,0.7196809509641122,-0.7196428719934507
1.64732964463743,6.196988422701423,-0.020813904581509876,0.704041366673907,-0.7509424676838458
1.64256803637182,6.036848025732308,-0.020591384684662213,0.6884838243618914,-0.7828717225558631
1.6378549368290147,5.8802766487723375,-0.02039208960060366,0.6730064100726215,-0.8153359291489233
1.6331851231563883,5.727256071609016,-0.020214985813537215,0.6576073043910454,-0.8482405471600424
1.628553612919161,5.5777684816664745,-0.020059016249310793,0.6422847820658394,-0.881490960995894
1.6239556692816777,5.431796452338482,-0.019923102337501268,0.6270372120906204,-0.9149922316528304
1.6193868057527236,5.289322921247255,-0.019806145740357797,0.6118630582678848,-0.9486488415267026
1.6148427905708629,5.150331168313542,-0.019707029754083283,0.5967608802861496,-0.9823644306599281
1.6103196508049178,5.014804793515722,-0.019624620384570666,0.5817293353470698,-1.0160415228242468
1.60581367624463,4.882727694206373,-0.019557767096193807,0.5667671803864088,-1.0495812397127777
1.601321423157286,4.754084041843747,-0.019505303228534634,0.55187327494077,-1.0828830013731057
1.5968397179877294,4.628858257982628,-0.019466046071958062,0.5370465847211342,-1.1158442108529476
1.5923656610817574,4.5070349893537625,-0.019438796588667033,0.52228618596466,-1.148359920850316
1.5878966305165205,4.388599081843292,-0.01942233876121906,0.5075912706481132,-1.1803224799600227
1.5834302861262604,4.273535553162869,-0.01941543854539152,0.4929611526599291,-1.2116211558872456
1.5789645738176938,4.161829563976969,-0.019416842398665583,0.47839527504356,-1.242141732756707
1.5744977302766703,4.053466387226049,-0.01942527534936677,0.4638932184427061,-1.2717660793837615
1.57002828817657,3.9484313753516815,-0.019439438564549036,0.4494547108996318,-1.3003716850938334
1.565555082009451,3.846709925092366,-0.019458006366918155,0.43507963918136516,-1.327831159383963
1.5610772546733889,3.748287439475419,-0.01947962264231785,0.4207680618355646,-1.3540116914228268
1.5565942649640436,3.6531492865803443,-0.01950289656938117,0.4065202242085696,-1.3787744650966327
1.5521058961355216,3.5612807545916674,-0.019526397591679054,0.39233657569296804,-1.401974025048106
1.5476122657153981,3.4726670025931945,-0.019548649539829977,0.37821778951113083,-1.4234575889553611
1.543113836781748,3.387293006480185,-0.019568123796257008,0.36416478538460967,-1.4430643012030329
1.5386114309366872,3.305143499279982,-0.019583231378186648,0.3501787554867319,-1.4606244231781687
1.534106243241824,3.2262029050744943,-0.01959231379453484,0.33626119412621525,-1.4759584557787346
1.529599859416944,3.1504552656089366,-0.019593632508769148,0.32241393166124405,-1.4888761905006394
1.5250942756451016,3.0778841585507344,-0.019585356811600493,0.30863917319269624,-1.4991756868852173
1.520591921376388,3.008472606231571,-0.019565549872865993,0.2949395426261032,-1.5066421764772782
1.5160956855806424,2.9422029735673902,-0.019532152698835646,0.2813181327146003,-1.5110468972222861
1.5116089469687166,2.8790568537115853,-0.01948296566573516,0.267778561683705,-1.5121458680887603
1.5071356087860812,2.8190149398666264,-0.019415627226747625,0.2543250369680975,-1.5096786226156016
1.5026801388867796,2.7620568815768465,-0.01932758928891893,0.24096242642129723,-1.5033669334825808
1.4982476159280183,2.708161123779931,-0.019216088613353003,0.22769633703015618,-1.4929135801766726
1.4938437826984896,2.6573047269543686,-0.0190781133825468,0.2145332005834331,-1.478001241436763
1.489475107826784,2.609463166939424,-0.018910363762720178,0.2014803647639135,-1.4582916378736197
1.4851488574420266,2.564610113539498,-0.018709204800387572,0.18854618653977678,-1.4334251144814527
1.4808731788295524,2.5227171880344414,-0.0184706092211266,0.1757401221998418,-1.4030209470579076
1.4766571988261354,2.483753701471283,-0.01819008646076108,0.16307280443632857,-1.3666787941474432
1.4725111407746545,2.4476863785123335,-0.017862592247767567,0.15055609085889557,-1.3239819154164605
1.4684464655440355,2.414479076240667,-0.017482409757616856,0.13820305932951987,-1.274503062514056
1.4644760448108314,2.384092514484287,-0.017042987922417183,0.1260279124650848,-1.2178143480870496
1.4606143791473114,2.356484044958002,-0.016536713499497493,0.11404573558957508,-1.1535029387322453
1.4568778805434408,2.33160750199297,-0.015954578708072074,0.10227202932374507,-1.0811951002428746
1.4532852505576583,2.3094131986196302,-0.015285682037861136,0.09072191305310871,-1.0005918720197797
1.4498580041461733,2.2898481574057925,-0.014516460670705647,0.07940888011070812,-0.9115201845010293
1.4466212197841726,2.272856690102831,-0.013629490303213835,0.06834300948025947,-0.8140028370947394
1.4436046458414031,2.2583814471798433,-0.012601587459999997,0.05752866811093688,-0.7083478634316495
1.4408443739841532,2.246365009154786,-0.01140077651608457,0.04696209732434195,-0.5952496603354918
1.4383854327150956,2.236751910731897,-0.009981321475722378,0.036630062874698444,-0.4758774440839575
1.436285957814991,2.229490545837294,-0.008274982003448839,0.0265122405566265,-0.3519007503477754
1.4346244792809326,2.224533439788239,-0.006172657423144827,0.016593029435151743,-0.22537747685066117
1.4335155668523318,2.2218317701553865,-0.003470059347296315,0.00689974998096273,-0.09843303798067857
