x,y,v_x,v_y,omega
2.375,32.48,0.0,3.3846153846153846,-3.1020408163265305
2.374277418101402,31.844715299191378,-0.0076061252483990436,3.3025919923174576,-2.8956939114821
2.3722212487571595,31.224686489741575,-0.014037762585733594,3.2240270545225562,-2.7099411498176487
2.3690381234565803,30.619278232000987,-0.0194688195256267,3.1486914480099433,-2.5421266271035883
2.364904276575859,30.02789677952763,-0.02404535816617513,3.076376472762249,-2.3899980490529584
2.3599703721512997,29.449986321009938,-0.02789047788181993,3.006891511634515,-2.2516372303968835
2.3543654917394092,28.885025734938573,-0.03110826329597395,2.9400620259587735,-2.1254038750544844
2.348200442498189,28.332525698813598,-0.03378699187476375,2.875727827988338,-2.00988985757325
2.3415705118493317,27.79202610472456,-0.036001751797420156,2.8137415834752395,-1.903881857680958
2.3345577696013917,27.263093741122933,-0.0378165876545805,2.7539675070681926,-1.8063306766186258
2.3272329984806834,26.745320207010955,-0.03928626624760944,2.6962802204263343,-1.7163259266607607
2.319657318331307,26.23832002995945,-0.04045773532477417,2.6405637485368643,-1.6330750631545823
2.311883556835917,25.741728963607958,-0.0413713330477535,2.586710634110414,-1.5558859427765073
2.303957409740612,25.255202443794353,-0.04206179427124536,2.534621153401213,-1.4841522580799758
2.2959184256825274,24.77841418536159,-0.042559090550697655,2.4842026195752385,-1.417341328294518
2.287800844390226,24.31105490411312,-0.04288913357879203,2.4353687619876134,-1.3549838282948738
2.2796343119258506,23.852831150427107,-0.04307436604621309,2.3880391715493405,-1.2966651181134674
2.2714444925094313,23.40346424276393,-0.04313425938977608,2.3421388038525577,-1.242017899169398
2.263253593111342,22.96268929076758,-0.0430857342743213,2.2975975329510945,-1.1907159742181008
2.255080814263384,22.530254298914627,-0.04294351675682178,2.2543497497115963,-1.1424689287058467
2.2469427383002523,22.105919342739476,-0.04272044074982533,2.212333999500483,-1.097017583908974
2.2388536644047394,21.689455810591827,-0.042427705518731235,2.171492654685321,-1.0541300986240352
2.2308258983154095,21.280645704683792,-0.04207509542158306,2.131771618030823,-1.0135986175532075
2.222870003303745,20.87928099588081,-0.04167116785909503,2.0931200535795473,-0.9752363819153405
2.214995017990086,20.48516302729682,-0.0412234143899475,2.0554901420413514,-0.9388752320037587
2.2072086457049953,20.09810196228467,-0.040738399137320275,2.0188368580865728,-0.9043634430351799
2.1995174193834317,19.717916272877112,-0.040221877931772156,1.9831177672561342,-0.8715638451865156
2.1919268453778127,19.34443226514258,-0.03967890107474474,1.9482928404757682,-0.8403521865924228
2.1844415290720636,18.977483638279548,-0.03911390214366645,1.9143242843982728,-0.8106157045908823
2.177065284755212,18.616911074591442,-0.03853077487582304,1.8811763860028503,-0.7822518759086297
2.1698012318563213,18.262561857765576,-0.03793293984934081,1.8488153700588927,-0.7551673209752687
2.1626518793412948,17.914289517129365,-0.037323402414096825,1.8172092682170014,-0.729276841307444
2.1556191998171084,17.571953495779294,-0.03670480310365638,1.7863277986258563,-0.7045025720444568
2.1487046946727544,17.235418840676044,-0.036079461573753316,1.7561422550925623,-0.680773234351231
2.1419094514023223,16.904555912975933,-0.03544941495711378,1.7266254049086032,-0.6580234746207155
2.135234194099017,16.579240117026842,-0.03481645139346754,1.697751394555537,-0.6361932792768037
2.1286793279752327,16.25935164659842,-0.034182139383206946,1.669495662585702,-0.6152274555589484
2.122244978649437,15.94477524704351,-0.0335478535199071,1.6418348590449392,-0.5950751700086926
2.1159310268426372,15.635399992201794,-0.032914797077982255,1.6147467708678536,-0.5756895375157631
2.109737139043074,15.331119074959759,-0.03228402186478965,1.5882102527325113,-0.5570272547497335
2.10366279462541,15.031829610473572,-0.031656445689571336,1.5622051629115692,-0.5390482726295043
2.0977073098483516,14.737432451145335,-0.03103286775314649,1.5367123037014596,-0.5217155031893626
2.091869859100817,14.447832012518848,-0.03041398222089973,1.511713366051045,-0.5049945568057788
2.0861494937202383,14.16293610932956,-0.029800390206246828,1.4871908780467185,-0.4888535062689203
2.080549814862,13.88265639581724,-0.029143597775205924,1.4631218957672074,-0.4718810497370562
2.0750737330046194,13.606907589655204,-0.028499369144592408,1.4394971164647483,-0.4556516919757361
2.069718856919114,13.335606742047503,-0.027867747544941163,1.416301279405792,-0.4401243622211338
2.0644827915205557,13.068673740476044,-0.027248730334616163,1.3935197897674725,-0.4252606885050908
2.059363145980598,12.80603118565097,-0.026642275349149914,1.3711386820754217,-0.4110247920708725
2.054357540706353,12.547604275181598,-0.026048306485010615,1.3491445860232316,-0.3973830995391723
2.0494636133223283,12.293320693532493,-0.025466718609981977,1.3275246944936754,-0.3843041711149284
2.044679023775701,12.043110507861957,-0.024897381880835137,1.3062667336172196,-0.37175854330681946
2.040001458670819,11.796906069370177,-0.024340145538973224,1.2853589347172945,-0.35971858479164015
2.035428634926244,11.554641919811615,-0.023794841246028882,1.2647900080044063,-0.34815836419775775
2.0309583028365585,11.3162547028514,-0.023261286013816218,1.2445491178926096,-0.33705352870777516
2.0265882486114855,11.081683079968489,-0.022739284776429062,1.2246258598222333,-0.326381192492347
2.0223162964563066,10.85086765062957,-0.022228632646506808,1.2050102384821786,-0.31611983408651806
2.0181403102500868,10.623750876477065,-0.021729116892645634,1.1856926473336749,-0.30624920190846755
2.014058194871586,10.400277009292573,-0.021240518670520292,1.166663849345177,-0.29675022719943844
2.010067897216927,10.180392022513537,-0.020762614536417208,1.1479149588551991,-0.28760494373404355
2.0061674069479607,9.96404354609609,-0.020295177768491896,1.1294374244863543,-0.27879641371305197
2.0023547570057354,9.751180804531106,-0.01983797951809102,1.1112230130397949,-0.27030865930703823
1.9986280239194842,9.541754557833386,-0.01939078981086863,1.093263794304645,-0.2621265993696764
1.994985327938014,9.335717045335858,-0.018953378415131106,1.0755521267219732,-0.2542359908846484
1.9914248330072581,9.133021932131772,-0.018525515592826045,1.05808064384737,-0.2466233747506925
1.9879447466149927,8.933624258018039,-0.018106972746812472,1.040842241560351,-0.2392760255457599
1.9845433195212796,8.737480388802407,-0.017697522976482763,1.0238300659726085,-0.23218190494402133
1.9812188453910333,8.544547969845901,-0.017296941552424845,1.0070375019906213,-0.22532961848897776
1.9779696603431915,8.354785881720115,-0.01690500631959369,0.9904581624913484,-0.2187083754525279
1.9747973943267425,8.16835466424114,-0.016487267537765027,0.9719757057084021,-0.2541327084071728
1.9717007960550537,7.985425096603354,-0.016108503743167978,0.9535986904788073,-0.2908865467281179
1.968672561516245,7.80597740263288,-0.015767649296924546,0.9353244039472172,-0.32886836014515297
1.9657055925255533,7.6299923117689055,-0.015463603236672,0.9171502367262195,-0.36797835394018596
1.962793003034504,7.45745103969935,-0.015195233511216,0.8990736797954131,-0.4081182493027775
1.9599281246744642,7.2883352695523875,-0.014961380804993091,0.8810923217515793,-0.44919106590838326
1.9571045116100538,7.12262713357736,-0.014760861978273455,0.8632038464066185,-0.4911009057891364
1.9543159447732341,6.960309195249142,-0.014592473146145792,0.8454060307325081,-0.5337527375510686
1.9515564355447794,6.801364431729805,-0.014454992416533374,0.8276967431552453,-0.5770521799680973
1.9488202289462557,6.64577621662081,-0.014347182304768146,0.8100739422026074,-0.6209052839514526
1.9461018064025435,6.493528302937769,-0.014267791839572634,0.7925356755136297,-0.6652183118529238
1.9433958881323832,6.344604806237978,-0.014215558372640928,0.7750800792210221,-0.7098975130107351
1.9406974352223547,6.19899018782845,-0.014189209101342611,0.7577053777213673,-0.7548488943872382
1.9380016514381473,6.056669237978987,-0.014187462311367955,0.7404098838519309,-0.7999779850770659
1.9353039848259481,5.9176270590608055,-0.014209028343358323,0.7231919994973391,-0.8451895933819212
1.9326001291562838,5.7818490485263965,-0.014252610284688754,0.7060502166543199,-0.8903875550526398
1.9298860252627057,5.649320881640353,-0.01431690438455419,0.6889831189882533,-0.9354744711892866
1.927157862328378,5.520028493863922,-0.014400600187316665,0.6719893839215538,-0.98035143416443
1.9244120791748958,5.393958062787778,-0.014502380375654196,0.6550677853010197,-1.0249177397918146
1.921645365609629,5.271095989497738,-0.014620920311364274,0.638217196699396,-1.0690705838007888
1.9188546638905717,5.151428879246808,-0.014754887257661003,0.6214365954156709,-1.1127047404942632
1.9160371703711654,5.034943521293641,-0.01490293926240404,0.604725067249253,-1.1557122212628972
1.9131903373919372,4.921626867752099,-0.015063723676840259,0.5880818121353963,-1.1979819103988785
1.910311875491128,4.811466011278622,-0.015235875279047559,0.5715061507433038,-1.239399175397465
1.9073997560129192,4.704448161403324,-0.015418013965255535,0.5549975321545623,-1.279845448652187
1.9044522141994993,4.600560619286604,-0.015608741965478911,0.5385555427582773,-1.319197777139617
1.9014677528622084,4.499790750655084,-0.01580664053232086,0.52217991652088,-1.3573283363523765
1.898445146737529,4.402125956638315,-0.016010266043251724,0.5058705468135094,-1.3941039043766728
1.895383447645956,4.307553642190214,-0.01621814544699033,0.48962750000860694,-1.429385291627811
1.8922819905859969,4.216061181735807,-0.01642877097363081,0.47345103109040254,-1.4630267213623664
1.8891404009120147,4.127635881633843,-0.01664059401565635,0.4573416015618515,-1.4948751556933317
1.88595860276362,4.042264938987959,-0.01685201807271019,0.4412998999737765,-1.524769561467378
1.882736828936231,3.9599353962726163,-0.017061390636646575,0.42532686545087595,-1.5525401100566982
1.8794756324076647,3.8806340911636,-0.01726699387457797,0.40942371464405053,-1.5780073049252998
1.876175899764721,3.804347600875513,-0.017467033945880395,0.39359197259895873,-1.6009810308313743
1.8728388668073044,3.7310621802094985,-0.017659628763770245,0.37783350809592303,-1.6212595188427894
1.8694661366464334,3.6607636924023836,-0.017842793982238897,0.3621505740842188,-1.638628222148131
1.866059700657531,3.5934375317438416,-0.018014426953573855,0.34654585390045145,-1.6528585992008222
1.8626219627028773,3.5290685367914705,-0.018172288358572763,0.3310225140192348,-1.6637068034207552
1.8591557670987933,3.4676408928679514,-0.01831398115810046,0.31558426412306173,-1.6709122830584557
1.8556644308763504,3.409138022374851,-0.018436926446560347,0.30023542527800023,-1.674196301727657
1.8521517809725827,3.3535424613149054,-0.01853833569836136,0.28498100693196443,-1.6732604007505363
1.8486221970974588,3.300835720296277,-0.01861517877662864,0.26982679326412906,-1.6677848406303324
1.8450806611580484,3.250998128228222,-0.018664146901375255,0.2547794390311831,-1.6574270833166258
1.8415328142977674,3.204008656956095,-0.018681609522635274,0.23984657435963666,-1.6418204133671253
1.8379850228450842,3.159844725301653,-0.018663563663503982,0.22503691673976678,-1.6205728503962507
1.83444445479497,3.1184819814933533,-0.018605573706116204,0.21036038650548208,-1.5932665857927382
1.8309191689210471,3.0798940639786707,-0.018502698650970678,0.19582821891223692,-1.5594582959077155
1.8274182193259145,3.0440523423940142,-0.018349402350422376,0.18145306092625005,-1.5186808594501082
1.823951779331198,3.0109256434600233,-0.018139439699227194,0.16724903311577002,-1.470447263400409
1.8205312903399453,2.9804799714036285,-0.017865707577117026,0.1532317253725914,-1.4142578522406979
1.8171696440989962,2.9526782400728493,-0.017520042327608645,0.1394180781092884,-1.349612599202875
1.8138814113677748,2.9274800453650656,-0.017092933790511314,0.1258260767094927,-1.2760307921708494
1.810683137569681,2.904841523226697,-0.01657310618942514,0.1124741563259623,-1.1930814343809053
1.8075937385638587,2.884715361168322,-0.01594688334554398,0.09938018113060497,-1.1004286533105527
1.80463505049613,2.867051058850187,-0.015197201577918916,0.08655984327083126,-0.9978970913998064
1.8018326220441119,2.8517955589992603,-0.014302045285429324,0.07402436568629367,-0.885561569151386
1.7992168939704483,2.838894373516588,-0.01323193443734406,0.06177758676290328,-0.7638609812258716
1.7968250060808075,2.82829326420876,-0.011945832822034607,0.04981303753001291,-0.6337244082462518
1.7947036466617874,2.8199403113204795,-0.010384266325546336,0.0381127823466261,-0.4966732048308048
1.7929137592865625,2.8137876549628125,-0.008456653413663045,0.02665202141830721,-0.35482726980486357
1.791539196515672,2.8097909612784164,-0.006012428385182764,0.015418438417443494,-0.2107149980681276
1.7907075521307538,2.8079006888966944,-0.0027417230350079147,0.004479165600680625,-0.0668052279626419
