x,y,v_x,v_y,omega
2.375,32.48,0.0,3.5384615384615383,-2.36734693877551
2.3742830706478926,31.746989955467786,-0.006827898591497352,3.4425865047023643,-2.1875030342775386
2.372257855357788,31.033625855725617,-0.012459866076165397,3.351357302365927,-2.0283395475724335
2.3691542908946635,30.3389684854426,-0.017097890715500823,3.264427176519963,-1.8868105066008753
2.365163761490882,29.662147839483485,-0.02090715122527357,3.1814837373763667,-1.760395645269738
2.3604460603821162,29.002356356596017,-0.024023335524876194,3.102244671075702,-1.646998087305116
2.355134980434297,28.358842985055603,-0.02655837826388094,3.026454105499656,-1.5448640172841068
2.3493428271865806,27.730907955334683,-0.028604986000080938,2.953879510890076,-1.4525191923070246
2.3431640798705393,27.11789815737368,-0.030240226533645838,2.8843090411194643,-1.36871844743303
2.3366783750042996,26.51920303775245,-0.03152839124006626,2.81754924098749,-1.29240529607167
2.329952948552065,25.93425094617381,-0.032523289257408494,2.7534230597614293,-1.2226794243404226
2.323044643188003,25.36250587202499,-0.033270095162224414,2.6917681226083094,-1.158770396316489
2.3160015645917844,24.803464521001423,-0.0338068438493853,2.632435220473309,-1.1000162745112554
2.308864453236821,24.256653689324356,-0.034165645245501856,2.5752869859749343,-1.0458461517929127
2.3016678245629474,23.72162789930779,-0.03437367545805934,2.520196728468539,-0.9957658124384693
2.294440919825789,23.197967265198145,-0.03445398870535048,2.467047405909043,-0.9493459091057795
2.2872085015925414,22.685275562527067,-0.03442618494462814,2.4157307147678893,-0.9062121724509647
2.2799915212867563,22.183178477844045,-0.034306960824752854,2.3661462822133013,-0.8660372705381607
2.272807680978414,21.691322018757027,-0.03411056592136784,2.3182009471868366,-0.8285340132348695
2.265671907469338,21.209371066806305,-0.03384918178411563,2.271808119010531,-0.7934496577667765
2.2585967534078613,20.737008057909044,-0.033533237848996846,2.2268872038205316,-0.7605611194957399
2.2515927375033264,20.273931777004343,-0.033171675527522676,2.1833630905099373,-0.7296709297779541
2.2446686337635726,19.819856255153013,-0.03277216961299362,2.141165689026547,-0.700603812724614
2.237831717940396,19.374509758745884,-0.03234131441725899,2.100229514850871,-0.6732037765532434
2.2310879779560024,18.937633861684162,-0.03188478067220125,2.0604933143083892,-0.6473316343081167
2.2244422939323387,18.50898259244405,-0.0314074481245979,2.0218997260736438,-0.6228628840622298
2.2178985925036008,18.088321648849863,-0.030913517863380018,1.984394974823368,-0.5996858910796572
2.2114599793194603,17.675427674175012,-0.030406607699866403,1.9479285935085726,-0.5777003244288988
2.205128853010343,17.270087588885296,-0.029889833339345792,1.9124531711553632,-0.556815808673653
2.1989070033607674,16.872097972948296,-0.029365877608990273,1.8779241234827184,-0.5369507579027645
2.1927956960016264,16.481264494167647,-0.02883704962092487,1.8442994839520568,-0.5180313647915802
2.186795745570934,16.097401378472348,-0.028305335433291078,1.8115397131460107,-0.4999907218464071
2.180907578991595,15.720330918507024,-0.027772441512791634,1.7796075246189966,-0.4827680556578533
2.1751312902634368,15.349883017236614,-0.027239832088715436,1.7484677255753922,-0.46630805802546677
2.16946668795634,14.985894763604911,-0.026708761312206935,1.7180870709170166,-0.45056030033360284
2.1639133364147485,14.6282100375754,-0.02618030098866398,1.6884341293640275,-0.4354787196518282
2.158470591535281,14.276679142140143,-0.02565536453007245,1.6594791604955748,-0.42102116677891416
2.153137631853923,13.931158460111565,-0.02513472767333917,1.631194001681359,-0.40714900790941627
2.147913485573425,13.5915101337166,-0.024619046426643785,1.603551963984982,-0.39382677282611
2.142797054071894,13.257601765195428,-0.02410887263555585,1.5765277362166619,-0.3810218435509305
2.1377871323574755,12.929306136770865,-0.023604667501762443,1.5500972963982238,-0.3687041782548163
2.1328824268693243,12.606500948501285,-0.02310681333777092,1.5242378299787427,-0.35684606596019725
2.1280815709699326,12.289068572661883,-0.02261562379929281,1.4989276542060581,-0.345421908191143
2.1233897455428963,11.976896180907278,-0.02206842788676973,1.474142743456826,-0.3326141307956332
2.118811473920939,11.669875146363648,-0.021534158989015503,1.4498671093396476,-0.3204134985845255
2.1143440540816556,11.367900484992791,-0.02101269662320655,1.426082046573279,-0.30878387171756594
2.109984812677873,11.070871048199187,-0.020503888174723296,1.402769732413418,-0.2976916695440559
2.1057311112011847,10.778689342965002,-0.02000755446040003,1.3799131745788344,-0.2871056607578344
2.101580351056814,10.49126136253777,-0.01952349453360495,1.3574961628233695,-0.27699677304192916
2.097529977698437,10.208496426936176,-0.01905148983189179,1.3355032238584916,-0.26733792018541935
2.093577483951895,9.930307032598424,-0.018591307754223393,1.3139195793581804,-0.2581038448848587
2.0897204126396884,9.65660871055158,-0.018142704742983178,1.2927311068022334,-0.2492709756438981
2.0859563586034087,9.38731989252907,-0.017705428935869856,1.271924302935948,-0.24081729636134944
2.082282970208515,9.122361784508197,-0.017279222444068047,1.2514862496438046,-0.23272222735311573
2.0786979504048007,8.861658247180085,-0.01686382330559389,1.2314045820525075,-0.22496651668998116
2.075199057406307,8.605135682901626,-0.016458967156254896,1.2116674586947358,-0.2175321408536267
2.071784105046116,8.35272292871284,-0.016064388655087525,1.1922635335794096,-0.21040221381948127
2.068450962854218,8.10435115503413,-0.015679822696318006,1.173181930027342,-0.20356090376893293
2.0651975559003537,7.859953769686246,-0.015305005435724064,1.1544122161429855,-0.19699335671655105
2.0620218644382575,7.6194663269018434,-0.014939675155665902,1.1359443818037036,-0.19068562641165254
2.0589219233829708,7.382826441021393,-0.014583572989926043,1.117768817057736,-0.18462460993893948
2.055895821648716,7.149973704588092,-0.014236443526782685,1.099876291830861,-0.1787979885010525
2.0529417013712337,6.920849610576621,-0.013898035306383205,1.082257936849807,-0.17319417291759753
2.050057757035288,6.6953974785091255,-0.013568101226434608,1.064905225697774,-0.16780225342127814
2.0472422345253256,6.473562384228828,-0.013246398868444129,1.0478099579241051,-0.16261195337286477
2.044493430114844,6.255291093117492,-0.012932690755190126,1.0309642431362187,-0.1576135865534378
2.0418096894079305,6.040531996557405,-0.012626744548749916,1.0143604860074724,-0.15279801772516216
2.0391894062446023,5.829235051451953,-0.01232833319723083,0.9979913721396994,-0.14815662618123013
2.0366333916980364,5.62148110557375,-0.012014662484348524,0.9806176362241505,-0.16812261892728103
2.0341404989375755,5.417363691579816,-0.0117271733295635,0.9633577351466449,-0.18993944432013796
2.031705227632911,5.216859234974308,-0.01146588671486337,0.9462085182391351,-0.21350026099473496
2.0293220835492534,5.019944810290692,-0.011230723605686862,0.9291669549381428,-0.23870107286016248
2.0269855986427987,4.826598116391448,-0.011021513598641291,0.9122301298165525,-0.265440503915345
2.0246903494121926,4.636797452770878,-0.01083800288332039,0.8953952379983835,-0.29361957978770986
2.02243097364489,4.450521696782285,-0.010679861567181197,0.8786595809406028,-0.3231415151482359
2.0202021856874586,4.267750281713855,-0.010546690408359245,0.8620205625682477,-0.35391150617514383
2.017998790359844,4.088463175640303,-0.010438026997488269,0.8454756857512941,-0.38583652725177475
2.0158156956253768,3.9126408609794616,-0.01035335142601418,0.8290225491138553,-0.4188251310918805
2.013647924120757,3.7402643146848185,-0.010292091475125088,0.8126588441684476,-0.4527872514875431
2.011490623643464,3.5713149890062574,-0.010253627356232692,0.7963823527702389,-0.4876340078711122
2.0093390766878145,3.405774792752098,-0.010237296030909998,0.7801909448884357,-0.523277510872698
2.0071887091153635,3.2436260729859114,-0.010242395135290735,0.7640825766942761,-0.5596306680386132
2.0050350980403877,3.084851597091422,-0.010268186531142762,0.7480552889675334,-0.5966069888533789
2.0028739790067904,2.9294345351380997,-0.010313899503116526,0.7321072058260052,-0.6341203881780874
2.000701252528967,2.7773584424789206,-0.010378733619015744,0.7162365337852321,-0.6720849871805356
1.998512990065902,2.628607242509812,-0.0104618612673157,0.7004415611586722,-0.7104149107870411
1.9963054394950621,2.48316520951791,-0.010562429883538914,0.6847206578118251,-0.7490240806315296
1.9940750301504722,2.3410169515424926,-0.01067956387446117,0.6690722752873929,-0.7878260024135688
1.9918183774877782,2.202147393168449,-0.01081236624643419,0.6534949473225509,-0.826733546502633
1.9895322874380614,2.0665417581672756,-0.010959919941343646,0.6379872907838555,-0.8656587205400088
1.9872137605117322,1.9341855518946858,-0.011121288880839356,0.6225480070503171,-0.9045124326913011
1.9848599957140176,1.8050645433469157,-0.011295518716441993,0.6071758838808148,-0.9432042440902317
1.982468394334401,1.679164746769544,-0.011481637279907234,0.5918697978084366,-0.9816421088870279
1.98003656367391,1.556472402702937,-0.011678654724769791,0.5766287171116199,-1.0197321001707516
1.9775623207764532,1.4369739583370844,-0.011885563346246632,0.5614517054203026,-1.0573781198729555
1.9750436962335247,1.320656047035346,-0.01210133706259566,0.5463379260248366,-1.0944815905785796
1.9724789381356154,1.2075054668712681,-0.012324930536540917,0.5312866469663732,-1.1309411269676253
1.9698665162486848,1.0975091580047973,-0.012555277910417805,0.5162972470000324,-1.1666521843866222
1.9672051265001567,0.9906541787034442,-0.012791291123182074,0.501369222536674,-1.201506681801416
1.964493695866239,0.8869276797900838,-0.013031857771273882,0.4865021956858102,-1.2353925961121301
1.96173138776107,0.7863168772712186,-0.013275838468429283,0.4716959235414639,-1.2681935245181633
1.9589176080384494,0.6888090228674919,-0.01352206365176681,0.45695030887496507,-1.2997882113082089
1.9560520117288795,0.5943913721310814,-0.013769329772708559,0.44226541242419426,-1.3300500351225004
1.953134510648602,0.5030511497917445,-0.014016394801362247,0.4276414669980548,-1.3588464524003672
1.9501652820334803,0.41477551192386386,-0.014261972961703005,0.41307889364840933,-1.3860383923998227
1.947144778369289,0.3295515044698121,-0.014504728602023523,0.39857832019973183,-1.4114795988793376
1.9440737386115856,0.2473660175895347,-0.014743269090390289,0.38414060246958115,-1.4350159132988873
1.9409532010132646,0.1682057352313464,-0.014976136607904238,0.3697668485607547,-1.4564844942785602
1.937784517806673,0.09205707923334927,-0.015201798692968505,0.3554584466582949,-1.4757129681239216
1.9345693720203847,0.018906147168088694,-0.01541863736691962,0.34121709682040285,-1.4925185055994858
1.9313097967491895,-0.05126135696556844,-0.015624936644464174,0.3270448473096664,-1.5067068209690038
1.9280081972404979,-0.11846020022001369,-0.015818868200218286,0.31294413606598004,-1.5180710908643515
1.9246673762125006,-0.18270570749363202,-0.015998474923565077,0.29891783796846455,-1.5263907931459613
1.9212905628807546,-0.24401385892907257,-0.016161652045444504,0.284969318559535,-1.5314304700931678
1.9178814462428329,-0.30240139934149823,-0.016306125458571314,0.2711024948921172,-1.5329384267691943
1.9144442132587682,-0.3578859612338192,-0.016429426770616415,0.25732190408234973,-1.5306453853530184
1.9109835926734722,-0.41048620305826944,-0.0165288645179172,0.24363277996003696,-1.5242631312498665
1.9075049053641733,-0.4602219644270207,-0.01660149080873806,0.2300411378376191,-1.5134832092808193
1.9040141222738223,-0.5071144399094791,-0.016644062432701254,0.21655386675720234,-1.497975761733342
1.9005179312306388,-0.5511863728020927,-0.016652995121426758,0.2031788274581405,-1.4773886496980433
1.8970238142875118,-0.5924622696958721,-0.016624309098831582,0.18992495248258562,-1.451347072474272
1.8935401376971424,-0.6309686356087454,-0.016553563190399925,0.17680234192573177,-1.4194540078324709
1.8900762573600123,-0.666734227608643,-0.01643577335369691,0.1638223437875876,-1.3812919541509063
1.8866426436936365,-0.6997903218018635,-0.016265309183215042,0.1509976009097453,-1.3364266854448583
1.8832510316272488,-0.730170983681333,-0.016035758115715105,0.138342036037577,-1.28441406029077
1.8799146042535282,-0.757913324262212,-0.015739740681624023,0.12587073139939722,-1.2248113885967076
1.8766482232859105,-0.783057713079522,-0.01536864948616424,0.11359963828927892,-1.1571954844185546
1.8734687270735337,-0.805647902804985,-0.014912266822186554,0.1015450257627237,-1.0811903139771961
1.8703953294908386,-0.8257309982852661,-0.014358186346337188,0.08972255023998076,-0.9965079768912951
1.8674501737572977,-0.8433571766306969,-0.01369091587786223,0.07814581495461373,-0.9030072628246759
1.8646591293355037,-0.8585790417780501,-0.012890459567795899,0.06682432930586393,-0.8007732564981566
1.8620529761064954,-0.8714504970828827,-0.01193004737513777,0.05576095931158136,-0.6902174127198456
1.8596692144515807,-0.8820250891219175,-0.010772444576432583,0.04494944106020611,-0.5721867752527988
1.8575549148197612,-0.8903540037940161,-0.00936374239327602,0.0343735558169275,-0.44804986968726745
1.8557714244933976,-0.8964844371911198,-0.007621879762566799,0.024011524155461025,-0.31969663161142625
1.8544030455127034,-0.900460280204932,-0.005410301005948934,0.01385364740464399,-0.18936662394328688
1.8535780594557103,-0.9023310523638415,-0.002446709060653966,0.0039632302992676765,-0.05923886226106309
