x,y,v_x,v_y,omega
2.375,32.48,0.0,2.8205128205128203,-4.938775510204081
2.3738581309225526,31.894488044921108,-0.01087494359473519,2.755791513571836,-4.633373423056345
2.3705960415854404,31.32229757461567,-0.020192573901573908,2.6936415369561275,-4.356145267507673
2.365518364563407,30.76290616852137,-0.028166254879699332,2.633895663942012,-4.103706398354939
2.358888265975722,30.21582490579303,-0.0349775411934863,2.5764020763278626,-3.8731551356947937
2.3509335740442263,29.680595332486128,-0.04078142958266265,2.5210224313569114,-3.6619938913604564
2.34185190585334,29.15678680164217,-0.045710648425780445,2.4676302433474553,-3.4680647726527507
2.3318149737742213,28.643994126770238,-0.049879180899160956,2.416109517337637,-3.289496707982143
2.320972216600708,28.141835500865593,-0.05338517313429713,2.366353586516117,-3.1246618052083526
2.309453872119917,27.649950642105402,-0.056313345730380354,2.318264115961881,-2.9721391548508693
2.29737358562006,27.16799913438405,-0.05873700188730439,2.2717502432890875,-2.830684671388875
2.2848306312724773,26.69565893638289,-0.06071970618491139,2.226727832912427,-2.6992058580400182
2.271911809342348,26.23262503726738,-0.062316693149653886,2.183118825330555,-2.5767406062655356
2.2586930709818254,25.778608240631513,-0.06357605314103644,2.1408506664395817,-2.4624393171584598
2.2452409133352234,25.333334061161544,-0.06453973396945967,2.0998558047029725,-2.3555497698289583
2.231613580376919,24.89654172081527,-0.0652443894429652,2.060071246213928,-2.255404270788943
2.217862098953992,24.467983233222107,-0.0657221002991972,2.02143815943527,-2.161408704794508
2.204031174642246,24.047422566587727,-0.06600098838409584,1.9839015227968837,-2.0730331766317627
2.190159968031469,23.634634876701618,-0.06610574124235075,1.9474098094518104,-1.989803988728916
2.1762827687648905,23.229405802747237,-0.06605806129649543,1.9119147043993987,-1.9112967441526054
2.1624295819354176,22.831530819543353,-0.06587705136514845,1.8773708499233415,-1.8371304007395344
2.14862663918137,22.44081464063201,-0.06557954629244458,1.8437356158989635,-1.7669621315624477
2.134896844942344,22.057070667300014,-0.06518039884113883,1.8109688920248053,-1.7004828709871673
2.1212601667635473,21.68012047919523,-0.06469272667121317,1.779032899449315,-1.6374134453075853
2.107733977219553,21.30979336269393,-0.06412812612873156,1.7478920196106975,-1.577501203186154
2.0943333539215057,20.945925873602857,-0.06349685766219432,1.717512638399532,-1.5205170745425887
2.081071343139259,20.588361431150922,-0.06280800693063088,1.687863003999853,-1.4662529976518983
2.06795919178224,20.23694994054876,-0.06206962504098116,1.6589130969730976,-1.4145196634572441
2.0550065518158624,19.891547441677236,-0.06128885082927766,1.6306345113271443,-1.3651445338130126
2.042221660624234,19.552015781714076,-0.06047201766242386,1.6030003454648443,-1.3179700968225623
2.0296115003483193,19.218222309726364,-0.059624746870096224,1.5759851020372024,-1.2728523278448933
2.0171819388181857,18.890039591449344,-0.05875202960736794,1.5495645958391644,-1.2296593292948848
2.004937854347154,18.56734514264295,-0.05785829868816991,1.5237158689836243,-1.188270126199394
1.9928832463553923,18.25002117956889,-0.056947491709561135,1.4984171126741135,-1.1485735977163047
1.9810384904626446,17.937957376041147,-0.055859707268989346,1.4736191113996207,-1.1059009437551168
1.969421534532803,17.631047462245633,-0.0547779682533099,1.449332448557648,-1.0652590909616557
1.9580309129629212,17.32918604229134,-0.05370414193604147,1.4255382176737192,-1.0265266630643595
1.9468647961888097,17.0322715959081,-0.05263982734121066,1.4022184145476004,-0.9895909154183256
1.9359210437136798,16.74020629465595,-0.051586386707644295,1.3793558830919155,-0.9543470240740626
1.9251972509147346,16.452895829100136,-0.05054497328231235,1.3569342650586835,-0.9206974411942076
1.9146907903518096,16.17024924616957,-0.04951655588840057,1.334937953327677,-0.8885513099127926
1.9043988482145742,15.892178795981668,-0.048501940656698835,1.313352048461862,-0.8578239325232825
1.8943184564683686,15.618599787475542,-0.047501790259544686,1.2921623182631277,-0.8284362865742522
1.8844465211920123,15.349430452248836,-0.046516640943849316,1.2713551600864705,-0.8003145840586248
1.8747798475425235,15.084591816041982,-0.04554691762270922,1.2509175656931009,-0.7733898694152979
1.8653151617305772,14.824007577357698,-0.04459294725297053,1.2308370884429374,-0.7475976525305468
1.8560491303457063,14.567603992743475,-0.04365497069818066,1.2111018126448831,-0.7228775733392138
1.8469783773309318,14.315309768301326,-0.042733153252052444,1.191700324899389,-0.6991730949896031
1.8380994988719461,14.067055957022248,-0.04182759397638249,1.1726216872823159,-0.6764312228574223
1.8294090764355933,13.822775861573227,-0.04093833398888332,1.1538554122321731,-0.6546022469784095
1.8209036881656349,13.582404942192316,-0.04006536382024409,1.1353914390146038,-0.6336395057211064
1.8125799188202196,13.345880729372674,-0.03920862994561536,1.1172201116486464,-0.6134991687445872
1.804434368414678,13.113142741039727,-0.038368040583351394,1.099332158188947,-0.5941400374843259
1.7964636597149104,12.884132403946872,-0.037543470843008,1.0817186712668319,-0.575523361585791
1.7886644447104105,12.658792979034743,-0.036734767295086485,1.0643710898010732,-0.5576126698624415
1.7810334101816268,12.437069490517011,-0.0359417520266632,1.0472811817963852,-0.5403736144948402
1.7735672824636586,12.218908658472198,-0.03516422623970131,1.0304410281542233,-0.5237738273126105
1.76626283149704,12.00425883473623,-0.03440197344237896,1.0138430074264229,-0.5077827871126815
1.7591168742463925,11.793069941904456,-0.033654762278074554,0.9974797814476367,-0.4923716970672259
1.7521324448927302,11.58543322945032,-0.03286361251870789,0.9800127181155649,-0.5042046007507626
1.7453103501904226,11.381452154937431,-0.03210871797946087,0.9626641820071836,-0.5181180147962401
1.7386430102779116,11.18110217998899,-0.03138975737778732,0.9454308175017963,-0.5339936459747177
1.7321229224281316,10.984359456819849,-0.030706317382023264,0.9283094031566823,-0.5517165757714062
1.7257426794894821,10.791200800664303,-0.030057901081303996,0.9112968459437428,-0.5711750002746248
1.7194949866205482,10.601603663366916,-0.029443935765685367,0.894390175936123,-0.592259979062807
1.7133726764581674,10.415546108044069,-0.028863780066514747,0.8775865414243236,-0.6148651920657093
1.7073687228483736,10.233006784727898,-0.028316730502948226,0.860883204443977,-0.6388867034103761
1.701476253260517,10.053964906907776,-0.027802027476639433,0.844277536700055,-0.6642227312899848
1.6956885599964044,9.878400228887415,-0.027318860753002123,0.8277670158748069,-0.6907734229145539
1.6899991102986145,9.70629302387809,-0.02686637446404523,0.8113492223092409,-0.7184406336167422
1.6844015554551102,9.537624062750321,-0.026443671664568846,0.7950218360504696,-0.747127709193593
1.6788897389909314,9.372374593367745,-0.026049818470467338,0.778782634259786,-0.7767392705660358
1.6734577040320087,9.210526320427679,-0.025683847804987305,0.762629488978935,-0.8071809998321103
1.668099699921004,9.052061385733143,-0.025344762776009437,0.7465603652547449,-0.838359426777036
1.6628101881605253,8.896962348820761,-0.02503153970474149,0.730573319625103,-0.8701817148831383
1.657583847755049,8.74521216786804,-0.024743130823601106,0.7146664989722521,-0.9025554458549301
1.6524155800194276,8.596794180801933,-0.02447846665850904,0.6988381397525826,-0.9353884016389015
1.6473005129189147,8.45169208652828,-0.024236458108281168,0.683086567615552,-0.9685883428733211
1.642234005003261,8.309889926198693,-0.024015998231277414,0.6674101974281312,-1.0020627826500157
1.6372116489955513,8.17137206442758,-0.023815963746911258,0.6518075337253166,-1.0357187544070399
1.6322292750951386,8.03612317036718,-0.023635216257017803,0.6362771716118266,-1.0694625726976628
1.6272829540532654,7.904128198542693,-0.023472603189392736,0.6208177981452028,-1.1031995854964047
1.6223690000797624,7.775372369342641,-0.0233269584630173,0.6054281942362433,-1.1368339166061483
1.6174839736396338,7.64984114905138,-0.02319710287154221,0.5901072371091182,-1.170268196620769
1.6126246841993814,7.527520229300993,-0.023081844178478975,0.5748539033707656,-1.2034032807744628
1.6077881929846503,7.408395505808588,-0.02297997691419952,0.5596672727473795,-1.2361379518712319
1.60297181581323,7.292453056251826,-0.022890281861229222,0.5445465325551259,-1.2683686063352129
1.5981731260707108,7.17967911712034,-0.022811525210383595,0.529490982982831,-1.2999889212543683
1.5933899579001918,7.0700600593631115,-0.02274245736598853,0.5145000432764758,-1.3308895001066152
1.5886204096825272,6.963582362631527,-0.02268181137367341,0.49957325892910215,-1.360957494659542
1.5838628478897006,6.860232587894451,-0.022628300938963116,0.4847103099954428,-1.3900762003243043
1.5791159114012108,6.759997348174743,-0.022580617999034238,0.46991102066845675,-1.4181246220245047
1.5743785163819504,6.662863277125652,-0.02253742980344579,0.4551753702752668,-1.4449770074174801
1.569649861830098,6.568816995130085,-0.022497375452290372,0.44050350587299597,-1.470502344087389
1.564929435915258,6.477845072565074,-0.022459061831901488,0.4258957566509264,-1.4945638171303997
1.560217023240631,6.389933989827412,-0.022421058878830006,0.41135265037441826,-1.51701822339249
1.5555127131786874,6.305070093663591,-0.022381894092060213,0.39687493213817804,-1.5377153385297873
1.5508169094479047,6.223239549287268,-0.02234004620110882,0.3824635857315839,-1.5564972330836402
1.5461303411190324,6.144428287700034,-0.022293937883390402,0.36811985795634355,-1.5731975339608428
1.5414540752634818,6.06862194755567,-0.022241927407568664,0.3538452862756818,-1.5876406281745972
1.536789531484399,5.995805810824404,-0.022182299059887504,0.3396417302125496,-1.5996408065646526
1.5321384986035023,5.925964731422479,-0.022113252186747104,0.3255114069486326,-1.6090013466632205
1.527503153814838,5.859083055874798,-0.022032888657674506,0.31145693160069804,-1.615513536175902
1.522886084661575,5.795144534977709,-0.02193919851625873,0.2974813626572876,-1.6189556420902262
1.5182903142457305,5.734132225330207,-0.021830043539403595,0.2835882530332157,-1.6190918357630792
1.5137193301460332,5.6760283795140545,-0.021703138362473434,0.2697817071206029,-1.6156710922694533
1.509177117600081,5.620814323641049,-0.02155602874183549,0.2560664440508865,-1.6084260939650197
1.5046681976096978,5.568470320971958,-0.021386066404669855,0.2424478670833039,-1.597072185273591
1.5001976707625022,5.5189754203827945,-0.02119037975909818,0.22893213852777813,-1.5813064505292524
1.4957712677430202,5.472307288665114,-0.020965839474064826,0.21552625878346973,-1.5608070226840995
1.49139540775688,5.428442026082525,-0.02070901753679224,0.20223814676500743,-1.5352327826930694
1.4870772664493765,5.387353965391618,-0.02041613777276357,0.18907671695792866,-1.504223684278185
1.4828248554257415,5.349015455859611,-0.020083014833285336,0.17605194525166654,-1.4674020461217252
1.4786471162730446,5.313396635945924,-0.01970497709716085,0.163174911069173,-1.4243753062945692
1.4745540332021898,5.280465201648479,-0.019276766434790506,0.15045779652554356,-1.374740948574264
1.4705567703317772,5.250186182578059,-0.01879240375961523,0.13791381366894584,-1.3180946067023551
1.4666678426427433,5.222521745293314,-0.018245002802611196,0.12555701761434138,-1.2540427483001717
1.46290133441777,5.197431054062527,-0.0176265041018968,0.11340194648838973,-1.1822218380964897
1.4592731866150357,5.174870233594273,-0.01692728449557303,0.1014630103521077,-1.1023264368268377
1.4558015867923788,5.154792496104122,-0.0161355709583017,0.08975353717313617,-1.0141491481484632
1.4525075144877644,5.137148513601197,-0.015236546228502758,0.07828439142615562,-0.9176352691382734
1.4494155253815872,5.12188712702989,-0.014210969068422324,0.06706214734818983,-0.8129535381398735
1.4465549057463383,5.108956466996183,-0.013033027457759552,0.05608699582996957,-0.7005798734874844
1.4439614081689542,5.098305476580059,-0.011666949469706289,0.04535100813311073,-0.5813811544283842
1.4416799282544799,5.089885606392585,-0.01006143066814454,0.03483823174760353,-0.45666937487805126
1.4397688365493568,5.083651980827064,-0.008139442713978956,0.024529630781159724,-0.328176299290717
1.4383078284933957,5.079562317766264,-0.005774919723746939,0.014419541226439186,-0.19788835258891455
1.4374165328441029,5.077568518489791,-0.0027136102695183703,0.00456902331141403,-0.0677035447768834
