x,y,v_x,v_y,omega
2.375,32.48,0.0,2.8205128205128203,-2.7346938775510203
2.374224830255091,31.839260423357864,-0.006740606477471842,2.751135672027474,-2.550782594643244
2.3720203947307246,31.214137965622157,-0.012428398082235358,2.6847117865438737,-2.385385042592314
2.368610737574964,30.60397617146311,-0.017220794576551575,2.621042945273945,-2.2360907269424226
2.364186622877519,30.008162112698297,-0.02124976800992688,2.5599488700722293,-2.100859132933249
2.35891086947048,29.426122502848997,-0.024626348573022695,2.501265128617328,-1.9779553592333308
2.3529227495864253,28.85732025815133,-0.02744425911440667,2.444841347014584,-1.865898182880825
2.346341630723051,28.30125144068423,-0.029782861436676383,2.3905396744384673,-1.7634179244534645
2.339270002735583,27.757442530647708,-0.031709555845653485,2.338233456313881,-1.6694220873685042
2.3317960032534732,27.225447983800894,-0.03328174399877572,2.287806081484494,-1.5829671999718045
2.323995531956801,26.704848037231656,-0.034548441189681645,2.239149975639333,-1.5032356337394854
2.3159340265434256,26.195246732401998,-0.0355516058831461,2.1921657185315975,-1.4295164340926876
2.3076679592463734,25.696270129108747,-0.036327240178179725,2.1467612666270917,-1.3611894026764744
2.2992461016770536,25.207564687850642,-0.036906303902859046,2.102851266052104,-1.297711826543339
2.2907105969335126,24.728795801277307,-0.037315476475760175,2.0603564432812487,-1.2386073715934145
2.282097870835432,24.259646458047076,-0.03757779394233186,2.0192030630685833,-1.183456753077824
2.273439408454014,23.799816024642837,-0.037713183287388465,1.979322444794367,-1.131889871112276
2.264762417505435,23.349019132568998,-0.03773891191764669,1.9406505297607417,-1.0835791585989984
2.256090396446251,22.90698465994147,-0.037669966857868345,1.903127493087333,-1.0382339362197393
2.2474436220722493,22.47345479783652,-0.0375193755247546,1.8666973947818088,-0.9955956069116251
2.2388395689409184,22.048184192923763,-0.037298477791165185,1.8313078653291435,-0.9554335525191592
2.230293270903272,21.63093915890547,-0.03701715731880248,1.7969098217864512,-0.9175416197087042
2.221817633357185,21.221496950145237,-0.036684038734128566,1.7634572109111926,-0.8817351019604384
2.213423703453246,20.819645091615058,-0.036306656082731675,1.7309067763077732,-0.8478481404704438
2.205120904340813,20.4251807599386,-0.035891597068862406,1.6992178469658037,-0.8157314798485229
2.1969172385926923,20.037910210874678,-0.03544462682783858,1.6683521448943663,-0.7852505251722318
2.1888194651564854,19.657648249080214,-0.034970794356569926,1.6382736098400927,-0.7562836557177184
2.180833253520704,19.284217736426754,-0.03447452421544399,1.6089482393204455,-0.728720757900569
2.1729633182313006,18.91744913552733,-0.033959695692406415,1.5803439424136547,-0.702461945917392
2.1652135364305565,18.557180085467984,-0.033429711270587144,1.5524304059284915,-0.6774164435149373
2.1575870507000876,18.20325500703671,-0.03288755595088206,1.5251789717347757,-0.6535016044155753
2.150086359160669,17.85552473500734,-0.03233584873971177,1.4985625241727745,-0.6306420523467468
2.142727126693169,17.513847248577385,-0.03165747706463817,1.4725460534790176,-0.605492704459394
2.1355232446026844,17.17808620148977,-0.03098497589609852,1.4471152255436874,-0.5816346038964673
2.1284732284559507,16.848109555974908,-0.030319512336368027,1.4222469093681767,-0.5589847348591326
2.1215753474156793,16.52379045867093,-0.029662061926863166,1.3979191541446725,-0.5374664280562809
2.114827665455631,16.20500697782937,-0.029013433377900796,1.3741111140428,-0.5170087995019678
2.108228077250118,15.891641857164618,-0.02837429014830154,1.3508029786941673,-0.49754624547458737
2.1017743394145882,15.583582285094213,-0.02774516929108667,1.3279759088745673,-0.47901798737873735
2.0954640976848995,15.280719678226287,-0.02712649792359706,1.3056119769334695,-0.46136766101780075
2.0892949105461254,14.98294947804899,-0.0265186076309639,1.2836941115647513,-0.44454294544999917
2.0832642697555537,14.690170959865558,-0.02592174706965782,1.2622060465520444,-0.42849522717780597
2.0773696181473444,14.402287053098991,-0.025336093001728417,1.2411322731572227,-0.41317929592261
2.0716083650568153,14.119204172162938,-0.024761759959391564,1.2204579958519342,-0.39855306867395396
2.065977899659485,13.840832057161151,-0.02419880871304893,1.200169091120131,-0.38457733908450337
2.060475602482792,13.567083623737599,-0.02364725369297791,1.1802520690846785,-0.3712155496157694
2.0550988553161447,13.29787482145349,-0.023107069495259192,1.160694037733643,-0.35843358413201665
2.0498450497168514,13.03312450011678,-0.02257819658554792,1.1414826695420963,-0.34619957889629965
2.044711594285054,12.772754283534542,-0.022060546299649347,1.1226061703034564,-0.3344837501479492
2.0396959208594665,12.516688450199556,-0.02155400522719758,1.1040532500007676,-0.3232582366391537
2.0347954897671547,12.264853820459713,-0.02105843905377384,1.0858130955630856,-0.3124969556830652
2.0300077942443315,12.01717964975293,-0.02057369592729812,1.0678753453654648,-0.30217547142011686
2.02533036413097,11.773597527521446,-0.0200996094062809,1.050230065343089,-0.2922708741455833
2.0207607689296068,11.534041281447877,-0.01963600104035501,1.0328677266009867,-0.28276166966208555
2.0162966203078296,11.298446886681539,-0.01918268262727322,1.0157791844106494,-0.27362767772769647
2.011935574114404,11.066752379747523,-0.018739458185127112,0.9989556584938207,-0.26484993876521784
2.0076788467390867,10.838991484753368,-0.018275562469803986,0.9815738631944757,-0.27276502540830816
2.003526078889935,10.61521353909361,-0.01783546230542666,0.9643213164556035,-0.2830649143585346
1.9994717265415567,10.395389261419055,-0.01741977550655845,0.9471941415840074,-0.2956207505618703
1.9955101218114502,10.179490243770775,-0.017028961276978172,0.9301886205749464,-0.310307892283797
1.9916355078833714,9.967488915955215,-0.01666333374979273,0.9133011865168775,-0.32700561222528596
1.987842070940376,9.759358511602159,-0.016323074450169187,0.8965284165531759,-0.34559681092574723
1.9841239693459467,9.555073035781007,-0.016008243762257044,0.8798670253698913,-0.3659677412458183
1.9804753602936467,9.35460723405755,-0.015718791475135524,0.8633138591819025,-0.38800774277652
1.9768904241292196,9.157936562879438,-0.01545456647640413,0.8468658901929783,-0.4116089850668788
1.9733633865339604,8.965037161183798,-0.01521532565628378,0.8305202115082545,-0.43666621859988725
1.9698885387443152,8.775885823125087,-0.015000742079760886,0.8142740324805434,-0.4630765324768701
1.9664602559700184,8.590459971825233,-0.014810412479343041,0.798124674474721,-0.4907391177930721
1.9630730141615125,8.40873763405136,-0.014643864116360412,0.7820695670372223,-0.5195550357026364
1.9597214052668748,8.230697415729125,-0.014500561054402766,0.7661062444604525,-0.5494269891790736
1.9564001511089133,8.056318478201682,-0.014379909884391587,0.7502323427347175,-0.5802590974777166
1.953104116004463,7.88558051514563,-0.014281264936915032,0.7344455968831263,-0.6119566722993217
1.9498283182401346,7.718463730056115,-0.014203933013767057,0.7187438386778653,-0.6444259946386239
1.946567940511835,7.554948814213137,-0.01414717766709829,0.7031249947393177,-0.6775740912779153
1.943318339429234,7.395016925040498,-0.014110223051172776,0.6875870850227546,-0.7113085098531012
1.940075054180983,7.238649664767287,-0.014092257368399617,0.6721282217008053,-0.745537091377638
1.9368338144518926,7.08582905929952,-0.014092435928039028,0.6567466084536735,-0.78016773905757
1.9335905476794035,6.936537537206284,-0.014109883832734932,0.6414405401831714,-0.8151081821677627
1.930341385733591,6.790757908720536,-0.014143698304766259,0.6262084031711677,-0.8502657336844587
1.927082671102574,6.648473344649425,-0.0141929506605997,0.6110486757080628,-0.8855470402814006
1.9238109626636282,6.5096673550824065,-0.014256687938928807,0.5959599292225215,-0.9208578231948198
1.920523041119508,6.374323767777565,-0.014333934183855779,0.5809408299500068,-0.9561026083452651
1.9172159141795302,6.24242670609706,-0.014423691381167171,0.5659901411848046,-0.9911844439701588
1.913886821565898,6.113960566351448,-0.014524940041722703,0.5511067261683463,-1.0260046038686088
1.9105332399275972,5.988909994399361,-0.014636639421761598,0.5362895516759034,-1.0604622741878424
1.907152887747077,5.867259861333583,-0.014757727365371434,0.5215376923743241,-1.0944542214871364
1.9037437303288793,5.748995238066435,-0.01488711974939073,0.506850336035655,-1.1278744395988782
1.900303984964561,5.634101368606206,-0.015023709505550233,0.49222678970547584,-1.1606137725662746
1.8968321263747325,5.522563641791873,-0.015166365188610333,0.47766648694088953,-1.1925595106725855
1.8933268925370024,5.414367561224729,-0.015313929052522405,0.46316899625166963,-1.2235949562878043
1.889787291018214,5.30949871310235,-0.015465214589114483,0.4487340308994639,-1.2535989559469882
1.8862126059408015,5.207942731621934,-0.015619003475343372,0.4343614602345857,-1.2824453947435814
1.8826024057265918,5.109685261575457,-0.015774041865611155,0.42005132277824325,-1.3100026487778658
1.8789565517772406,5.014711917707551,-0.01592903595483194,0.4058038412905108,-1.3361329910565605
1.8752752082689867,4.923008240347485,-0.016082646725637615,0.3916194401013705,-1.3606919459130093
1.8715588532609457,4.834559646758056,-0.016233483779065836,0.37749876502410906,-1.3835275867369334
1.8678082913411789,4.749351377565279,-0.016380098131952552,0.36344270621743224,-1.4044797716119404
1.864024668063756,4.667368437542578,-0.016520973845638085,0.3494524244147473,-1.4233793114232323
1.8602094864636793,4.588595529920401,-0.01665451832894168,0.3355293809954882,-1.440047065214481
1.8563646259755653,4.513016983276177,-0.016779051132918273,0.3216753724325342,-1.4542929581854585
1.852492364127447,4.440616669929945,-0.016892791024632158,0.30789256970860895,-1.46591491894265
1.8485954014342028,4.371377914628486,-0.016993841090535318,0.2941835633475431,-1.4746977347555112
1.8446768899776975,4.305283392147945,-0.017080171574728256,0.2805514147441198,-1.480411827089643
1.8407404662351183,4.24231501228676,-0.017149600099872958,0.26699971448359067,-1.4828119552591004
1.8367902888066583,4.182453790567315,-0.01719976884325663,0.25353264829418465,-1.4816358646557575
1.83283108180375,4.125679702833089,-0.017228118138553076,0.24015507113387013,-1.4766029091365884
1.8288681847972865,4.071971521847004,-0.017231855830696665,0.22687258961470486,-1.4674126969373023
1.8249076104038977,4.021306634013197,-0.017207921503119252,0.2136916524183953,-1.4537438391162574
1.8209561108269028,3.9736608345332805,-0.017152944383793063,0.20061964740695012,-1.4352529237086822
1.8170212549986962,3.929008099787584,-0.01706319325278592,0.18766500255561402,-1.4115739043833995
1.8131115184452318,3.887320336685516,-0.01693451590777432,0.1748372852884693,-1.382318189504865
1.8092363886975935,3.848567110438715,-0.016762264506472675,0.16214729077065815,-1.3470758606040487
1.8054064901555686,3.812715355101041,-0.016541201076351066,0.14960710346998435,-1.3054186587293972
1.8016337340079758,3.7797290759159488,-0.01626537412010894,0.13723010683515757,-1.256905680398699
1.7979315015462427,3.7495690599014573,-0.015927951634091227,0.12503090198651817,-1.2010931556959412
1.7943148736653352,3.722192622361881,-0.01552098646075804,0.11302507661849731,-1.1375502731973175
1.7908009266919334,3.6975534335095723,-0.01503507417751882,0.1012287394885191,-1.065883781922314
1.7874091268405445,3.6756014921907365,-0.014458837573688318,0.0896577067622223,-0.9857749720349309
1.784161875720327,3.6562833422527703,-0.01377812868907298,0.07832620574182973,-0.8970333316046777
1.7810852924667158,3.639542655746496,-0.012974769168415685,0.06724498126925223,-0.7996709203978645
1.7782103725089522,3.6253213181238344,-0.01202453481213565,0.05641882414519119,-0.6939985472451728
1.7755747536052628,3.61356110098772,-0.010893890437337584,0.04584393356013915,-0.5807359729932544
1.7732254817986368,3.6042058112841744,-0.009534560055063106,0.03550641168808181,-0.46110943440016344
1.7712235208523164,3.5972033089845503,-0.007873795999896386,0.025384912656485518,-0.3368799398627879
1.7696517934421907,3.592505676856998,-0.005793398870761664,0.015464062365701872,-0.21021725111891948
1.768633135511989,3.590062661537214,-0.0030644961744706795,0.005779549110696093,-0.0833383230154163
