x,y,v_x,v_y,omega
2.375,32.48,0.0,2.6153846153846154,-6.285714285714286
2.373680947018648,31.9367880018831,-0.012562409346208727,2.5580629857286565,-5.921643826023566
2.3699010885972096,31.40538605256691,-0.02343624228653838,2.5029079601398565,-5.5888721998944995
2.3639922439049252,30.885353821666857,-0.03283846906855065,2.4497799531939872,-5.283863568106836
2.356243882339034,30.376278902647584,-0.04095545060660377,2.3985526088943265,-5.0035609566428825
2.3469090421693584,29.877774217793167,-0.047947789104594754,2.3491110563858113,-4.74531121577441
2.3362093217459674,29.389475758366622,-0.05395431016579523,2.3013504619622474,-4.506803365043507
2.3243391071845294,28.911040604059263,-0.05909535232409015,2.2551748171554618,-4.286017633157022
2.311469167716477,28.44214517701799,-0.06347549975259782,2.2104959165709137,-4.081183106279409
2.2977497245248144,27.982483694380644,-0.06718586397752337,2.1672324894990886,-3.8907423523633913
2.283313079031358,27.53176678998316,-0.0703059978649183,2.125309457143613,-3.7133217339489426
2.2682758709204114,27.089720281192413,-0.07290550795362005,2.084657293244435,-3.547706386148639
2.252741023698526,26.656084061007242,-0.0750454179690989,2.045211470423879,-3.392819040920467
2.236799425575005,26.230611098912615,-0.07677932606443467,2.006911978096379,-3.2477020380849533
2.220531385359911,25.81306653665835,-0.07815439026979402,1.969702900515652,-3.111501988736297
2.204007896504297,25.40322686730839,-0.07921217025986389,1.9335320456744547,-2.983456655743274
2.1872917370368548,25.000879187679104,-0.07998934847768183,1.8983506174615983,-2.862883694907537
2.1704384287396863,24.605820515739232,-0.08051834959058755,1.8641129248229105,-2.749170963534831
2.1534970752648714,24.217857165744523,-0.08082787397907837,1.8307761227457435,-2.6417681540834486
2.1365110958750995,23.836804174877486,-0.08094335830446217,1.798299980749837,-2.540179551786372
2.119518868979172,23.46248477599581,-0.08088737403770511,1.7666466752660879,-2.443957748702918
2.1025542975338833,23.09472991179323,-0.08067997306028281,1.735780602853769,-2.352698174096386
2.0856473066235344,22.733377786267944,-0.08033898799066111,1.705668211672739,-2.2660343235691545
2.0688242820474363,22.378273449896156,-0.079880293686459,1.6762778490109664,-2.1836335879685764
2.0521084574960486,22.02926841533653,-0.07931803537437854,1.647579622985479,-2.10519359845842
2.035520256838642,21.68622030085912,-0.07866482802949337,1.6195452767993594,-2.0304390169292152
2.019077597147684,21.348992499008524,-0.07793193093201092,1.5921480741586889,-1.9591187115738553
2.0027961573212094,21.017453868284733,-0.07712940074870099,1.5653626946393604,-1.8910032663649443
1.9866896165127974,20.691478445862764,-0.07626622599808,1.5391651379507907,-1.8258827806461368
1.970769866021548,20.370945179579365,-0.07535044534715277,1.5135326361768477,-1.7635649213407278
1.9550471978168953,20.055737677596067,-0.07438925184001552,1.488443573187887,-1.703873195589881
1.9395528075727877,19.745749791559064,-0.07317636953243688,1.4638220081168896,-1.6407663444338965
1.9243142084777185,19.440879224134292,-0.07195314565869848,1.4397072054523994,-1.5806542899100577
1.909333167881722,19.1410215310227,-0.07072343144603012,1.4160803479913109,-1.5233584281588988
1.8946106931712037,18.846076124317406,-0.06949061341605046,1.3929235253924612,-1.468712834960587
1.8801471240014238,18.55594608787949,-0.06825766439137705,1.3702196787781629,-1.4165632224156792
1.8659422144180684,18.270538003918485,-0.06702718878343532,1.347952549421893,-1.3667659929994194
1.851995205997995,17.989761789956756,-0.06580146283631212,1.3261066311660064,-1.3191873808392167
1.83830489300641,17.713530545428142,-0.06458247041687597,1.3046671262493512,-1.273702671232857
1.8248696804514906,17.44176040722503,-0.06337193486807259,1.2836199042565095,-1.2301954904459105
1.8116876358155807,17.17437041356559,-0.06217134737868785,1.2629514639286157,-1.188557158720832
1.7987565351527222,16.911282375605005,-0.06098199226758374,1.242648897600769,-1.1486861002144955
1.7860739041637348,16.65242075626132,-0.059804969532295874,1.2226998580533694,-1.1104873042700312
1.7736370547909996,16.397712555769335,-0.05864121496994255,1.2030925275845965,-1.0738718330353254
1.7614431178142675,16.147087203514406,-0.05749151814179373,1.1838155891290243,-1.0387563709751884
1.7494890718751888,15.900476455733216,-0.056356538420860476,1.1648581992632707,-1.005062812296193
1.7377717693109416,15.65781429870042,-0.05523681933387435,1.1462099629538383,-0.9727178827205339
1.726287959135512,15.419036857049178,-0.05413280138450236,1.127860909915107,-0.9416527924147781
1.7150343074702106,15.184082306900113,-0.053044833523130226,1.1098014724569618,-0.9118029172070556
1.7040074156922682,14.952890793497382,-0.05197318340965365,1.0920224647119097,-0.8831075055171771
1.6932038365413484,14.725404353072836,-0.05091804659910571,1.074515063140902,-0.8555094086828483
1.682620088398083,14.50156683867936,-0.0498795547653269,1.0572707882255408,-0.8289548325954575
1.6722526679258987,14.281323849753168,-0.048857783065000354,1.0402814872619965,-0.8033931087641976
1.6620980612471077,14.064622665181872,-0.04785275673301027,1.0235393181788977,-0.7787764831105184
1.6521527538061866,13.851412179670774,-0.04686445699004659,1.007036734307747,-0.7550599209586396
1.6424132390571082,13.641642843214246,-0.04589282633451016,0.9907664700401306,-0.7322009268343399
1.6328844650571,13.435417990870963,-0.044857402236997426,0.9732797427530271,-0.7390133416784535
1.6235689049960267,13.232852678454389,-0.0438622173922716,0.9559137088334047,-0.7480259386385432
1.6144581564616014,13.033921923114825,-0.04290681626892298,0.9386649134481682,-0.7591137205750916
1.6055439221501007,12.838601452592247,-0.04199065336441592,0.9215300439097039,-0.7721553388056521
1.5968180278735877,12.646867676013649,-0.04111310164999275,0.9045059235055216,-0.7870328124577031
1.588272438866459,12.458697655934735,-0.040273460322659514,0.8875895058174723,-0.8036312580297593
1.5798992745315408,12.274069081525589,-0.03947096191466001,0.8707778695077402,-0.8218386280282478
1.5716908217557999,12.092960242804342,-0.03870477880668107,0.8540682135517605,-0.84154545759064
1.563639546916448,11.915350005826792,-0.03797402918714754,0.8374578529010815,-0.8626446180406511
1.5557381066896825,11.741217788743171,-0.03727778249633285,0.8209442145619747,-0.8850310763492009
1.5479793577665546,11.570543538635935,-0.03661506439059985,0.8045248340783575,-0.9086016594954585
1.54035636557336,11.403307709054623,-0.035984861258872326,0.7881973524103305,-0.9332548227357392
1.532862412087537,11.239491238165286,-0.035386124320394376,0.7719595132024033,-0.958890420794331
1.525491002834252,11.079075527433012,-0.034817773329938434,0.7558091604382995,-0.9854094809894232
1.518235873143654,10.922042420756366,-0.03427869991385106,0.7397442364821417,-1.0127139772991012
1.511090993744146,10.768374183972313,-0.03376777055765439,0.7237627805088542,-1.040706604356647
1.5040505757629428,10.618053484649252,-0.03328382926332918,0.7078629273298179,-1.0692905503409154
1.497109075201647,10.471063372084181,-0.03282569989186913,0.692042906623225,-1.0983692676960042
1.4902611969515602,10.327387257417605,-0.03239218820419328,0.6763010425822513,-1.1278462405744365
1.483501898410964,10.187008893776664,-0.031982083611009925,0.6606357539981451,-1.157624747849175
1.4768263927646377,10.049912356352891,-0.03159416063971726,0.6450455547996923,-1.1876076204815105
1.47023015198446,9.916082022316015,-0.031227180123877717,0.6295290550753194,-1.2176969919636806
1.4637089096090434,9.785502550459118,-0.030879890118186565,0.6140849626094215,-1.2477940404764283
1.4572586633600237,9.658158860463232,-0.030551026539142837,0.5987120849704343,-1.2777987213120592
1.450875677652891,9.534036111660882,-0.030239313528789766,0.5834093321948183,-1.3076094880124223
1.4445564860610998,9.413119681167974,-0.029943463535888757,0.5681757201185809,-1.3371230005581873
1.438297893793734,9.295395141241801,-0.029662177105687818,0.5530103744163791,-1.3662338188206644
1.4320969802492067,9.18084823570922,-0.02939414236600053,0.5379125354177399,-1.3948340793502423
1.4259511017104511,9.069464855293386,-0.029138034193578573,0.5228815637806731,-1.422813153426909
1.4198578942508533,8.961231011649328,-0.028892513040686872,0.5079169471151038,-1.4500572841394772
1.4138152769248629,8.856132809897701,-0.028656223397316175,0.49301830766228877,-1.4764492000933438
1.4078214553228947,8.754156419422213,-0.02842779185952439,0.47818541115190416,-1.5018677031756098
1.4018749255769096,8.655288042668783,-0.028205824768905364,0.46341817697598514,-1.5261872276370045
1.3959744789110595,8.55951388165326,-0.02798890538204744,0.4487166898385324,-1.549277367591135
1.3901192068411397,8.466820101848754,-0.02777559052194975,0.4340812130615262,-1.571002369896208
1.3843085071374999,8.377192793083296,-0.02756440665557166,0.4195122037523646,-1.5912205892915832
1.3785420906787187,8.290617927032542,-0.02735384533282275,0.40501033006432435,-1.6097839026388225
1.3728199893379986,8.20708131084071,-0.027142357912128576,0.3905764908102682,-1.6265370792036438
1.3671425650612028,8.12656853634504,-0.02692834948592646,0.376211837719911,-1.6413171041674788
1.3615105203150883,8.049064924315001,-0.026710171905640668,0.3619178006614158,-1.6539524530548304
1.3559249101071222,7.974555463046961,-0.02648611578927517,0.34769611617704355,-1.6642623156182903
1.3503871558048828,7.903024740579141,-0.026254401374910565,0.3335488597069635,-1.6720557690969515
1.344899061014335,7.834456869711431,-0.026013168058878353,0.3194784818902806,-1.6771309028827077
1.3394628298133817,7.76883540493327,-0.025760462426391014,0.3054878493303039,-1.6792738998137966
1.334081087681682,7.7061432502846365,-0.025494224542178832,0.2915802901805049,-1.6782580840214696
1.328756905522177,7.646362557108432,-0.025212272215011943,0.27775964483097776,-1.673842952130312
1.323493827237584,7.589474610609429,-0.02491228287635139,0.2640303218261966,-1.6657732145735034
1.3182959014115583,7.535459704134837,-0.02459177260960905,0.25039735888420667,-1.653777888134712
1.3131677177573038,7.48429700016402,-0.024248071716624173,0.23686648845690275,-1.6375695014175384
1.3081144491484518,7.435964377184597,-0.023878295986728307,0.22344420658521066,-1.6168435043878404
1.3031419002572342,7.390438262005741,-0.023479312501058044,0.2101378427372114,-1.5912780151166326
1.2982565641234736,7.347693447715621,-0.02304769829666263,0.19695562669250039,-1.5605340965073895
1.293465688412242,7.307702898572408,-0.022579689429352272,0.18390674609999924,-1.5242568401712044
1.2887773537636138,7.270437544833783,-0.02207111674805978,0.17100138474406992,-1.4820776531345778
1.2842005676145591,7.23586607316815,-0.021517322766745745,0.15825072635719367,-1.4336183077223135
1.27974537837113,7.20395472224434,-0.02091305098019862,0.14566690148862288,-1.3784975396789352
1.2754230171304053,7.17466709886498,-0.020252294169560498,0.13326284498147156,-1.3163412773495868
1.271246077771286,7.147964038158925,-0.01952808067919407,0.12105201888573125,-1.2467979594444991
1.2672287518910248,7.123803542356271,-0.018732165799483905,0.10904794113954801,-1.169560826057214
1.263387143894962,7.1021408465047635,-0.017854577020161543,0.0972634479224289,-1.0843994526218066
1.2597397052599086,7.082928674659662,-0.016882933789869617,0.08570961726901964,-0.9912028933550104
1.2563078481421595,7.06611776171437,-0.015801419712504206,0.07439431554330432,-0.8900360732054254
1.2531168310554297,7.051657712402211,-0.014589219208730728,0.06332043981060309,-0.7812085087095797
1.2501970604944233,7.039498226219738,-0.013218119467521527,0.05248419049867327,-0.6653485048954082
1.2475860395883438,7.029590592864402,-0.0116487463046636,0.04187422240929349,-0.5434651389932105
1.245331373958778,7.021889089886333,-0.00982425969120213,0.031473425000902805,-0.41696517554812706
1.2434957271574916,7.016351368553611,-0.007658090797240053,0.02126677816786362,-0.2875789378067063
1.242166361459115,7.012935630532176,-0.005002534901583818,0.011264060131520594,-0.1571512097976774
1.2414814988556282,7.011586665084835,-0.00151996608400455,0.0015832298431672203,-0.027301886303909395
