x,y,v_x,v_y,omega
2.375,32.48,0.0,3.128205128205128,-5.795918367346939
2.3737851264908425,31.89248404034312,-0.012788142201657714,3.0561733944988263,-5.436323966666098
2.370314845218161,31.318380327438803,-0.023741134352887508,2.9870235834413505,-5.110029405639286
2.3649138807067906,30.757159306427827,-0.03311112366153277,2.9205661114110466,-4.8130179369675306
2.3578626347675775,30.208325753692733,-0.04111251780386803,2.856629180537323,-4.541848745708241
2.3494037617717716,29.67141561441158,-0.04792825057303759,2.7950564961064037,-4.29356232351285
2.339747663349848,29.14599323769303,-0.053714890710371346,2.7357053640888376,-4.06560334452949
2.3290770997392642,28.63164894440024,-0.058606831506299195,2.6784450916247233,-3.855757436311417
2.3175510750163815,28.12799687571635,-0.0627197445240445,2.623155631363614,-3.6620990612063715
2.305308122459928,27.634673080463454,-0.06615344028072909,2.569726423930029,-3.4829483398881327
2.292469092063765,27.15133380692518,-0.06899424809993218,2.5180554027886486,-3.316835115228031
2.2791395231173195,26.677653970993187,-0.07131700396791532,2.4680481333375917,-3.1624689112268447
2.265411669606102,26.213325777263567,-0.07318671720279886,2.419617063816297,-3.0187137165044424
2.2513662340620293,25.758057473546945,-0.07465997273480901,2.3726808700428865,-2.8845667352794497
2.2370738557444527,25.311572222346914,-0.07578611481862849,2.3271638794311276,-2.759140415755785
2.2225963911495756,24.873607075370657,-0.07660824933797113,2.2829955624242144,-2.6416471973480617
2.207988018438906,24.443912039188213,-0.07716409498486566,2.240110081601501,-2.5313865223984036
2.1932961921456307,24.02224922184824,-0.07748670810224259,2.1984458903981867,-2.4277337411027986
2.178562470227152,23.608392051661426,-0.07760510156595403,2.157945374726177,-2.3301306049250443
2.1638232319989275,23.202124560534635,-0.07754477452061972,2.1185545318716397,-2.2380770973780026
2.1491103025644196,22.803240725223695,-0.07732816689525164,2.0802226819277023,-2.151124394421543
2.134451496933529,22.411543860705024,-0.07697505027202262,2.042902207742552,-2.068868781972976
2.1198710950057116,22.026846060573565,-0.07650286475763018,2.006548319957,-1.9909463867904664
2.105390256910636,21.648967679978924,-0.07592700992737388,1.9711188441971113,-1.9170286005578938
2.0910273867894946,21.277736857130012,-0.07526109661095766,1.936574027896687,-1.8468180963824525
2.07679845191617,20.912989069845963,-0.07451716521351255,1.902876364566987,-1.7800453529142022
2.0627172630604087,20.554566724018258,-0.07370587537344954,1.8699904336193554,-1.716465614546032
2.0487957211533256,20.202318771185844,-0.07283667101689835,1.8378827540902676,-1.655856227161146
2.035044034603005,19.856100352718848,-0.0719179242496381,1.8065216508255222,-1.598014298070739
2.021470911003362,19.515772468363988,-0.07095706100975942,1.7758771318571858,-1.5427546364551543
2.008083726465273,19.181201667130996,-0.06996067097012405,1.74592077585853,-1.489907937052837
1.9948886753607227,18.85225975869863,-0.06893460381461669,1.716625628692712,-1.4393191752480772
1.9818909028964096,18.528823543695367,-0.06788405370446823,1.687966108183705,-1.390846186266208
1.969094622612845,18.21077456136602,-0.06681363349094957,1.6599179163357611,-1.3443584050368074
1.9565032206301989,17.89799885327441,-0.06572744001058838,1.6324579583127545,-1.2997357465489734
1.9441193482260304,17.590386741816214,-0.06462911161223772,1.6055642675629989,-1.2568676092944429
1.9319450041267554,17.287832622426414,-0.0635218789064461,1.5792159365401448,-1.2156519867538222
1.9199816077193852,16.99023476846496,-0.062408609592187525,1.553393052527836,-1.1759946738943536
1.9082300642385888,16.69749514785284,-0.061291848100407,1.5280766381260564,-1.1378085573690644
1.8966908228530308,16.409519250610725,-0.06017385069493985,1.5032485960014546,-1.1010129795822658
1.8853639284612844,16.126215926523983,-0.059056616586600635,1.478891657543191,-1.0655331680530404
1.8742576484361284,15.847499810478524,-0.05785159420451497,1.454962195566917,-1.0286279390261468
1.8633787295806867,15.573288449909633,-0.056663341115924463,1.431473178842482,-0.9933349932907601
1.852723921017838,15.303499600359977,-0.055492538493011,1.4084094479960083,-0.9595653610477328
1.8422898554126133,15.038053834509956,-0.05433973103566798,1.3857565083199996,-0.9272359108754852
1.8320730733532193,14.776874419390083,-0.053205343273744335,1.3635004929418206,-0.8962689054327874
1.8220700448095652,14.519887200360074,-0.052089694027876304,1.3416281284266967,-0.866591595497276
1.81227718799897,14.267020491409937,-0.05099300924154807,1.320126702627371,-0.8381358486484167
1.8026908859507473,14.01820497137247,-0.0499154333713215,1.2989840346091486,-0.810837809295302
1.7933075010279955,13.773373585667674,-0.048857039499749726,1.2781884464939777,-0.7846375870960154
1.784123387635509,13.53246145322808,-0.0478178383158986,1.2577287370806938,-0.759478971121959
1.7751349033168284,13.2954057782799,-0.04679778609126582,1.2375941571106952,-0.7353091673924727
1.766338418420589,13.06214576667875,-0.0457967917638842,1.2177743860593142,-0.712078557646506
1.7577303244961469,12.832622546520522,-0.04481472323024427,1.198259510343093,-0.6897404774327588
1.7493070415606262,12.606779092767919,-0.043851412933130385,1.1790400028421921,-0.6682510117907892
1.7410650243637629,12.384560155651602,-0.04290666282332665,1.1601067036453363,-0.6475688069658985
1.7330007677629444,12.165912192621743,-0.041980248764233896,1.1414508019321454,-0.6276548967525934
1.725110811308486,11.950783303641316,-0.041071924440592156,1.1230638189144517,-0.608472542197224
1.7173917431281989,11.73912316962683,-0.04018142482558906,1.1049375917643687,-0.5899870835118688
1.7098402031905868,11.530882993855279,-0.03930846925453753,1.0870642584624883,-0.5721658031603276
1.702452886017353,11.326015446168395,-0.03845276414792381,1.0694362435047078,-0.5549777991746132
1.6952265429082223,11.124474609816414,-0.03761400542187219,1.0520462444108645,-0.5383938678478768
1.688157983734257,10.92621593079403,-0.036791880619867635,1.0348872189826415,-0.522386395028356
1.681244078349763,10.731196169530776,-0.03598607079585698,1.0179523732621203,-0.5069292553096856
1.674481757667479,10.539373354807008,-0.03519625217555296,1.0012351501459467,-0.4919977184766095
1.6678680144369165,10.350706739774875,-0.03442209761984415,0.9847292186133676,-0.47756836262255237
1.661406574750884,10.165366630337815,-0.03359305696997212,0.9662193017767526,-0.5076848970510868
1.6550980999397549,9.983533178295389,-0.032811941041911256,0.9478170355119484,-0.5392432676215894
1.6489336207315823,9.80518619504129,-0.03207731378095826,0.929519630320667,-0.5721349031768792
1.6429044429297646,9.630306011415652,-0.031387715711859325,0.9113244078439462,-0.6062532152269547
1.637002151509574,9.458873456910183,-0.030741667658568353,0.8932287974767563,-0.6414933577693387
1.63121861404487,9.29086983947948,-0.03013767407516023,0.8752303333727386,-0.6777519903764144
1.6255459835364792,9.126276925884799,-0.029574226013162425,0.8573266518344247,-0.7149270435228854
1.619976700709193,8.96507692249725,-0.029049803747746333,0.8395154890871609,-0.7529174851181164
1.61450349584032,8.807252456487365,-0.028562879082497786,0.8217946794379494,-0.7916230871916212
1.6091193901792478,8.65278655732752,-0.028111917349839935,0.8041621538235637,-0.8309441916550098
1.6038176970144622,8.501662638532498,-0.02769537912158685,0.786615938755635,-0.8707814740298726
1.5985920224419652,8.353864479561683,-0.027311721641538125,0.7691541556739955,-0.9110357039878341
1.5934362658870207,8.209376207803924,-0.026959399989457324,0.7517750207234615,-0.9516075014957361
1.5883446204296199,8.068182280562713,-0.026636867983183824,0.7344768449734942,-0.9923970872949034
1.5833115729830343,7.930267466955268,-0.026342578822979714,0.7172580351048801,-1.0333040263678717
1.5783319043743005,7.795616829633989,-0.026074985479480547,0.7001170945927869,-1.074226962957931
1.5734006893754917,7.664215706232643,-0.02583254082376823,0.6830526254213856,-1.1150633456053347
1.5685132967352011,7.536049690432293,-0.025613697495080294,0.6660633303717779,-1.1557091405479756
1.5636653892608137,7.4111046125334,-0.02541690749847341,0.6491480159323663,-1.1960585317026158
1.5588529240039326,7.289366519410354,-0.025240621521326737,0.6323055958891773,-1.2360036052941927
1.5540721526037902,7.170821653712881,-0.02508328795385528,0.6155350956631762,-1.275434017034235
1.5493196218466727,7.055456432164995,-0.024943351594750876,0.5988356574724588,-1.3142366395639902
1.5445921745034026,6.943257422796201,-0.024819252018619356,0.5822065464096033,-1.3522951876727674
1.5398869505118218,6.834211320921117,-0.024709421576968857,0.5656471575386303,-1.3894898185769482
1.5352013885770999,6.728304923662385,-0.024612282999050262,0.5491570241322354,-1.425696704300507
1.530533228269677,6.625525102786913,-0.024526246552768333,0.5327358271885162,-1.460787572935261
1.5258805127088522,6.525858775597179,-0.024449706719071665,0.5163834063876294,-1.4946292152816048
1.521241591929611,6.429292873586416,-0.02438103832557459,0.5000997726730467,-1.527082953083854
1.516615127041411,6.33581430852886,-0.024318592076528457,0.483885122669655,-1.5580040647877913
1.512000095300525,6.245409935632932,-0.02426068940648159,0.46773985518221906,-1.5872411644761393
1.5073957962323936,6.158066513335591,-0.024205616573850286,0.45166459005296467,-1.614635529402608
1.5028018589575747,6.073770659259402,-0.024151617897925567,0.4356601896963935,-1.6400203713800068
1.4982182508945878,5.992508801789324,-0.024096888028253858,0.41972778367285196,-1.663220047231495
1.4936452880356506,5.914267126653012,-0.02403956311845274,0.40386879670938486,-1.6840492036578811
1.4890836470175002,5.839031517806159,-0.023977710756814114,0.38808498062592284,-1.7023118523119616
1.4845343792397412,5.766787491832591,-0.023909318482754262,0.3723784506747877,-1.7178003717540118
1.479998927318309,5.697520124967912,-0.02383228069021717,0.35675172684814077,-1.7302944345089368
1.475479144202669,5.631213971746547,-0.02374438368494088,0.34120778074516617,-1.739559859970771
1.4709773153337307,5.5678529741579545,-0.02364328861967323,0.3257500886084336,-1.745347397860487
1.466496184277112,5.507420360083646,-0.023526511976312274,0.31038269112111067,-1.7473914529986534
1.4620389823362332,5.4498985296816755,-0.023391403190831737,0.29511026047858757,-1.7454087712615887
1.457609462736019,5.3952689283044535,-0.023235118916687298,0.2799381750711081,-1.7390971201345018
1.453211940077266,5.343511904503689,-0.023054593280710613,0.26487260177905714,-1.7281340172681634
1.4488513359041013,5.2946065517312135,-0.022846503278917126,0.24992058529963482,-1.7121755898020687
1.4445332314183377,5.248530532546852,-0.022607228150174834,0.23509014295680744,-1.6908556901558676
1.4402639286404142,5.205259884586187,-0.022332801091125207,0.22039036189229128,-1.6637854565919525
1.4360505216980344,5.164768808362531,-0.022018850933924597,0.2058314930935575,-1.630553597804253
1.431900980487383,5.127029438388355,-0.021660530230828458,0.1914250329504113,-1.5907278123237805
1.4278242498071096,5.092011601411389,-0.02125242429836337,0.1771837773334367,-1.54385794242202
1.4238303683912559,5.0596825692143454,-0.02078843271062528,0.16312182474069534,-1.4894817303584356
1.4199306143580208,5.030006819040306,-0.0202616097444808,0.14925449288075832,-1.4271344183159778
1.4161376869282718,5.002945823075642,-0.019663942147612475,0.13559809622095348,-1.356363936757413
1.41246593963423,4.978457900452433,-0.01898602936861649,0.1221695103391229,-1.2767540651890044
1.4089316888944192,4.956498181627051,-0.01821660999781378,0.10898542466488768,-1.1879586689221953
1.4055536357686353,4.937018755410506,-0.017341843957806097,0.09606116708820207,-1.0897507023318451
1.402353461027798,4.919969090005505,-0.01634420594574569,0.0834089950697158,-0.9820895608417357
1.3993566892152205,4.905296830676537,-0.015200760502437063,0.07103583997205941,-0.8652083256504782
1.3965939742814721,4.89294905329686,-0.013880449326492737,0.05894076402453832,-0.7397162078924162
1.394103054928122,4.882873945267217,-0.012339754392981619,0.04711300470855994,-0.606697928244494
1.3919318131980662,4.875022606936664,-0.01051542171286895,0.03553266192883525,-0.46776914860459945
1.3901433398950485,4.869350069092466,-0.008310613055739201,0.024178262746946524,-0.32502133444603254
1.388825565104231,4.8658132614796195,-0.0055607005318130814,0.01305129107247296,-0.18078026150085927
1.3881169332031533,4.864358234276352,-0.0018985826374250695,0.0022647847513856557,-0.037148772597662055
