x,y,v_x,v_y,omega
2.375,32.48,0.0,2.2051282051282053,-2.0
2.374717430886885,32.06489251121617,-0.002974411717003568,2.1644243083857386,-1.9079755469883015
2.3739014038830253,31.657412338926182,-0.00561534621835825,2.1248406630878294,-1.8219926329019998
2.3726120065732874,31.257351534620263,-0.00795725704203857,2.0863256980271165,-1.741521731483211
2.370903145757738,30.86451164715215,-0.010030751542693533,2.0488310121635425,-1.666088991285528
2.368823233300319,30.47870314424408,-0.01186306379855986,2.012311123710912,-1.5952695371945307
2.3664157881912797,30.099744879304573,-0.013478463665012567,1.9767232440733429,-1.5286816732679678
2.363719966060832,29.727463599124846,-0.014898611392332064,1.942027073607989,-1.4659818531773299
2.360771025735614,29.36169348855205,-0.016142865715224712,1.9081846166320007,-1.4068603061999523
2.3576007410456463,29.002275748693492,-0.017228552073909355,1.8751600134580806,-1.3510372245689148
2.354237764922392,28.649058205597846,-0.01817119659192282,1.842919387548704,-1.29825943275993
2.3507079518415415,28.30189494669785,-0.018984730574928024,1.81143070613547,-1.2482974715555437
2.347034643827179,27.96064598259269,-0.01968166957625507,1.7806636528661937,-1.200943039937471
2.3432389245224683,27.62517693200399,-0.02027327047332873,1.7505895112254266,-1.1560067463873098
2.339339845225568,27.295358727962736,-0.020769669494044452,1.7211810576298778,-1.1133161283223383
2.335354626271477,26.971067343480726,-0.021180003706913066,1.6924124632333613,-1.072713904397978
2.3312988366969853,26.652183535132494,-0.021512518129841115,1.6642592035901627,-1.0340564294680494
2.327186554745328,26.33859260312613,-0.021774660308657146,1.6366979754241853,-0.9972123262682385
2.323030511439917,26.030184166576372,-0.02197316395882862,1.6097066198363978,-0.9620612715082959
2.3188422191745777,25.726851952813,-0.02211412304474114,1.5832640513570282,-0.9284929171320402
2.314632087024325,25.428493599664314,-0.022203057484236694,1.557350192313333,-0.8964059301199363
2.310409524270186,25.135010469750746,-0.022244971506698623,1.531945912040033,-0.8657071364401528
2.306183033449176,24.846307475908603,-0.022244405556563623,1.507032970508813,-0.836310756661324
2.3019602940821704,24.562292916940585,-0.022205482517182743,1.4825939659966336,-0.8081377223742374
2.2977499678268507,24.282879058685168,-0.022113741223023394,1.458604541955126,-0.780071350118524
2.2935594553900343,24.007981219845437,-0.021996916006623478,1.4350569195157545,-0.7532389185410048
2.289393268005193,23.737516900103838,-0.021857688044332916,1.4119359198695052,-0.7275719617877738
2.285255431218757,23.471406420105005,-0.021698488654995865,1.3892270274866536,-0.7030065284105275
2.2811495301040114,23.20957279890711,-0.021521523079171025,1.3669163535437985,-0.6794828363553812
2.2770787501852006,22.951941638153883,-0.021328791855678403,1.3449906017533502,-0.6569449578360645
2.2730459145036357,22.69844101252823,-0.021122110055529924,1.3234370364113888,-0.635340531203203
2.2690535172110637,22.449001366082037,-0.020903124603125305,1.3022434524959328,-0.6146204972290343
2.265103754034391,22.20355541406701,-0.020673329888164674,1.2813981476622016,-0.5947388574987826
2.261198549919403,21.96203804991962,-0.020434081848549373,1.2608898959945651,-0.5756524528405331
2.2573395841287933,21.724386257078397,-0.02018661068418621,1.2407079233867297,-0.5573207599387
2.253528313041143,21.49053902533558,-0.01993203234371113,1.2208418844324287,-0.5397057044654323
2.2497659908720036,21.26043727144623,-0.01967135891039005,1.201281840718601,-0.5227714892324841
2.2460536885155578,21.034023763737885,-0.01940550799956409,1.1820182404218513,-0.5064844360157189
2.242392310685163,20.811243050481693,-0.019135311267748336,1.1630418991169855,-0.4908128398377483
2.238782611513074,20.59204139180278,-0.018861522122662622,1.144343981713692,-0.4757268346131294
2.2352252087536013,20.376366694922794,-0.018584822713893046,1.1259159854440588,-0.46119826916677054
2.2317205967196183,20.16416845254179,-0.018305830275399962,1.1077497238296528,-0.4472005927311703
2.2282691580695166,19.955397684179545,-0.018025102883568452,1.0898373115623885,-0.4337087491131425
2.224871174550234,19.75000688030847,-0.017743144687824255,1.0721711502384432,-0.42069907879688156
2.2215268367917242,19.547949949121353,-0.017460410664910452,1.0547439148890678,-0.40814922831859485
2.2182362532390063,19.34918216578754,-0.017177310942649293,1.037548541256347,-0.39603806630933786
2.214999458299694,19.153660124060433,-0.016894214734321903,1.0205782137658133,-0.3843456056579077
2.211816419777475,18.961341690108306,-0.016611453920618673,1.0038263541513481,-0.37305293129534955
2.2086870456553394,18.772185958448276,-0.016329326312385452,0.9872866106910421,-0.3621421331474136
2.20561261066594,18.58635896207578,-0.016033147260238943,0.9687870353352379,-0.39430545442287757
2.2025914760245837,18.404036732980423,-0.015768270017191874,0.9503943235632955,-0.4278542402027217
2.1996177595571087,18.225199229365117,-0.015534008587809853,0.932105714492517,-0.462684563401756
2.1966857147382255,18.049826923855218,-0.015329621084645688,0.9139185540327636,-0.4986942708500604
2.1937897408041236,17.87790078351046,-0.015154315063796265,0.8958302917015443,-0.5357827609442652
2.1909243918963908,17.7094022504078,-0.015007252386021703,0.8778384778001214,-0.5738507634617492
2.1880843853245815,17.544313222726785,-0.014887553633023317,0.8599407609474272,-0.6128001206077909
2.1852646090294363,17.38261603626951,-0.014794302105348526,0.8421348859712261,-0.652533568348912
2.1824601283240175,17.22429344634717,-0.01472654742537447,0.8244186921587167,-0.6929545170613344
2.1796661919858473,17.069328609964277,-0.014683308765891374,0.8067901118716952,-0.7339668304911892
2.176878237769504,16.917705068230685,-0.014663577721934657,0.7892471695345388,-0.7754746019823372
2.174091897406056,16.769406728929273,-0.01466632084067439,0.7717879810066524,-0.8173819268777333
2.171303001153165,16.624417849164942,-0.014690481821333368,0.7544107533547295,-0.8595926699404763
2.1685075819576856,16.48272301801704,-0.014734983394241303,0.7371137850442442,-0.9020102265701732
2.1657018792911376,16.344307139113297,-0.014798728885210928,0.7198954665741097,-0.9445372765080504
2.162882342717544,16.209155413038328,-0.0148806034684085,0.70275428158348,-0.9870755286293036
2.160045635252809,16.07725331948369,-0.01497947510774988,0.6856888084653272,-1.0295254553122737
2.157188636575136,15.948586599039341,-0.015094195183544167,0.6686977225278181,-1.0717860147498879
2.154308446146928,15.82314123451778,-0.015223598797586365,0.6517797987517481,-1.1137543594279724
2.1514023863102762,15.700903431692314,-0.015366504746119962,0.6349339152005316,-1.1553255288360686
2.148468005420525,15.581859599319142,-0.015521715145996269,0.6181590571486498,-1.1963921242977087
2.145503081085641,15.465996328299525,-0.015688014694889108,0.6014543220052194,-1.2368439636072484
2.1425056235831828,15.35330036982247,-0.015864169541513668,0.5848189251216891,-1.2765677129379238
2.139473879531784,15.24375861231016,-0.016048925736370213,0.5682522065868579,-1.3154464932396919
2.136406335900216,15.13735805696718,-0.01624100722750039,0.5517536391287157,-1.353359458075027
2.133301724444498,15.034085791710122,-0.0164391133590071,0.5353228372613821,-1.3901813395464058
2.1301590266722514,14.933928963225775,-0.016641915822535575,0.5189595678370148,-1.42578195865225
2.126977479443786,14.836874746873455,-0.016848055003412854,0.5026637621873884,-1.4600256960721665
2.1237565813313752,14.74291031410916,-0.017056135653544906,0.48643553006833684,-1.4927709190339813
2.1204960998721205,14.652022797065648,-0.01726472181229752,0.47027517565285387,-1.5238693595653672
2.11719607986595,14.564199249872328,-0.017472330884229538,0.45418321585578536,-1.5531654390994152
2.1138568528889454,14.479426606241095,-0.017677426768450938,0.4381604013150868,-1.580495534113546
2.1104790482137106,14.397691632777992,-0.017878411918231668,0.42220774040176895,-1.6056871772758827
2.1070636053533436,14.318980877404954,-0.01807361819089454,0.40632652668284386,-1.6285581885141376
2.103611788474194,14.24328061218985,-0.01826129632647262,0.3905183703182413,-1.648915730600147
2.1001252029556805,14.170576769786038,-0.018439603868405353,0.374785233932391,-1.6665552843921765
2.096605814413758,14.100854872574146,-0.01860659130972463,0.35912947356120706,-1.6812595399928822
2.0930559705491607,14.03409995347942,-0.01876018621235525,0.34355388533066905,-1.6927972020497326
2.089478426233676,13.970296467309257,-0.018898175003268798,0.3280617585657648,-1.7009217106650905
2.085876372309231,13.909428191321265,-0.019018182096156883,0.3126569360446663,-1.7053698845062344
2.0822534686480605,13.851478113599342,-0.019117645916159276,0.297343882080848,-1.7058605006050966
2.0786138821115494,13.79642830769657,-0.019193791310274034,0.2821277590009821,-1.702092837321566
2.0749623301560516,13.744259791919653,-0.019243597694966273,0.267014512334982,-1.693745224929533
2.07130413097506,13.694952371614345,-0.019263762104946618,0.2520109645630052,-1.6804736750810498
2.0676452612522556,13.648484462918667,-0.01925065602983518,0.23712491644414715,-1.661910700127204
2.0639924228516073,13.60483289676569,-0.0192002745033075,0.22236525358717918,-1.637664491940482
2.060353120125011,13.56397270257153,-0.019108175250336173,0.20774205371976173,-1.6073187162366787
2.056735750034659,13.525876872238236,-0.018969404648105086,0.19326668663070445,-1.5704333050113954
2.053149708065282,13.490516107138706,-0.018778405555866275,0.17895189336433517,-1.5265468143330267
2.0496055141056617,13.457858554079294,-0.01852889928224081,0.16481182305051,-1.475181181563088
2.0461149643853522,13.427869541496847,-0.01821372935259572,0.15086199360684213,-1.415850096000829
2.042691318623253,13.400511335213643,-0.017824647090551773,0.13711912516372193,-1.3480727242400377
2.0393495365497594,13.375742945026719,-0.017352006314644505,0.12360077154076068,-1.2713952306744467
2.0361065861778873,13.353520030318457,-0.01678431338927168,0.11032464644095835,-1.1854233823387126
2.0329818597031375,13.333794975096627,-0.016107544239673463,0.09730751378883384,-1.0898703669680216
2.029997755058905,13.316517228217194,-0.015304083594356137,0.08456350599467019,-0.9846242949720221
2.0271805173141173,13.301634024223802,-0.014351050561303653,0.07210179919893915,-0.8698385186008253
2.024561493266413,13.28909159098216,-0.013217623625057233,0.059923813870956175,-0.7460424994525386
2.022179052658841,13.278836861639874,-0.011860698559910269,0.04802070552154523,-0.6142577017401044
2.02008161936669,13.270819446785833,-0.010217546620623304,0.036373135047320204,-0.47607848326057034
2.018332715894086,13.264993024898569,-0.008191963617316061,0.024957621660710902,-0.3336458316886382
2.0170204833137526,13.261313947726386,-0.005621010912509975,0.013769506467524026,-0.18942238918032078
2.016282252789952,13.25972984165924,-0.0021498367064444997,0.0029052942392824993,-0.04571334547179734
