x,y,v_x,v_y,omega
2.375,32.48,0.0,2.1025641025641026,-2.612244897959184
2.3745676332287364,32.04265469916742,-0.004117778773940236,2.06262923869853,-2.4868084424192785
2.373320520104723,31.613573289601195,-0.007759489073805031,2.0238603762179075,-2.3700425193652808
2.3713532678672835,31.192516887380076,-0.010976246520856044,1.9862005973165506,-2.2611502383736775
2.3687503735040814,30.779258163956378,-0.013813223604880662,1.949596768623439,-2.1594224573891916
2.365587391720463,30.37358058626884,-0.016310412429579084,1.9139992093530975,-2.0642267117558264
2.3619319540634907,29.975277722629833,-0.01850327954158601,1.8793613967327045,-1.9749977097122704
2.3578446601014793,29.58415260710496,-0.020423329620427897,1.8456397035041734,-1.891229148947785
2.353379858336797,29.200017156104558,-0.022098591947974495,1.8127931631663217,-1.8124666510323109
2.348586331850991,28.82269163174317,-0.02355404125017438,1.7807832593231043,-1.7383016448226751
2.3435079014464577,28.452004147226436,-0.02481196260252665,1.749573736074352,-1.668366057923967
2.3381839571776077,28.087790210119113,-0.025892268529376636,1.7191304268525314,-1.6023276982124677
2.3326499275923696,27.72989229985276,-0.026812775139559698,1.6894210994936734,-1.5398862262926034
2.3269376946798435,27.37815947626277,-0.02758944307497623,1.6604153156490913,-1.4807696353447979
2.321075961399859,27.0324470163141,-0.028236588162972774,1.6320843029096528,-1.4247311677418812
2.3150905777206305,26.692616076493785,-0.028767065924913227,1.604400838236217,-1.3715466085613746
2.309004830283579,26.35853337862396,-0.029192433475577508,1.5773391414764202,-1.3210119050939098
2.3028397001265257,26.030070917088842,-0.029523091829692413,1.55087477790563,-1.2729410689614802
2.296614092308858,25.707105685678066,-0.02976841119571529,1.5249845688636965,-1.2271643237694638
2.290345040779071,25.38951942243169,-0.029936841468921047,1.4996465096732112,-1.183526466531304
2.284058043926728,25.077199994233357,-0.029939319029586055,1.4748242350728207,-1.1394351351636802
2.2777757299196812,24.770039474208257,-0.029892242942285388,1.450514050880506,-1.0974525465749216
2.271507944352388,24.467932312134863,-0.029800952936696767,1.4266970164851391,-1.057452111252595
2.2652634663298774,24.170776840292042,-0.02967026632531149,1.4033550963036525,-1.0193162786028818
2.2590501126344087,23.878475089126546,-0.02950453077438822,1.3804711052725211,-0.9829357894710437
2.2528748314067033,23.590932613953527,-0.029307671394235617,1.358028658280033,-0.948208998726706
2.246743786465752,23.308058331897637,-0.029083232805299633,1.336012123204621,-0.9150412605835606
2.2406624332619156,23.029764368349127,-0.028834416755048786,1.314406577257359,-0.8833443701689803
2.2346355873446844,22.75596591226974,-0.028564115790012223,1.2931977663558705,-0.8530360555982602
2.228667486127004,22.486581079737675,-0.028274943425987166,1.2723720672828502,-0.8240395154553433
2.2227618446406368,22.221530785170394,-0.027969261206084742,1.2519164524055337,-0.7962829971493879
2.2169219059000675,21.960738619708735,-0.027649202989813885,1.2318184567531216,-0.7696994121150328
2.211150486424671,21.70413073628655,-0.02731669677586433,1.2120661472676608,-0.7442259842627909
2.205450017408993,21.451635740947097,-0.026973484325833515,1.1926480940604738,-0.7198039284724851
2.1998225819781387,21.20318459000103,-0.02662113882515769,1.1735533435211178,-0.696378156263719
2.1942699489185093,20.95871049265169,-0.026261080790362615,1.1547713931392505,-0.6738970060788406
2.188793603232688,20.718148818741327,-0.025894592407936963,1.1362921679118445,-0.6523119958806981
2.1833947738305866,20.48143701129758,-0.025522830469215135,1.1181059982190795,-0.6315775960040024
2.178074458636357,20.24851450358306,-0.025146838047260613,1.1002035990620718,-0.6116510204090465
2.1728334473616124,20.019322640372266,-0.024767555045542435,1.0825760505645,-0.5924920346731156
2.1676723421697695,19.79380460319993,-0.024385827733916215,1.0652147796482405,-0.5740627792209756
2.1625915764333525,19.57190533934282,-0.02400241737481599,1.0481115428004404,-0.5563276064437892
2.157591431765697,19.353571494313883,-0.02361800803142422,1.0312584098560853,-0.5392529304878251
2.1526720534902255,19.138751347662748,-0.02323321363973349,1.0146477487261663,-0.5228070886122477
2.1478334646941963,18.927394751890763,-0.022848584417686665,0.9982722110070318,-0.5069602131207402
2.14307815017831,18.719592816186008,-0.02244012525742581,0.9807938433239485,-0.5181716886311167
2.1384063724842317,18.51544884247604,-0.022052995638555246,0.9634344777233859,-0.531459948040004
2.1338136126857923,18.314938193533603,-0.021687573870393127,0.9461907502998185,-0.5467083138148605
2.129295285616965,18.118036924564798,-0.02134411249938984,0.9290594303554625,-0.5638033555456159
2.1248467652069385,17.924721755827775,-0.021022748548480498,0.9120374147590609,-0.5826346412768323
2.120463407747759,17.734970046390497,-0.020723512967512646,0.8951217227388057,-0.6030944969357762
2.1161405732543463,17.54875976893844,-0.02044633935070404,0.8783094910903467,-0.6250777729144422
2.1118736450654088,17.366069485546703,-0.020191071972512842,0.8615979697833366,-0.6484816168905942
2.1076580478234455,17.186878324334447,-0.019957473189042892,0.8449845179524058,-0.6732052519937995
2.1034892639625427,17.011165956922056,-0.01974523024812598,0.8284666002608572,-0.6991497594372973
2.0993628488240033,16.83891257661375,-0.01955396154748936,0.8120417836277589,-0.7262178647453672
2.0952744445119422,16.670098877230124,-0.019383222376900565,0.7957077343115133,-0.754313726708603
2.091219792593798,16.504706032516147,-0.01923251017685471,0.7794622153454133,-0.7833427281960171
2.0871947457441915,16.342715676050943,-0.019101269343205177,0.7633030843232067,-0.8132112679430485
2.083195278424723,16.1841098815858,-0.018988895604110833,0.7472282915352918,-0.8438265524180498
2.0792174966870522,16.02887114373641,-0.018894739992756468,0.7312358784589053,-0.8750963868463981
2.0752576471819832,15.876982358954326,-0.01881811243647285,0.7153239766085734,-0.9069289644406144
2.0713121254532414,15.728426806701023,-0.018758284980113487,0.6994908067562207,-0.9392326528463355
2.0673774835911543,15.58318813074558,-0.018714494658811524,0.6837346785337111,-0.9719157767671368
2.063450437318565,15.44125032050394,-0.018685946032515575,0.6680539904342943,-1.0048863956754432
2.059527872578995,15.302597692333823,-0.018671813391961008,0.6524472302334986,-1.0380520754514126
2.0556068516953303,15.167214870694579,-0.01867124264294384,0.636912975854524,-1.0713196527159776
2.0516846191661666,15.035086769075491,-0.018683352872898015,0.6214498967082203,-1.1045949905373758
2.047758607166428,14.906198570589073,-0.018707237600800123,0.6060567555433786,-1.1377827240916107
2.0438264408189726,14.780535708117828,-0.01874196570830335,0.5907324108494185,-1.1707859947454655
2.039885943304698,14.658083843893262,-0.01878658204669526,0.5754758198607365,-1.203506170905055
2.035935140880167,14.53882884837477,-0.018840107710739525,0.5602860422201293,-1.2358425538325972
2.031972267874041,14.42275677828302,-0.018901539966652052,0.5451622443679693,-1.2676920664784088
2.027995771736723,14.309853853627274,-0.01896985181732419,0.53010370473436,-1.2989489232036324
2.0240043182216496,14.200106433548694,-0.019043991183380557,0.5151098198235343,-1.3295042780818378
2.0199967967816583,14.093500990781404,-0.01912287967367903,0.500180111293495,-1.3592458492650044
2.01597232627002,13.990024084509884,-0.019205410913349513,0.48531423414956787,-1.388057516683113
2.0119302610430276,13.889662331374396,-0.019290448391338505,0.47051198618841306,-1.4158188901197049
2.007870197569767,13.792402374345428,-0.019376822782577303,0.4557733188493777,-1.442404844473569
2.003791981664915,13.698230849152662,-0.019463328692204154,0.4410983496531522,-1.4676850187875925
1.9996957164723697,13.607134347913536,-0.01954872076060452,0.4264873764337603,-1.4915232754126637
1.9955817713413933,13.519099379560078,-0.019631709058218864,0.4119408935991656,-1.5137771154968271
1.9914507917530515,13.434112326609895,-0.019710953687894186,0.3974596106882965,-1.534297046876383
1.987303710473348,13.352159397767188,-0.01978505849975867,0.3830444735279638,-1.5529259004383988
1.9831417601309458,13.273226575771943,-0.019852563808832515,0.3686966883315196,-1.5694980911842313
1.9789664874422375,13.197299559839408,-0.019911937988388816,0.3544177491211931,-1.583838820639424
1.974779769335317,13.124363701947605,-0.019961567791805503,0.3402094688959859,-1.5957632180538888
1.9705838312578816,13.054403936138147,-0.019999747231391134,0.3260740150036258,-1.6050754192004553
1.966381267993211,12.987404699896441,-0.02002466481309161,0.31201394920311176,-1.6115675837724837
1.9621750673544809,12.923349846573998,-0.020034388889099503,0.2980322729154045,-1.6150188557800544
1.957968637182594,12.862222547713117,-0.02002685084315461,0.28413247814060755,-1.6151942764926883
1.9537658361391543,12.804005184041102,-0.01999982576103265,0.27031860445001926,-1.6118436671569383
1.9495710088680793,12.748679223831381,-0.019950910153966883,0.256595302309245,-1.6047005100568412
1.9453890262026166,12.696225087304757,-0.01987749618377358,0.24296790270620375,-1.5934808731090946
1.9412253312283485,12.646621995800448,-0.019776741666399852,0.22944249257293348,-1.5778824474343693
1.937085992191499,12.59984780463742,-0.019645534875023633,0.21602599469400136,-1.5575838025885127
1.932977763488224,12.55587881899434,-0.01948045277521614,0.20272624952579454,-1.5322440151933985
1.9289081563209924,12.51468959288491,-0.019277710722226706,0.18955209437353476,-1.5015029004216762
1.9248855211214657,12.47625271257932,-0.019033100701837138,0.1765134323463477,-1.4649821817381254
1.920919144610908,12.440538567892133,-0.01874191368442605,0.16362127896018294,-1.4222880855358648
1.9170193655547627,12.407515118008188,-0.01839883923124257,0.15088776755359384,-1.3730160608139763
1.9131977151214803,12.37714766348347,-0.017997831561923177,0.13832608506278615,-1.316758620010472
1.9094670906905566,12.349398643425545,-0.017531924923064997,0.1259502964412482,-1.2531176948420586
1.9058419766409609,12.324227487414674,-0.016992970787369634,0.11377499890037437,-1.181723406695904
1.9023387331634962,12.30159056611642,-0.016371252807533192,0.10181472774964881,-1.1022617273247985
1.8989759861798772,12.281441302598484,-0.015654908941219826,0.09008302004022399,-1.0145140033607718
1.895775170671266,12.263730525580801,-0.014829048283647308,0.07859104679484631,-0.9184113414031382
1.89276131026599,12.248407158136313,-0.013874384147553346,0.06734578600980265,-0.8141055241573538
1.8899641646966796,12.235419321271387,-0.01276509746492649,0.05634789841808366,-0.7020538165145863
1.8874199575831812,12.224715851852544,-0.011465446473153606,0.045589905570907,-0.5831053392277672
1.8851740479190768,12.216248018798545,-0.00992416937546023,0.035056123514785334,-0.4585598416074895
1.883285264584051,12.209970752976709,-0.008064243339071778,0.02472736050270513,-0.33014864466961436
1.8818337633967608,12.205841690645123,-0.005759577492262015,0.014597042655260562,-0.1998753769531762
1.8809395561993976,12.203813014179953,-0.00275668153024617,0.004723685584435616,-0.06967449811670101
