x,y,v_x,v_y,omega
2.375,32.48,0.0,3.846153846153846,-2.8571428571428577
2.3743134100331167,31.79654151823665,-0.007628777409816937,3.747829284550011,-2.6540127019918582
2.372366544467485,31.13038121116403,-0.014003062208312652,3.6539519051457825,-2.472675329961815
2.3693673414181977,30.48074667175215,-0.01932141611709999,3.5642096438750692,-2.310124865765461
2.3654910531683444,29.84691903673133,-0.023748453325712293,3.4783196341340696,-2.1638424214746697
2.360885785915163,29.228228042725668,-0.027421182820749464,3.396024743706616,-2.0317069454529184
2.3556770139892484,28.624047660147333,-0.030454060800523958,3.3170906182748903,-1.9119241279372658
2.3499712751829143,28.03379222174261,-0.03294303704763291,3.241303141777622,-1.802969371207492
2.3438592087770624,27.456912977135254,-0.03496881190627693,3.168466242748543,-1.7035417866939697
2.337418063374776,26.89289501618391,-0.036599470341348854,3.098399990044149,-1.612526890728936
2.3307137750800835,26.34125451317187,-0.037892621821899994,3.0309389323118463,-1.528966202164493
2.323802695959439,25.801536251300405,-0.03889714618526405,2.9659306440377664,-1.4520323463696172
2.316733036657447,25.273311393046548,-0.03965462383686642,2.903234447671779,-1.381008575233014
2.3095460744402287,24.75617546696175,-0.0402005119100057,2.8427202866037544,-1.3152718463309803
2.302277168009785,24.249746545648666,-0.04056511509492724,2.78426772798606,-1.2542787842827798
2.2949566125672756,23.75366359312765,-0.04077438982183982,2.7277650778029954,-1.1975539866642526
2.287610362343861,23.2675849627232,-0.04085061266054659,2.6731085933575662,-1.1446802454156253
2.2802606428144965,22.79118702906569,-0.040812937665723165,2.620201780614797,-1.0952903397131029
2.272926470793787,22.32416293989631,-0.04067786256438189,2.568954765711616,-1.0490601232149126
2.2656240973758184,21.866221475147672,-0.040459619857494473,2.519283731495472,-1.0057026815463659
2.258367386060542,21.417086002300692,-0.0401705058678003,2.4711104112487687,-0.9649633779723485
2.2511681362818816,20.976493518332507,-0.03982115833953538,2.4243616328421624,-0.9266156387996582
2.2440363608186784,20.544193769703977,-0.039420791251611645,2.3789689074748455,-0.8904573569830536
2.23698052415126,20.11994844281714,-0.038977393941924676,2.334868057934452,-0.8563078140878054
2.230007747662472,19.703530418225967,-0.038497900377941055,2.291998881967462,-0.8240050382813172
2.223123986623731,19.294723082626767,-0.037988333385849546,2.250304846912563,-0.793403530238887
2.2163341831152916,18.89331969330391,-0.03745392781903444,2.2097328122302753,-0.7643723004205867
2.20964239837442,18.499122790275415,-0.03689923596842736,2.1702327769752503,-0.7367931706315691
2.2030519275206464,18.11194365188241,-0.03632821796238712,2.131757649613681,-0.7105593005304794
2.1965653991536813,17.731601790006536,-0.03574431944833683,2.0942630378960256,-0.6855739061278423
2.1901848619407156,17.35792448148731,-0.03515053847350731,2.0577070567620432,-0.6617491425790838
2.18391185999256,16.990746332654894,-0.034549483172665686,2.022050152487029,-0.6390051279334615
2.177747498561713,16.62990887419784,-0.033943421614524696,1.9872549414802216,-0.6172690881175229
2.171692501371276,16.275260183855565,-0.03333432494588473,1.9532860623228712,-0.5964746064439969
2.1657472606945425,15.926654534665587,-0.032723904795596205,1.9201100397880082,-0.5765609634525799
2.1599118811451885,15.583952066709905,-0.032113645752785455,1.8876951597195788,-0.557472554995591
2.1541862180025104,15.247018480496035,-0.031504833610302437,1.8560113537678573,-0.5391583782501747
2.148569910781109,14.915724750279445,-0.03089857996082372,1.8250300930831376,-0.5215715768276638
2.1430624126564903,14.589946855787339,-0.03029584364605289,1.794724290162466,-0.504669037407298
2.1376630162745878,14.269565530941357,-0.029697449486197403,1.7650682081262425,-0.48841103138459124
2.132370876401874,13.954466028300313,-0.02910410465506572,1.7360373767742223,-0.4727608959262126
2.1271850298116735,13.644537898055482,-0.028516413013827523,1.7076085148349982,-0.4576847495896003
2.1221044127499353,13.339674780511093,-0.02793488767215224,1.6797594578804302,-0.4431512383184449
2.11712787627874,13.039774211073372,-0.02735996200779603,1.6524690914276,-0.42913130818266293
2.112254199757108,12.744737436853207,-0.02679199934367533,1.62571728879646,-0.4155980017085279
2.1074821026853026,12.454469244061638,-0.026231301454157297,1.5994848533320796,-0.40252627505368727
2.102810255110021,12.168877795444438,-0.025678116048974763,1.5737534646368256,-0.38989283363329064
2.0982372867629233,11.88787447706298,-0.02513264336321809,1.548505628490474,-0.3776759841060852
2.093761795083406,11.611373753783937,-0.024595041964752817,1.5237246301655383,-0.36585550089040986
2.089382352257763,11.339293032890609,-0.02406543387572768,1.4993944908714245,-0.3544125056056745
2.0851004466795873,11.071552857559183,-0.02351129477066557,1.4754963461444301,-0.34248398803438046
2.0809171456143796,10.808076444048098,-0.02296982817608861,1.4520193595343154,-0.331058442415957
2.0768301864853913,10.548789245526255,-0.022440828812669053,1.4289495129305971,-0.3201090353106951
2.0728373449066426,10.293619185362566,-0.021924077617870918,1.4062733777770706,-0.30961063491210283
2.0689364369168706,10.042496553819113,-0.021419344490711235,1.3839780838168594,-0.29953968588119934
2.065125320751608,9.795353910193505,-0.020926390678872083,1.36205128980101,-0.28987409461958924
2.061401898213817,9.552125990069825,-0.020444970852138252,1.340481156017653,-0.28059312400990294
2.0577641156960667,9.312749617362286,-0.019974834900645194,1.3192563185105504,-0.27167729675177527
2.0542099649007604,9.077163620858347,-0.019515729491644096,1.2983658648665584,-0.2631083065099869
2.050737483299223,8.845308754988842,-0.01906739941432831,1.277799311461277,-0.2548689361700618
2.047344754365456,8.617127624571836,-0.018629588738635374,1.257546582061007,-0.24694298256666586
2.04402990761601,8.392564613294496,-0.01820204181076995,1.2375979876872059,-0.2393151871126085
2.0407911184835523,8.171565815713521,-0.017784504105424183,1.2179442076569826,-0.23197117181200275
2.0376266080483614,7.954078972569604,-0.017376722952250394,1.1985762717198871,-0.2248973801909663
2.034534642648977,7.740053409225251,-0.016978448152021302,1.1794855432173674,-0.21808102272382754
2.03151353339065,7.529439977047968,-0.016589432496055934,1.1606637031968807,-0.21151002637273697
2.028561635567928,7.322190997572651,-0.016209432200861,1.1421027354177604,-0.2051729878943956
2.025677348015684,7.118260209287897,-0.015838207268508816,1.1237949121906412,-0.19905913059976144
2.022859112401137,6.917602716901051,-0.015475521782017939,1.105732780996544,-0.19315826428148802
2.0201054124678044,6.7201749429461515,-0.01512114414390023,1.0879091518356723,-0.18746074804984078
2.017414773240997,6.525934581607579,-0.014774847265068182,1.0703170852595927,-0.1819574558412443
2.014785760203201,6.334840554640273,-0.014436408710443226,1.0529498810438043,-0.1766397443847157
2.012216978446644,6.14685296927486,-0.014105610806854293,1.0358010674607647,-0.1714994234304777
2.0097070718093937,5.961933078002929,-0.013782240718154008,1.0188643911162591,-0.16652872806224425
2.0072547220004893,5.780043240144153,-0.013466090491896338,1.0021338073145938,-0.16172029293021906
2.004858647718892,5.601146885102995,-0.013156957081404862,0.9856034709204896,-0.15706712825591768
2.002520252868814,5.425429298772308,-0.012825207919462097,0.9668141549760403,-0.20106940446480165
2.0002378763810436,5.253084891712366,-0.012534530833545185,0.9481237012455423,-0.24608576560989276
1.9980042500720372,5.084096086283569,-0.012283539266522455,0.9295296924077462,-0.29202111771377914
1.9958123563354184,4.918445731705027,-0.012070835584798115,0.9110298029093717,-0.3387814413327012
1.9936554299191782,4.7561170877198435,-0.011895013484537415,0.892621796925997,-0.3862735838738044
1.9915269592962535,4.597093808598174,-0.011754660103514149,0.8743035266481086,-0.43440505147187886
1.9894206876801035,4.4413599274191995,-0.011648357853709145,0.8560729308960741,-0.48308379948101027
1.9873306137344062,4.288899840572203,-0.01157468598737011,0.8379280340705691,-0.5322180205997592
1.9852509920239276,4.139698292415531,-0.011532221906837592,0.8198669454479937,-0.5817159296029886
1.98317633325197,3.9937403600301806,-0.011519542226023596,0.8018878588336654,-0.6314855435985524
1.9811014043286204,3.851011438002125,-0.011535223588971874,0.7839890525891668,-0.6814344566619046
1.9790212283132567,3.7114972231642227,-0.011577843248403495,0.7661688900541813,-0.7314696076253213
1.9769310842744927,3.575183699224464,-0.01164597940452726,0.7484258203875775,-0.7814970397097516
1.9748265071109379,3.44205712120241,-0.01173821130163812,0.7307583798574572,-0.8314216505850791
1.9727032873768513,3.3121039995898442,-0.011853119077101147,0.7131651936154773,-0.8811469313273825
1.9705574711580358,3.185311084144711,-0.01198928335418288,0.6956449779970997,-0.9305746926080741
1.9683853600451473,3.061665347219275,-0.012145284566800562,0.6781965433966396,-0.9796047762978568
1.9661835112540849,2.9411539665138946,-0.012319702000561853,0.6608187977742382,-1.0281347504963994
1.9639487379462977,2.823764307136692,-0.012511112530405964,0.6435107508613431,-1.0760595858044997
1.9616781098058012,2.7094839028363786,-0.012718089030666974,0.6262715191421526,-1.123271310437192
1.959368953934486,2.5983004362604945,-0.012939198428388289,0.609100331701012,-1.1696586415316685
1.9570188561330686,2.4902017180737843,-0.01317299936514066,0.5919965370402075,-1.21510658973099
1.9546256626418352,2.3851756647511273,-0.013418039426340168,0.5749596109893245,-1.2594960338216359
1.952187482423363,2.283210274835888,-0.013672851890019017,0.5579891658466727,-1.3027032618687264
1.9497026900787469,2.184293603427278,-0.013935951939047078,0.541084960915675,-1.3445994749269774
1.9471699294997713,2.0884137346286167,-0.014205832271793433,0.5242469146250236,-1.3850502490092624
1.9445881183720708,1.9955587516517426,-0.014480958035990268,0.5074751184513723,-1.423914950571658
1.9419564536589284,1.9057167042303043,-0.01475976099892521,0.4907698528979261,-1.4610461003311448
1.9392744182121815,1.818875572945501,-0.015040632853818353,0.47413160582210756,-1.4962886797823658
1.9365417886761014,1.7350232300109099,-0.015321917547070976,0.45756109345112916,-1.529479374343658
1.9337586448724335,1.654147395997441,-0.015601902493683751,0.4410592844763007,-1.5604457466727133
1.9309253808804694,1.5762355919037674,-0.015878808528139075,0.4246274276756148,-1.5890053333989964
1.9280427180555935,1.5012750858908,-0.016150778414927475,0.40826708357958763,-1.6149646583998214
1.9251117202638077,1.4292528338996178,-0.016415863716024676,0.39198016076688297,-1.638118155914159
1.9221338116490645,1.3601554132598963,-0.01667200978112191,0.3757689574522405,-1.6582469974132599
1.9191107972957484,1.293968948269633,-0.016917038589059307,0.35963620910623467,-1.6751178174826806
1.9160448872015778,1.2306790265874419,-0.017148629123946612,0.3435851429181241,-1.6884813363901263
1.9129387240381415,1.1702706051276301,-0.017364294914235662,0.32761953996865684,-1.6980708810702094
1.9097954152494485,1.1127279039903506,-0.017561358293462562,0.31174380600109636,-1.7036008127677003
1.9066185701264404,1.0580342868029717,-0.017736920851071192,0.295963051636464,-1.7047648797538637
1.9034123426020175,1.0061721257103642,-0.01788782942029463,0.2802831827258233,-1.7012345291567088
1.9001814806439434,0.957122649157629,-0.01801063678052916,0.26471100119346014,-1.6926572356810237
1.8969313832931713,0.910865770602804,-0.018101556005826625,0.24925431608238469,-1.6786549407784244
1.8936681666206785,0.8673798964507924,-0.01815640702187183,0.2339220633844053,-1.658822749504715
1.890398740186185,0.8266417119257561,-0.018170553361390965,0.21872443133823175,-1.6327281125131468
1.8871308960259463,0.7886259444751786,-0.018138826196816137,0.2036729847793084,-1.5999108400768836
1.8838734128559462,0.7533051058990203,-0.01805543124762804,0.18878077717799233,-1.5598844721466443
1.8806361791896453,0.720649217139048,-0.017913831711272785,0.1740624312661285,-1.5121397893913102
1.8774303406712862,0.6906255241666486,-0.017706596270495797,0.15953415731607268,-1.456151630541937
1.8742684795178803,0.6631982205599911,-0.017425194322901603,0.14521366053568915,-1.391390725752541
1.8711648382291513,0.6383282033552078,-0.017059708885198786,0.1311198639618967,-1.3173430099851196
1.8681356068243935,0.6159729049975482,-0.016598417834330918,0.11727234001210068,-1.2335398644505045
1.865199304745546,0.5960862668621374,-0.016027160819532114,0.1036903059369091,-1.1396038667584332
1.8623773084503656,0.5786189483613278,-0.015328353571360975,0.09039101073876486,-1.035315550626246
1.8596946088766395,0.5635188944680394,-0.014479419470039803,0.07738736585333346,-0.9207063668667139
1.8571809381022466,0.5507323952853937,-0.0134502558009939,0.06468484728718316,-0.7961791762756685
1.8548724976339315,0.5402057194867744,-0.012199082735839719,0.05227821714190425,-0.662645882167034
1.8528146902657896,0.531887198354422,-0.010665443576847962,0.04014979543978531,-0.5216466849690775
1.85106663433421,0.5257291166809672,-0.00875740010737099,0.02827333426525598,-0.37537613125543445
1.8497094041265298,0.5216875857441181,-0.006322935533519404,0.01663256503305159,-0.22650510920202002
1.8488653849798222,0.519714953325618,-0.0030550549854553785,0.005285572950275702,-0.07769892775682277
