x,y,v_x,v_y,omega
2.375,32.48,0.0,3.3846153846153846,-7.755102040816326
2.3734267144121866,31.87792282838525,-0.017480950975703735,3.305130966659597,-7.263219729803769
2.3689362180601843,31.28985428975154,-0.03241345293543367,3.228963907048286,-6.818108409313916
2.3619550452928864,30.71521813221576,-0.04515513336787722,3.1558822877936805,-6.413972904781704
2.3528503062644512,30.1534777110545,-0.05600863361473406,3.0856779473314666,-6.045874402497741
2.34193873326319,29.60413201626679,-0.06523106639927931,3.018163105865333,-5.709584631679887
2.329494189305448,29.066712252001146,-0.0730416442422961,2.953167608197349,-5.401468195506227
2.3157539323914844,28.540778868871243,-0.07962787702396734,2.8905366488015845,-5.118386951272757
2.3009238658953777,28.025918971505398,-0.08515063959944326,2.8301288774855715,-4.857621811556022
2.2851829577735256,27.521744039773676,-0.08974833953224476,2.771814808422454,-4.616808418051317
2.268686974569872,27.027887914417935,-0.09354036273057477,2.7154754733079924,-4.393883941701508
2.251571647711402,26.54400500727307,-0.0966299356968671,2.6610012727460535,-4.187042864990401
2.2339553672788317,26.069768703627904,-0.09910651355391784,2.608290989978014,-3.994700059199534
2.215941480820196,25.604869930051432,-0.10104778043092107,2.5572509386494517,-3.815459819339643
2.1976202607581015,25.149015865584516,-0.10252133137013193,2.5077942220940503,-3.6480897897355407
2.1790705927129634,24.70192877784966,-0.10358609135362173,2.459840086071046,-3.4914989236452083
2.1603614280142787,24.263344968571513,-0.10429351640954256,2.4133133503528175,-3.3447187852851266
2.141553036336059,23.83301381538569,-0.10468861334845447,2.3681439072674504,-3.206887632886769
2.1226980884155484,23.410696898762282,-0.10481080799054948,2.324266277437076,-3.0772368248794923
2.103842593921282,22.99616720447445,-0.10469468639018674,2.2816192146499445,-2.9550791739665287
2.0850267155132545,22.589208393371337,-0.10437062925456513,2.240145353162437,-2.839798940271098
2.0662854768163252,22.189614131322756,-0.10386535626687333,2.199790891821771,-2.730843208346804
2.047649379275184,21.797187473132865,-0.10320239419025327,2.1605053102881304,-2.627714436339777
2.029144940569701,21.411740295004535,-0.10240248031511438,2.122241113360016,-2.5299640010280724
2.010795165358946,21.033092770801925,-0.10148391091549513,2.084953600002295,-2.437186591459595
1.9926199575228256,20.661072887926526,-0.10046284281917404,2.0486006541688027,-2.349015327728548
1.9746364817274704,20.29551599910848,-0.09935355490699549,2.0131425549205906,-2.2651175010699136
1.9568594810098778,19.93626440683416,-0.09816867528847589,1.9785418036829872,-2.1851908477028816
1.9393015561227873,19.583166977493207,-0.09691937901253254,1.9447629667720165,-2.1089602823476246
1.9219734115728238,19.23607878264302,-0.09561556043150636,1.9117725315633887,-2.036175028579783
1.9048840725994363,18.894860765062834,-0.09426598371724301,1.879538774883139,-1.966606092578848
1.8880410767591123,18.55937942750965,-0.09287841450858023,1.8480316423744494,-1.900044034697516
1.8714506432823805,18.229506542298868,-0.0914597352328812,1.8172226377453504,-1.8362969998941863
1.8551178229465664,17.90511888001799,-0.09001604627616634,1.7870847209310543,-1.7751889736456574
1.8390466308438254,17.586097955845755,-0.08855275486540043,1.757592214316017,-1.7165582346677568
1.8232401641122578,17.272329792094162,-0.08707465326312845,1.7287207162572304,-1.6602559797622025
1.8077007064299744,16.96370469571995,-0.0855859876511312,1.7004470212340288,-1.6061450994968474
1.7924298208413034,16.660117049666844,-0.08409051888965763,1.6727490460227232,-1.5540990863111652
1.777428432285326,16.361465117002556,-0.08259157617675866,1.6456057613582598,-1.50400105910006
1.7626969010249691,16.067650856906212,-0.0810921044938729,1.6189971286011176,-1.4557428904336565
1.7482350880260331,15.778579751644187,-0.07959470660541552,1.5929040409769537,-1.4092244243742482
1.7340424132064693,15.494160643746266,-0.07810168027862624,1.5673082689999622,-1.364352774400337
1.720117907364144,15.214305582660629,-0.0766150513027677,1.5421924097293553,-1.3210416922804047
1.7064602584938346,14.938929680226167,-0.07513660281177842,1.5175398395424395,-1.2792109998881245
1.693067853119287,14.667950974354923,-0.07366790134986219,1.4933346701380266,-1.2387860769433594
1.6799468457400435,14.401293752967902,-0.07212106953062333,1.469523345273304,-1.1971341560303996
1.6671018916568285,14.138884784487452,-0.0706006425050983,1.4461318600650304,-1.1572387068727654
1.654528214082073,13.880649762658273,-0.0691068861032968,1.4231461602591708,-1.1190059398018928
1.642220998257201,13.626516857212192,-0.06763995639527856,1.4005527891417127,-1.0823480206465133
1.6301754099614314,13.376416609211432,-0.06619991355771626,1.378338855311158,-1.0471826318651587
1.6183866116658008,13.130281832005991,-0.06478673417151452,1.3564920025270748,-1.0134325703656824
1.606849776598756,12.888047517445514,-0.06340032212898238,1.3350003814782192,-0.981025378587585
1.595560100959432,12.64965074701302,-0.06204051830795194,1.3138526233272645,-0.949893005775317
1.5845128144880585,12.415030607572444,-0.060707109151754285,1.2930378149013761,-0.9199714966835204
1.5737031895794025,12.184128111444519,-0.05939983427775863,1.272545475408891,-0.8912007052332006
1.5631265491043378,11.956886120546208,-0.0581183932229594,1.2523655345723304,-0.8635240308852594
1.5527782730862374,11.733249274347767,-0.056862451422600595,1.232488312077016,-0.8368881757183182
1.542653804362588,11.51316392141899,-0.05563164550683808,1.2129044982427453,-0.8112429203945003
1.5327486533478036,11.296578054352135,-0.05442558799076694,1.1936051358334272,-0.7865409173725822
1.523058402000419,11.083441247863757,-0.05324387142461744,1.1745816029263485,-0.7627374998851071
1.5135787070864968,10.873704599891184,-0.05208607206340536,1.1558255967688933,-0.7397905053367897
1.5043053028210087,10.667320675511931,-0.0509517531086868,1.137329118556159,-0.717660111907706
1.4952340029599984,10.464243453525754,-0.049840467569204225,1.1190844590680271,-0.6963086872579711
1.4863607024083878,10.264428275549829,-0.04875176078202662,1.1010841851089284,-0.675700648332329
1.4776813784011975,10.067831797487223,-0.04768517263119827,1.0833211266978138,-0.6558023313545434
1.4691920913096732,9.87441194323804,-0.04664023949684743,1.0657883649597586,-0.6365818711838357
1.4608889851181877,9.684127860530985,-0.045616495964104394,1.0484792206742095,-0.618009089279828
1.4527682876127996,9.49693987876087,-0.044613476317983694,1.0313872434381723,-0.6000553895893965
1.4448263103179018,9.312809468724925,-0.04363071584754926,1.0145062014056523,-0.5826936617292985
1.4370594482134078,9.131699204157346,-0.04266775198016224,0.9978300715674313,-0.5658981908930726
1.4294726459442526,8.953795811609787,-0.04163005101044962,0.9788742900721044,-0.5991898341992044
1.4220676470883196,8.779294951207923,-0.040647714055471386,0.9600241588375104,-0.6337934422390963
1.414834655527562,8.60817784414817,-0.039718858841838615,0.9412770307153001,-0.6696007787423751
1.407764213974374,8.440426178468048,-0.03884160286024703,0.9226303657305018,-0.7065052962830546
1.4008472038136488,8.276022090008038,-0.03801406559225729,0.9040817282696091,-0.7444018962884473
1.3940748445707505,8.114948143844849,-0.037234370439944514,0.885628784654719,-0.783186691155147
1.3874386930572755,7.957187316126657,-0.03650064637644497,0.8672693011029688,-0.8227567674225
1.3809306422434235,7.802722976240769,-0.035811029333018926,0.8490011420735423,-0.8630099489375868
1.3745429199032215,7.651538869243456,-0.03516366333589405,0.8308222690077023,-0.9038445589208755
1.3682680870766462,7.503619098480399,-0.0345567014038318,0.8127307394707032,-0.9451591798079775
1.362099036390947,7.358948108324309,-0.033988306215046574,0.7947247067080814,-0.9868524096998494
1.3560289902821125,7.217510666953633,-0.03345665054978183,0.7768024196327858,-1.0288226142007701
1.3500514991565087,7.079291849092925,-0.03295991751248212,0.7589622232639468,-1.0709676723598025
1.3441604395322289,6.944277018631311,-0.03249630053507094,0.7412025596428634,-1.1131847153564876
1.3383500121996434,6.812451811030314,-0.032064003160321534,0.7235219692571022,-1.1553698564843642
1.3326147404410649,6.683802115426317,-0.031661238601661666,0.7059190930095295,-1.1974179108856744
1.3269494683503498,6.558314056325642,-0.03128622907295052,0.6883926747757584,-1.2392221033763289
1.321349359294695,6.435973974781735,-0.030937204878769844,0.670941564600996,-1.2806737625708948
1.315809894562877,6.316768408934028,-0.030612403252541807,0.6535647225957674,-1.3216619993720757
1.3103268722467831,6.2006840737764435,-0.030310066926278387,0.6362612235996251,-1.36207336772699
1.3048964064063442,6.087707840010115,-0.030028442411931453,0.6190302626929092,-1.401791505372861
1.299514926571962,5.977826711819333,-0.02976577797009296,0.6018711616491019,-1.4406967520971328
1.2941791776433123,5.871027803391804,-0.02952032123712779,0.5847833764345529,-1.4786657428217416
1.2888862202490734,5.767298313983623,-0.029290316476636016,0.5677665058785839,-1.5155709725893065
1.2836334316387943,5.666625501305557,-0.029074001415354628,0.5508203016554981,-1.551280330282705
1.278418507185871,5.5689966529798625,-0.028869603617126385,0.5339446797411048,-1.5856565976530135
1.2732394625896148,5.474399055785433,-0.028675336341275545,0.5171397335303409,-1.6185569099710955
1.2680946368747845,5.382819962373027,-0.028489393823505915,0.5004057488297149,-1.6498321743660793
1.2629826962989381,5.294246555091153,-0.028309945908120193,0.4837432209688889,-1.6793264416862326
1.257902639291729,5.20866590651606,-0.02813513194975876,0.4671528743099317,-1.7068762275390545
1.252853802566085,5.126064936225809,-0.027963053890730567,0.4506356844706506,-1.7323097780742827
1.247835868559375,5.046430363297677,-0.027791768406048672,0.4341929036197148,-1.7554462761190355
1.2428488743835437,4.969748653939821,-0.027619277992076217,0.41782608924534204,-1.776094983535441
1.2378932224872463,4.896005963591712,-0.0274435208556735,0.4015371368447621,-1.7940543162587057
1.2329696932608047,4.825188072743341,-0.027262359438120717,0.3853283170260077,-1.8091108495471313
1.228079459847108,4.757280315631263,-0.027073567380730933,0.36920231755261973,-1.8210382527641047
1.223224105459368,4.692267500871541,-0.026874814705269978,0.3531622908887396,-1.8295961558444096
1.218405643551338,4.63013382298902,-0.0266636509395083,0.3372119078059356,-1.8345289539456
1.2136265412391556,4.570862763704557,-0.026437485862517273,0.32135541757698327,-1.8355645633284918
1.2088897464392674,4.514436981756472,-0.02619356746957277,0.3055977151795067,-1.832413151225654
1.2041987192682262,4.460838189975174,-0.025928956653106777,0.2899444157238167,-1.8247658767491117
1.199557468354061,4.410047018325098,-0.02564049794872882,0.2744019359437083,-1.8122937007829092
1.1949705928455328,4.362042861714226,-0.02532478547936436,0.258977581954887,-1.7946463532156671
1.1904433310908125,4.316803711607211,-0.024978122906415948,0.24367964145640905,-1.7714515899731096
1.1859816172162048,4.27430597095298,-0.02459647570033673,0.22851747692394248,-1.7423149360776293
1.1815921472089062,4.234524252785562,-0.02417541326964688,0.2135016138251633,-1.7068202028243444
1.1772824566606186,4.1974311642761855,-0.023710037266882405,0.19864381405678616,-1.664531198834133
1.1730610131665993,4.162997080293884,-0.023194890444442205,0.18395711907987716,-1.6149952420067464
1.1689373276686241,4.131189914079119,-0.022623837310837027,0.16945583886194404,-1.557749342373019
1.1649220910579667,4.1019748980050075,-0.021989902807577483,0.15515545085041088,-1.4923302874656559
1.1610273455644982,4.075314395292718,-0.021285047119850867,0.14107235706389676,-1.41829034150259
1.1572667055695778,4.0511677747180315,-0.020499841712598214,0.12722342709929427,-1.3352208655777695
1.1536556506318159,4.029491395301481,-0.019622990929200425,0.11362523308459362,-1.2427868126166859
1.1502119264761455,4.010238766171767,-0.01864061080046996,0.10029286835665982,-1.1407755270296231
1.1469561101744177,3.993360964834288,-0.01753512588539545,0.08723825761533659,-1.029163031519768
1.1439124278991135,3.978807405119035,-0.01628356606242779,0.07446796144303214,-0.9081988432197106
1.1411099644317964,3.9665270216444632,-0.01485491690776316,0.061980743829996604,-0.7785042565808862
1.138584487984886,3.9564698370505127,-0.013205932502351194,0.049765751658334176,-0.6411662327722369
1.1363812762655525,3.948588627651347,-0.011274197712467099,0.0378032416657343,-0.4977883116671168
1.1345597365909488,3.9428398778243583,-0.00896513200535263,0.026071756411909175,-0.3504370371212019
1.1332020097244002,3.9391820495005696,-0.006120722067408567,0.01457078051909597,-0.2014148744919508
1.1324348688787276,3.937564830736001,-0.002403065106732005,0.003398316865014222,-0.052829069072968415
