x,y,v_x,v_y,omega
2.375,32.48,0.0,3.435897435897436,-2.1224489795918373
2.37437661871584,31.76800709257054,-0.005936964611046449,3.3449873967640764,-1.965561781381072
2.3726129925677983,31.074656325843815,-0.01085947489411464,3.25835323872852,-1.8262031670771757
2.3699046213033133,30.399082336305288,-0.014934537148600466,3.175684756876496,-1.7018604286010124
2.3664150493415677,29.74048177173395,-0.018299481534689757,3.096701572374349,-1.5904433043775128
2.362281493402526,29.098107405825694,-0.02106771788475664,3.02114953151381,-1.4902038457768711
2.357619388824303,28.47126295338734,-0.02333327809831485,2.94879763456577,-1.3996730724231632
2.352526080381145,27.85929848464007,-0.025174421360334105,2.879435401122464,-1.317610584470823
2.3470838324909775,27.261606354733924,-0.026656510926976913,2.8128705979837005,-1.2429642435148727
2.341362295103244,26.677617578557438,-0.0278343213371526,2.7489272703637866,-1.174837728506615
2.335420532099472,26.10679859217386,-0.028753897746387497,2.6874440285274623,-1.112464288803419
2.329308696410894,25.54864835134547,-0.029454061192450597,2.62827255079051,-1.0551854023729743
2.323069418569906,25.002695725081388,-0.02996763253124294,2.5712762707721692,-1.0024333380116721
2.3167389618195555,24.46849714830725,-0.030322431757812046,2.5163292223148512,-0.953716841147456
2.310348186282376,23.945634502872302,-0.03054209716770769,2.4633150199227547,-0.9086093313798183
2.3039233563448716,23.433713200383654,-0.03064675937995349,2.412125956159632,-0.8667391294699892
2.2974868188258983,22.932360443947978,-0.030653597943599314,2.362662200370619,-0.8277813316489366
2.29105757427169,22.441223648932333,-0.030577302572671734,2.3148310854926777,-0.7914510269659228
2.284651759556788,21.959969005427176,-0.03043045661687207,2.268546471699272,-0.7574976142435076
2.278283056638527,21.48828016728544,-0.030223856890376367,2.2237281772696633,-0.725700022995479
2.2719630396357138,21.0258570544853,-0.029966781231653635,2.1803014684459496,-0.6958626803855306
2.265701470242586,20.572414757173302,-0.029667212988608093,2.1381966011921314,-0.6678120962174048
2.2595065497403524,20.12768253113051,-0.02933202988981017,2.097348408739236,-0.6413939617746651
2.253385134447272,19.691402875602705,-0.028967163377621383,2.0576959296207744,-0.6164706773902515
2.2473429202889554,19.263330685474592,-0.0285777333682514,2.0191820715993525,-0.5929192389390414
2.2413846012217813,18.84323247067138,-0.02816816250959632,1.9817533074788696,-0.5706294257973669
2.2355140054633202,18.430885636459138,-0.02774227328527289,1.9453593993043823,-0.5495022428134135
2.229734212841972,18.026077819004023,-0.027303370727563673,1.909953147887222,-0.5294485769592944
2.2240476560478952,17.62860627115425,-0.02685431302555048,1.8754901649677258,-0.5103880359640068
2.2184562081279933,17.238277293939248,-0.02639757192589785,1.841928665651367,-0.49224794165159724
2.212961258202702,16.854905709747285,-0.025935284505446615,1.809229279033964,-0.474962455164084
2.207563777078122,16.4783143735554,-0.02546929763341192,1.7773548751744825,-0.4584718149193812
2.2022643741729113,16.108333718949638,-0.025001206225737014,1.746270406785168,-0.44272167118834316
2.1970633469664875,15.74480133599694,-0.024532386216391703,1.7159427641928993,-0.4276625036902863
2.1919607239963312,15.387561578316593,-0.02406402302319259,1.6863406422865825,-0.4132491106978147
2.18695630228173,15.036465196954335,-0.02359713616348623,1.6574344183063348,-0.3994401598858931
2.18204967992437,14.691368998889512,-0.023132600573276926,1.6291960394538887,-0.38619779261865267
2.177240284528838,14.35213552820855,-0.02267116509845611,1.6015989194124187,-0.3734872745904657
2.172527397995147,14.018632768159463,-0.02221346855574313,1.5746178429598208,-0.36127668676611835
2.16791017815815,13.690733862464555,-0.02176005370137037,1.5482288779440725,-0.3495366514316984
2.1633876776829815,13.368316854414193,-0.02131137939547293,1.52240929396412,-0.3382400889002906
2.1589588605696206,13.051264442395528,-0.020867831207965207,1.4971374871660144,-0.32736200103705826
2.1546286993933537,12.739464063543561,-0.020371799042194747,1.4723899304717762,-0.3152312500940999
2.150401537679965,12.432807344532907,-0.01988688394246175,1.4481502505820787,-0.3036752130154201
2.146275045533062,12.131189588173907,-0.019413041266137278,1.4243998099798254,-0.29265970012119125
2.1422469061524487,11.83450991892121,-0.01895019093017973,1.4011208495696756,-0.2821529413271659
2.1383148226800666,11.54267110384173,-0.018498223092508564,1.3782964369015596,-0.27212538787293183
2.134476523932243,11.255579384075475,-0.018057003077237916,1.3559104180151487,-0.2625495324527239
2.130729769166611,10.973144316059589,-0.017626375643070003,1.3339473726123332,-0.253399745845167
2.1270723520126147,10.695278621844675,-0.017206168680700056,1.3123925722916,-0.24465212835500835
2.1235021036777195,10.421898047885815,-0.016796196413541735,1.2912319416022957,-0.2362843745697207
2.1200168955268506,10.152921231739239,-0.01639626216616109,1.2704520216984325,-0.22827565010041218
2.1166146411199955,9.88826957613983,-0.016006160756268532,1.2500399363911796,-0.22060647912284734
2.1132932977819174,9.627867129974994,-0.01562568055875992,1.2299833604167743,-0.2132586416632077
2.1100508677684333,9.371640475707228,-0.015254605283948735,1.2102704897524337,-0.20621507968677374
2.106885399085421,9.119518622831368,-0.014892715506646078,1.190890013827186,-0.19945981114794847
2.103794986009533,8.871432906983326,-0.014539789978000997,1.171831089487494,-0.19297785124865235
2.1007777693533125,8.627316894345263,-0.014195606747905503,1.1530833165892842,-0.18675514023055909
2.097831936511951,8.387106291018032,-0.013859944122207528,1.1346367150986354,-0.1807784770961747
2.094955721324151,8.150738857055408,-0.013532581475884752,1.1164817035930301,-0.1750354587154778
2.092147403775415,7.918154324876436,-0.013213299940647827,1.0986090790638532,-0.16951442382969215
2.089405309568421,7.689294321792207,-0.012901882983107443,1.0810099979287933,-0.16420440151257557
2.086727809581996,7.464102296401826,-0.012598116887608209,1.0636759581700665,-0.15909506369310059
2.08411331923741,7.242523448629264,-0.012301791156062702,1.0465987825210046,-0.1541766813822026
2.0815602977882883,7.024504663188452,-0.012012698835576154,1.0297706026295765,-0.14944008428092553
2.0790672475483056,6.809994446278388,-0.01173063678330597,1.0131838441329373,-0.14487662347828112
2.076632713068992,6.5989428653233055,-0.011455405876824535,0.9968312125821199,-0.14047813697488132
2.0742574542995604,6.391431483290244,-0.011166106212999951,0.9794676639232317,-0.16077318396166188
2.071940267775302,6.187554528422137,-0.01090233687517601,0.9622176205349493,-0.1829056828440036
2.069675787780482,5.987288494029485,-0.010664139265969583,0.9450779451093408,-0.20676932557265093
2.0674586504587076,5.79061051972284,-0.010451454274737967,0.9280456197158697,-0.23226061758690006
2.0652835140122514,5.597498366860059,-0.010264130929605262,0.9111177408820531,-0.2592786542541787
2.0631450771563737,5.407930394986781,-0.010101934364467277,0.8942915150539291,-0.2877249038984072
2.061038095967378,5.221885539191948,-0.009964553149779913,0.8775642544206881,-0.31750299657813336
2.058957399253305,5.039343288303325,-0.009851606031866337,0.8609333730900095,-0.3485185177933952
2.056897902567183,4.860283663850581,-0.009762648121673548,0.8443963836027997,-0.3806788063126868
2.0548546209745218,4.68468719972558,-0.009697176570339356,0.8279508937781582,-0.41389275531824776
2.0528226806792516,4.5125349224713105,-0.009654635765568041,0.8115946038815454,-0.4480706160690914
2.0507973296055058,4.343808332132063,-0.009634422079630573,0.7953253041112928,-0.4831238032765714
2.0487739470264827,4.17848938359829,-0.009635888196777107,0.7791408724008333,-0.5189647013766601
2.0467480523261017,4.016560468379886,-0.009658347044950891,0.7630392725363377,-0.5555064708661908
2.044715312974222,3.858004396741425,-0.009701075353898839,0.747018552591878,-0.5926628538467545
2.0426715517918614,3.702804380132161,-0.009763316859060404,0.7310768436868169,-0.6303479778893064
2.0406127535790244,3.55094401384239,-0.009844285167958287,0.7152123590728923,-0.6684761572943279
2.0385350711745542,3.4024072598157815,-0.00994316630318663,0.6994233935614607,-0.7069616907760041
2.036434831014706,3.2571784295448403,-0.010059120933468418,0.6837083233046444,-0.7457186545436219
2.034308538255023,3.1152421669733386,-0.010191286301606551,0.6680656059477365,-0.7846606896884742
2.0321528815185315,2.9765834313255333,-0.01033877785545311,0.6524937811742292,-0.8237007827090853
2.029964737332259,2.8411874797769627,-0.010500690585237787,0.6369914716693125,-0.8627510379205092
2.027741174313701,2.7090398498757473,-0.010676100067695283,0.6215573845327269,-0.9017224403937039
2.0254794571690837,2.580126341616168,-0.010864063214375956,0.6061903131775472,-0.9405246079572772
2.0231770505661553,2.4544329990579428,-0.011063618718273516,0.5908891397579308,-0.9790655306649111
2.020831622945848,2.3319460913748564,-0.011273787189413034,0.5756528381762245,-1.0172512959860471
2.0184410503395025,2.2126520932048876,-0.011493570966262065,0.56048047772823,-1.0549857978134707
2.016003420261546,2.0965376641606426,-0.011721953585700882,0.5453712274550642,-1.0921704271977504
2.0135170357516237,1.983589627343342,-0.011957898889751713,0.5303243612811194,-1.1287037425136413
2.0109804196452634,1.8737949466856385,-0.012200349742250004,0.5153392640303561,-1.1644811165363067
2.0083923191584057,1.7671407029275272,-0.012448226323062118,0.5004154384278301,-1.1993943576546828
2.005751710878556,1.6636140680055291,-0.012700423961221457,0.4855525132102559,-1.2333313021753116
2.0030578062641844,1.5632022776071182,-0.012955810461363133,0.4707502524888969,-1.2661753743733364
2.0003100577643953,1.4658926016100793,-0.013213222869964954,0.4560085665305176,-1.2978051106306172
1.997508165683053,1.3716723120888403,-0.013471463619009126,0.44132752414795723,-1.3280936436690667
1.9946520859257237,1.2805286485265448,-0.013729295974600984,0.4267073669215168,-1.3569081425491185
1.991742038784195,1.1924487798216319,-0.013985438706624699,0.41214852550622044,-1.384109203773007
1.9887785189323424,1.107419762620033,-0.014238559882449464,0.39765163831851447,-1.4095501885327193
1.9857623068290475,1.0254284954379536,-0.014487269672739878,0.38321757293937103,-1.4330765009074404
1.982694481749187,0.9464616679643107,-0.01473011204021682,0.36884745061913343,-1.4545248016967518
1.9795764366929223,0.8705057048454456,-0.014965555162304026,0.35454267432242637,-1.4737221526507727
1.976409895457266,0.7975467031567476,-0.015191980415374846,0.3403049608080346,-1.4904850862406507
1.973196932192952,0.7275703626557508,-0.015407669720949627,0.3261363772966841,-1.504618596969774
1.9699399938149946,0.660561907789404,-0.015610791021500594,0.3120393833351819,-1.515915051803579
1.966641925688293,0.5965060002954949,-0.01579938161375345,0.29801687851156705,-1.5241530199541706
1.96330600107197,0.5353866410981283,-0.015971329017893342,0.28407225670146397,-1.5290960265233602
1.959935954880323,0.4771870600556767,-0.01612434899779221,0.2702094675123411,-1.5304912411589202
1.9565360224078567,0.42188959198826836,-0.016255960263791024,0.25643308551059385,-1.5280681230514803
1.9531109837762568,0.3694755373095404,-0.016363455275257382,0.24274838762018078,-1.521537058965736
1.9496662150005575,0.31992500554602543,-0.016443866398069905,0.22916143869900044,-1.510588054019271
1.9462077467531607,0.27321674009763797,-0.016493926434279486,0.2156791846189695,-1.4948895692129067
1.9427423321485815,0.2293279228548144,-0.016510022180760173,0.20230955102699455,-1.4740876505891822
1.9392775252127938,0.1882339578678227,-0.01648813911245546,0.18906154408722237,-1.447805570112424
1.9358217721948168,0.14990823435495315,-0.01642379439208814,0.17594534651150467,-1.4156443091670357
1.9323845186179325,0.11432187123318727,-0.016311953959190377,0.16297239750534562,-1.3771843779737538
1.9289763361098862,0.08144344849624474,-0.016146927069822445,0.1501554380845502,-1.331989700359964
1.9256090748584063,0.05123873578688887,-0.01592222770617685,0.13750849248077612,-1.2796146321037882
1.9222960504531337,0.023670436293080854,-0.015630385677372426,0.12504674079357936,-1.2196156560874756
1.9190522786415523,-0.0013020242354642164,-0.015262679194832129,0.1127862166211276,-1.1515699369146897
1.9158947793869243,-0.023722616814040975,-0.014808742277814185,0.10074323650816999,-1.0751037141668
1.9128429846212476,-0.04363866791197779,-0.01425596977624903,0.08893344061503125,-0.9899343488447027
1.9099193055739394,-0.06110056198559022,-0.013588592579068191,0.07737031246696136,-0.8959303142638135
1.9071499509212249,-0.07616106944014689,-0.01278621363725977,0.0660630918621417,-0.7931925366185737
1.9045661452493934,-0.08887418399325497,-0.011821459427801231,0.05501418959603294,-0.6821561324069411
1.9022059958901,-0.09929342974319155,-0.010656153517849733,0.0442167223080997,-0.5637002236715144
1.9001174407211057,-0.10746984153194461,-0.009234848091621891,0.033653866156194485,-0.43923146596124685
1.8983631438428652,-0.11345039550180758,-0.007472741224952811,0.023303790699667454,-0.3106761563270756
1.8970296328070377,-0.11727896715301256,-0.005227363878164836,0.013158796454666692,-0.18029370514384302
1.8962501171898696,-0.1190063876763503,-0.0021965943805816223,0.003292827577089444,-0.050248760680489474
