x,y,v_x,v_y,omega
2.375,32.48,0.0,3.435897435897436,-6.408163265306122
2.373509501459445,31.83523576615922,-0.01568945832163132,3.3510944992686613,-5.9754162891519265
2.369269003234696,31.20623001047334,-0.028947365096779698,3.2700187184774085,-5.586603392295226
2.3627060451998196,30.592299938808978,-0.04013640369139041,3.19240308851589,-5.235949713018339
2.3541848520204227,29.99281089284784,-0.0495603666180524,3.1180079216013574,-4.918579767548154
2.3440165162104654,29.407171522802482,-0.057474747170974824,3.046617026244517,-4.630357289428296
2.3324673697143687,28.83482962037713,-0.06409521594583051,2.978034578232886,-4.36775711665357
2.3197659013247818,28.275268494969968,-0.0696044513129768,2.912082531316174,-4.127761994382457
2.3061084990867218,27.728003801378275,-0.0741576775087081,2.848598453859542,-3.9077789135751924
2.2916642376237784,27.192580746243404,-0.07788717999595825,2.7874337054548786,-3.705570886096191
2.276578884978245,26.668571614894155,-0.08090600574649752,2.7284518876951216,-3.519201003316607
2.260978268503157,26.155573571331754,-0.08331100978074558,2.6715275182248877,-3.3469863327266056
2.244971112013558,25.653206692712264,-0.08518537432029576,2.616544888296052,-3.187459741159903
2.2286514349315976,25.16111220644311,-0.08660070022665944,2.563397072431892,-3.0393381401062958
2.212100587172684,24.678950903370193,-0.08761874986716454,2.511985065177738,-2.9014959611259097
2.1953889799962987,24.206401704820866,-0.08829290462110474,2.4622170248151907,-2.772942911289222
2.1785775622169328,23.743160364730237,-0.08866938779327489,2.4140076077177457,-2.652805247129559
2.1617190824549177,23.288938290896947,-0.08878829391214643,2.367277380001089,-2.540309953532495
2.144859171057229,22.84346147172711,-0.08868445764247018,2.321952295470874,-2.434771330754613
2.1280372695904113,22.406469496736925,-0.08838818937666368,2.277963230741607,-2.3355795854499655
2.1112874311340604,21.977714660675808,-0.08792589963755458,2.2352455699017537,-2.242191095541513
2.0946390107746824,21.55696114246527,-0.08732063046116292,2.1937388323144402,-2.1541200780832193
2.07811726255171,21.143984251272837,-0.08659250872802231,2.1533863381321914,-2.0709314370405845
2.0617438565099215,20.73856973299332,-0.08575913381711676,2.114134906915354,-1.9922346065832388
2.0455373273620285,20.340513131222078,-0.08483590984491281,2.0759345854135,-1.9176782369029302
2.0295134644792006,19.949619197500887,-0.0838363310269654,2.038738401125331,-1.8469455952032432
2.0136856514395216,19.56570134621584,-0.08277222728544462,2.002502138717283,-1.779750575498648
1.9980651621214403,19.188581150044413,-0.08165397606277792,1.9671841367713971,-1.7158342281126753
1.9826614192880008,18.818087872298182,-0.08049068534184889,1.9327451026626277,-1.6549617339932068
1.9674822207330327,18.454058032898914,-0.07929035207886709,1.8991479436454517,-1.5969197607360437
1.9525339373239483,18.096335005068134,-0.07805999959570545,1.8663576124680334,-1.5415141469806746
1.937821686654033,17.744768640110223,-0.0768057969297192,1.834340966036298,-1.488567869979278
1.9233494854910087,17.399214917933335,-0.07553316268106333,1.8030666358256962,-1.4379192579351983
1.9091203837624482,17.05953562118536,-0.07424685551431,1.7725049088898082,-1.3894204143978917
1.8951365824393644,16.72559803108846,-0.07295105314972862,1.7426276184460125,-1.3429358267802642
1.8813995373562544,16.397274643238514,-0.07164942140932506,1.713408043132334,-1.2983411350881915
1.8679100507301465,16.0744429017987,-0.07034517465497037,1.684820814128856,-1.2555220403488474
1.854668351905385,15.756984950661192,-0.06904112876357114,1.6568418294238707,-1.2143733350991357
1.8416741686488134,15.444787400280727,-0.06773974762139308,1.6294481745810319,-1.1747980407341683
1.8289267901465365,15.137741108999617,-0.06644318398152121,1.6026180494306728,-1.1367066385893734
1.8164251227042434,14.8357409777878,-0.06515331541103707,1.5763307001673992,-1.1000163833970862
1.8041677390245168,14.53868575741502,-0.06387177595450676,1.5505663563881604,-1.0646506892679943
1.792152921823608,14.24647786715629,-0.0625999840550584,1.5253061726511135,-1.0305385796399558
1.7803787024542452,13.959023224207666,-0.06133916720139351,1.500532174176529,-0.9976141937450896
1.7688428951179844,13.676231083057896,-0.060090383706615416,1.4762272063473763,-0.9658163430987651
1.7575521955815085,13.398016265351359,-0.05875908509839319,1.4523498221424886,-0.9324142203279284
1.7465119569795524,13.1242964942746,-0.057453952816933766,1.4289109260339434,-0.9004674866473139
1.7357172083852221,12.854989888110609,-0.05617497975496419,1.4058954546396227,-0.8698960262549565
1.7251629880053492,12.590017364617381,-0.05492207687527787,1.3832890031838447,-0.8406249683008504
1.7148443576476788,12.32930251934732,-0.05369508478441152,1.361077789132584,-0.8125842886612522
1.7047564151214354,12.072771510648785,-0.05249378391288833,1.3392486182204004,-0.7857084459957164
1.6948943048202016,11.8203529509127,-0.05131790346851917,1.3177888526857777,-0.7599360487935519
1.6852532267063665,11.571977803660527,-0.05016712930869419,1.296686381547606,-0.735209550464958
1.6758284438903692,11.327579286100356,-0.0490411108596969,1.2759295927699972,-0.7114749698404318
1.6666152889751285,11.087092776805516,-0.04793946719546994,1.2555073471756677,-0.6886816347151556
1.6576091693159674,10.850455728195737,-0.04686179237464612,1.23540895397992,-0.6667819463173216
1.6488055713287135,10.617607583523991,-0.04580766012276433,1.2156241478279268,-0.6457311627945205
1.640200063963113,10.388489698093707,-0.044776627936188494,1.1961430672276991,-0.625487200003668
1.6317883014450363,10.163045264450485,-0.04376824067514302,1.1769562342798934,-0.6060104480603317
1.6235660253788944,9.941219241310606,-0.042782033705299996,1.1580545356135847,-0.5872636022552399
1.615529066291057,9.722958286005099,-0.0418175356403561,1.1394292044443883,-0.5692115070813543
1.6076733446856932,9.508210690233483,-0.04087427073189421,1.1210718036779037,-0.5518210122360834
1.5999948716761576,9.29692631893527,-0.03995176094742739,1.1029742099874784,-0.5350608395716524
1.5924897492477386,9.089056552100388,-0.03904952777277575,1.0851285988007715,-0.5189014600637745
1.5851541702011036,8.884554229351526,-0.038167093770748985,1.0675274301346094,-0.5033149799558816
1.577984417820062,8.683373597142626,-0.03730398392442681,1.050163435222208,-0.4882750353143717
1.5709768653021832,8.48547025842782,-0.036459726790084974,1.0330296038810276,-0.4737566943006078
1.5641279749863397,8.290801124664654,-0.03563385548195206,1.0161191725733625,-0.459736366528636
1.557434297407251,8.099324370024231,-0.034825908508454954,0.9994256131152917,-0.4461917189345301
1.5508924702035969,7.910999387688957,-0.03403543047737787,0.9829426219928428,-0.4331015976346038
1.5445062362666748,7.725996580065168,-0.03318808464811635,0.9644553529944292,-0.4645677095849974
1.5382762689340272,7.5444962160443225,-0.03239051885343761,0.9460747945934085,-0.49743883467337313
1.5321932567406993,7.366478282354105,-0.03164118844475387,0.9277981916193998,-0.5316076392174163
1.5262481833149728,7.19192327881672,-0.03093853182604885,0.9096228982477996,-0.5669687159436759
1.5204323302810923,7.020812197885757,-0.030280973793745867,0.8915463747096982,-0.6034183457481268
1.5147372795621998,6.853126504771581,-0.029666928510386922,0.8735661843868935,-0.6408542625514971
1.509154915150805,6.688848118082486,-0.029094802135874093,0.8556799912877956,-0.6791754202239245
1.5036774244098547,6.52795939090937,-0.028562995137285684,0.8378855579028853,-0.7182817605439071
1.4982972989637275,6.370443092281665,-0.028069904295631925,0.8201807434413771,-0.7580739811387266
1.4930073352352355,6.216282388921616,-0.027613924425335497,0.8025635024538823,-0.7984533023271749
1.4878006346819586,6.065460827222822,-0.027193449819686084,0.7850318838492206,-0.839321231750069
1.4826706037829533,5.917962315377018,-0.02680687543300088,0.7675840303171347,-0.8805793256291342
1.4776109538250868,5.773771105570496,-0.026452597807698895,0.7502181781725777,-0.922128945439743
1.4726157005369214,5.632871776168155,-0.02612901575193861,0.7329326576415409,-0.9638710087169492
1.4676791636172566,5.49524921379896,-0.025834530770847575,0.7157258936131268,-1.0057057326364238
1.4627959662051186,5.360888595251367,-0.025567547251658062,0.6985964068878512,-1.047532368921308
1.4579610343381901,5.229775369081008,-0.025326472400221567,0.681542815958056,-1.0892489285216127
1.453169596447449,5.101895236825513,-0.025109715923370336,0.664563839362954,-1.1307518943934785
1.448417182937132,4.9772341337125425,-0.024915689448386662,0.6476582986683302,-1.17193592057016
1.4436996259011337,4.855778208736755,-0.024742805667385914,0.6308251221294304,-1.2126935155637981
1.4390130590296184,4.73751380396946,-0.024589477190668396,0.6140633491052531,-1.2529147079656902
1.4343539177630507,4.6224274329506265,-0.02445411508899328,0.5973721353035066,-1.2924866919217972
1.4297189397550758,4.510505757996722,-0.02433512710021349,0.580750758948123,-1.331293449948769
1.4251051657108378,4.401735566238962,-0.024230915470714036,0.5641986279756737,-1.3692153503234512
1.4205099406734487,4.29610374418483,-0.02413987439653919,0.5477152883835958,-1.4061287160259386
1.4159309158386033,4.193597250570537,-0.024060387022885956,0.5313004338721108,-1.4419053619441526
1.4113660509858295,4.094203087243059,-0.023990821953679544,0.5149539169434392,-1.476412096759744
1.4068136176247945,3.9979082677769924,-0.023929529215110802,0.49867576164675564,-1.50951018563638
1.402272202966583,3.904699783492916,-0.023874835608166167,0.4824661781856362,-1.5410547695314194
1.397740714843168,3.814564566499776,-0.02382503937515043,0.4663255796369062,-1.5708942366651604
1.3932183877136186,3.7274894493329924,-0.023778404093790645,0.4502546010660805,-1.5988695414305325
1.3887047899132594,3.643461120702021,-0.023733151699466697,0.4342541213651975,-1.6248134658437996
1.384199832322303,3.5624660767948733,-0.023687454521125553,0.41832528818373366,-1.648549818573046
1.3797037786538824,3.4844905675120756,-0.02363942619909076,0.40246954637202403,-1.6698925667086997
1.37521725758836,3.4095205369179595,-0.023587111332723665,0.3866886704081315,-1.6886448958651907
1.3707412770119651,3.337541557102714,-0.023528473681960243,0.37098480133130163,-1.7045981950792999
1.3662772406539652,3.2685387545445863,-0.02346138271803875,0.3553604887542669,-1.7175309645225352
1.3618269674588064,3.2024967279491214,-0.023383598283631908,0.3398187385664214,-1.7272076465962414
1.357392714079388,3.1393994564241083,-0.023292753078665775,0.32436306696002,-1.7333773849990206
1.3529772009369132,3.0792301967303146,-0.02318633263159598,0.30899756139570766,-1.7357727225279471
1.348583642364521,3.021971368238333,-0.023061652340952563,0.29372694904620467,-1.7341082576872657
1.344215781440552,2.967604424136532,-0.022915831069246804,0.278556673078011,-1.7280792940681424
1.3398779302295112,2.9161097073991407,-0.022745760625919646,0.2634929767892598,-1.7173605370202074
1.3355750162949962,2.8674662900769086,-0.022548070263712652,0.24854299502371868,-1.7016049223971812
1.3313126365454948,2.821651794677617,-0.022319084994197394,0.2337148512846134,-1.6804427065311989
1.3270971197473944,2.7786421968559374,-0.022054776038438806,0.21901775736465875,-1.6534810114395027
1.3229355994324388,2.7384116094776374,-0.021750700961093408,0.204462109775339,-1.6203041137140775
1.3188360995088044,2.7009320495815494,-0.021401929814006043,0.19005957334138843,-1.580474902464096
1.3148076357701004,2.6661731921579346,-0.02100295164603664,0.17582313638088137,-1.5335381287699188
1.3108603378728434,2.6341021184614455,-0.020547552535616232,0.1617671130558321,-1.4790263495472868
1.3070055985298314,2.604683072428468,-0.020028651075035132,0.14790705571235774,-1.4164698601059573
1.303256260152899,2.5778772475123297,-0.019438068682149402,0.13425952235224203,-1.3454124379627466
1.2996268548037098,2.5536426388359423,-0.01876619815142108,0.12084162160973261,-1.2654353914430465
1.2961339224143102,2.531934012717983,-0.018001511210679003,0.10767023226351098,-1.1761931593297614
1.2927964469443587,2.512703066942912,-0.01712980952565433,0.09476077589512893,-1.0774643098901995
1.2896364737648278,2.4958988769046613,-0.01613306604835424,0.08212543503383274,-0.9692216257646189
1.2866800092933246,2.4814687334995504,-0.014987612599047784,0.069770811335744,-0.8517226906573998
1.2839583645947643,2.4693594512667936,-0.013661278964745734,0.057695317430128464,-0.7256155565310738
1.2815102074794509,2.459519105732653,-0.012108795933290832,0.045887267139752774,-0.5920393371226018
1.2793847908359048,2.4518988536924873,-0.010264010840876856,0.034325912230395036,-0.4526753834580022
1.2776473550041418,2.4464538349652365,-0.008024787388206472,0.022990074372243464,-0.30967814237400015
1.2763896366306728,2.443140618955404,-0.005214353385151622,0.011885883625986624,-0.16540763351276205
1.2757595649096083,2.441901929135959,-0.001417980520791348,0.0011529565786867948,-0.02194769055164547
