x,y,v_x,v_y,omega
2.375,32.48,0.0,3.5897435897435894,-4.081632653061225
2.3740975666879356,31.84169287242133,-0.010027036800716442,3.502557827797136,-3.8091342953796086
2.371529611621361,31.218745193634714,-0.018505797272333032,3.419083047609737,-3.5639661858846017
2.367554168533091,30.610511452946255,-0.025665792597331528,3.3390696267064714,-3.3425878163584515
2.3623912732839023,30.016389011991393,-0.03169971017143668,3.2622908283475374,-3.14199947191554
2.3562290088680595,29.43581423225764,-0.036769894449036,3.1885400575830576,-2.9596484954742177
2.3492284962404213,28.86825905884545,-0.041013579191390176,3.1176285358857254,-2.7933536223345174
2.341528032105439,28.313227992212198,-0.04454713341952175,3.0493833155948527,-2.641243557795998
2.3332465329844094,27.77025539223964,-0.047469523480808934,2.983645572989103,-2.5017068539757212
2.324486412499319,27.238903068798493,-0.04986514857574947,2.9202691319125242,-2.373350804397349
2.3153359935678934,26.71875812074728,-0.05180617288453492,2.8591191797676263,-2.2549675760442125
2.3058715373951015,26.20943099149688,-0.053354451257600535,2.800071145236845,-2.145506180698629
2.296158955508712,25.71055371426296,-0.05456312525783683,2.743009712917793,-2.0440491809256986
2.2862552586738016,25.22177832418646,-0.05547795068561093,2.687827954598909,-1.9497932530791657
2.276209786617664,24.74277541782952,-0.0561384054936974,2.6344265604781834,-1.862032906396888
2.2660652545571702,24.27323284330418,-0.05657861740067958,2.582713156470038,-1.7801467955876273
2.2558586461270105,23.81285450657966,-0.05682814293442645,2.5326016960245985,-1.7035861732185487
2.245621977136535,23.361359281432087,-0.05691262362641116,2.484011916726219,-1.6318651144032135
2.2353829503843308,22.918480012117186,-0.05685434028696919,2.4368688534393628,-1.564552214839735
2.225165518337408,22.483962599217477,-0.056672682456614415,2.39110240100187,-1.5012635180247194
2.2149903676821903,22.0575651602838,-0.056384547045807254,2.3466469204834146,-1.4416564714337932
2.204875337456171,21.639057257891718,-0.05600467768774196,2.3034408838730562,-1.3854247468977576
2.194835780576066,21.228219188594082,-0.055545954313426404,2.2614265527673183,-1.3322937890846107
2.1848848770140625,20.824841326994765,-0.055019640819943365,2.2205496872250894,-1.2820169793005411
2.175033905577307,20.42872351981326,-0.05443559736623162,2.18075928145832,-1.2343723208267166
2.1652924801680338,20.039674525371126,-0.05380246273680281,2.142007323454277,-1.1891595675619386
2.1556687555033145,19.657511494421225,-0.05312781131563192,2.104248575989076,-1.1461977305144242
2.1461696065223603,19.282059488669862,-0.052418288472748535,2.067440376803848,-1.1053229072108262
2.136800785079857,18.913151033719064,-0.051679727555063205,2.0315424559827977,-1.0663863877906932
2.1275670569948844,18.5506257034883,-0.05091725116685835,1.9965167688034908,-1.0292529987684715
2.118472322079417,18.194329733468308,-0.05013535900500141,1.9623273425297514,-0.993799651444677
2.1095197193942203,17.84411566041942,-0.04933800416385227,1.9289401357912361,-0.9599140669518357
2.100711719661545,17.499841986357154,-0.048528659532537634,1.8963229093450298,-0.9274936541061434
2.092050206493982,17.161372864872895,-0.0477103756626087,1.86444510714672,-0.896444519745932
2.0835365478692527,16.82857780802002,-0.046885831278826264,1.833277746774101,-0.8666805941896624
2.0751716590851714,16.501331412159015,-0.04605737743318859,1.802793318348222,-0.8381228569344907
2.0669560582620714,16.179513101300948,-0.04522707615681186,1.7729656911858696,-0.8106986498194289
2.058889915317236,15.863006886619544,-0.04439673434135946,1.7437700274963965,-0.784341066658697
2.0509730952135237,15.551701140919374,-0.04356793347766661,1.7151827025054895,-0.7589884098637264
2.0432051961793487,15.245488386953365,-0.042742055790941674,1.6871812304501626,-0.7345837058598714
2.035585583506843,14.944265098577887,-0.04192030723690088,1.6597441959440353,-0.7110742722022201
2.0281134194571853,14.647931513819465,-0.04110373775929694,1.632851190260636,-0.6884113302337999
2.0207876897349184,14.356391459004683,-0.04029325915478019,1.6064827521258347,-0.666549657933803
2.0136072269349903,14.069552183174931,-0.0394896608444217,1.5806203126492067,-0.6454472782939075
2.006570731315974,13.787324202071218,-0.03869362381131095,1.5552461440586975,-0.6250651791546675
1.9996767892093108,13.509621151031883,-0.037905732929394864,1.530343311933922,-0.6053670609457902
1.9929238893365286,13.236359646198324,-0.03712648787929485,1.505895630661172,-0.5863191092160833
1.9863104372734568,12.967459153471587,-0.03635631282150391,1.4818876218581232,-0.5678897892212176
1.9798386510358252,12.702842652797635,-0.03555242315217842,1.4582957189635861,-0.5488936173672098
1.9735100849363318,12.442435688037452,-0.03476497795330346,1.4351150005939997,-0.5306924169924372
1.9673217901828113,12.186165471001342,-0.0339938526413711,1.4123318553627944,-0.5132440603035964
1.961270843480339,11.93396161235405,-0.03323888849720953,1.3899332407182146,-0.49650907285766316
1.95535435271111,11.685756021926107,-0.032499897827559375,1.3679066529256,-0.4804504396837632
1.949569461741253,11.441482814259217,-0.03177666850418487,1.3462400989287222,-0.4650334274686687
1.9439133544600236,11.201078219059806,-0.031068967953917934,1.324922069953608,-0.4502254213206667
1.938383258144399,10.964480496258322,-0.03037654666413488,1.3039415167295636,-0.4359957747778506
1.9329764462311911,10.73162985539355,-0.0296991412603949,1.2832878262123333,-0.4223156718613825
1.9276902405691998,10.502468379061114,-0.029036477206175804,1.2629507997036233,-0.4091580000939781
1.9225220132154612,10.276939950183518,-0.028388271168697115,1.2429206322696755,-0.3964972335105449
1.9174691878322134,10.054990182876011,-0.027754233089612237,1.2231878933692735,-0.3843093247830803
1.9125292407346177,9.836566356698004,-0.027134067994784416,1.203743508608578,-0.3725716056669621
1.9076997016334853,9.621617354094038,-0.026527477573352568,1.1845787425465928,-0.3612626950518012
1.9029781541121342,9.410093600841563,-0.025934161552771492,1.1656851824809085,-0.35036241396810985
1.8983622358719776,9.201947009334898,-0.025353818893414485,1.147054723148712,-0.3398517069620674
1.893849638777446,8.997130924546049,-0.024786148823601292,1.128679552282947,-0.329712569305425
1.8894381087273056,8.795600072513466,-0.024230851733514136,1.1105521369679823,-0.3199279795567876
1.885125445376298,8.597310511219455,-0.02368762994434886,1.0926652107432564,-0.31048183703474946
1.8809095017282602,8.40221958372592,-0.023156188367181724,1.0750117614071264,-0.3013589038031812
1.8767881836194193,8.210285873446384,-0.02263623506438468,1.0575850194766148,-0.2925447508048533
1.8727594491083777,8.021469161439917,-0.022127481724966213,1.0403784472619195,-0.2840257078119493
1.8688213077873772,7.835730385619772,-0.02162964406392779,1.0233857285174806,-0.27578881689124524
1.8649718200277108,7.6530316017761315,-0.021142442154587413,1.006600758634083,-0.2678217891081475
1.8612090961706347,7.4733359463185565,-0.020665600701813894,0.9900176353389566,-0.2601129642176711
1.8575353482156451,7.296828318618246,-0.02015382102029504,0.9711782279978084,-0.30132332637879145
1.8539496987875452,7.123702718036231,-0.019686728180814222,0.9524395562467924,-0.3436277611852375
1.850444240070196,6.953941235344509,-0.019262813123066543,0.9337991403278871,-0.3869278646227713
1.8470113366552419,6.787526399060543,-0.018880558154201154,0.9152545961606222,-0.43112646738491667
1.843643626881736,6.624441158426954,-0.018538439329197232,0.8968036331014778,-0.4761274195492692
1.8403340237739534,6.464668866763965,-0.018234928535052874,0.8784440520428645,-0.5218353754691498
1.837075715629267,6.308193265133223,-0.017968495294795658,0.8601737438542533,-0.5681555779156499
1.8338621663052936,6.154998466250966,-0.017737608304908913,0.8419906881708441,-0.6149936404737116
1.8306871152532878,6.005068938587154,-0.017540736717378307,0.8238929525381848,-0.662255327155956
1.827544577342958,5.85838949058552,-0.01737635117517491,0.8058786919244257,-0.7098463281488611
1.8244288425225101,5.714945254936929,-0.017242924607578033,0.787946148615465,-0.7576720305468865
1.8213344753567933,5.574721672835441,-0.017138932789276924,0.770093652512178,-0.8056372828603686
1.81825631448594,5.43770447814255,-0.017062854664645903,0.7523196218532873,-0.8536461520015006
1.815189472046888,5.303879681380447,-0.01701317243593123,0.7346225643923061,-0.9016016713583687
1.8121293331006385,5.173233553469519,-0.016988371411286177,0.7170010790624666,-0.9494055784585909
1.809071555109118,5.0457526091186224,-0.01698693960560541,0.6994538581697275,-0.9969580406002425
1.8060120675070628,4.92142358976886,-0.017007367083899466,0.6819796901609756,-1.0441573666869455
1.8029470714164997,4.800233445982347,-0.01704814503346872,0.6645774630225205,-1.0908997033446466
1.7998730395542277,4.682169319156738,-0.017107764547331497,0.647246168373113,-1.1370787132180125
1.796786716386222,4.5672185224338016,-0.017184715097175247,0.6299849063261723,-1.1825852331427862
1.7936851185872242,4.455368520655735,-0.017277482669466968,0.6127928912079146,-1.2273069096651947
1.7905655358689838,4.346606909206152,-0.017384547533205102,0.5956694582318891,-1.2711278091290097
1.787425532246812,4.240921391553112,-0.017504381602035896,0.578614071246338,-1.313927999273953
1.7842629478213992,4.138299755288919,-0.017635445346996376,0.5616263316891397,-1.3555830989851894
1.7810759011613708,4.038729846435334,-0.017776184208873905,0.5447059889062498,-1.395963792503063
1.7778627923819854,3.942199541752519,-0.017925024450962928,0.5278529520139392,-1.4349353040470008
1.7746223070268652,3.8486967187550754,-0.018080368383706615,0.5110673035132077,-1.4723568284320205
1.7713534208729367,3.758209223098156,-0.018240588882165648,0.4943493148970212,-1.5080809128686063
1.7680554057940685,3.6707248329499045,-0.01840402310525817,0.4776994645279802,-1.5419527847503423
1.764727836836513,3.5862312199128326,-0.018568965312025777,0.46111845810615476,-1.5738096198700844
1.7613706006795247,3.5047159059947717,-0.018733658654511397,0.44460725209450985,-1.603479745197797
1.7579839056778241,3.4261662160592152,-0.01889628580882592,0.42816708052277985,-1.630781770151727
1.7545682937093643,3.350569225103694,-0.01905495828517352,0.4117994856496717,-1.6555236402745241
1.7511246540826928,3.2779116996227877,-0.019207704233395642,0.39550635302707177,-1.6775016074986369
1.747654239793793,3.2081800322084533,-0.019352454532157955,0.3792899515766513,-1.6964991119151402
1.7441586864634515,3.1413601684245727,-0.019487026916080768,0.3631529793553378,-1.7122855713884597
1.7406400343341255,3.0774375248655197,-0.019609107854208878,0.3470986157452352,-1.7246150778404201
1.7371007537614047,3.0163968971723882,-0.01971623184268701,0.33113058084511016,-1.7332250030799556
1.7335437747016242,2.9582223566400856,-0.019805757710431957,0.31525320284712516,-1.7378345234414287
1.7299725207769332,2.902897133912486,-0.019874841452799375,0.2994714941261879,-1.7381430823332327
1.7263909485966455,2.8504034881465934,-0.019920404994843197,0.28379123660593314,-1.7338288247330773
1.722803593135707,2.800722559955741,-0.019939100126693494,0.26821907662575956,-1.7245470601155293
1.719215620128285,2.7538342064575225,-0.019927266622439856,0.2527626289100085,-1.7099288438199778
1.715632886643641,2.7097168169205297,-0.019880883206939537,0.23743058816767262,-1.6895798166953162
1.712062011300099,2.668347107928586,-0.01979550949908245,0.22223284507613303,-1.6630795166582177
1.7085104559860604,2.629699897822764,-0.01966621621245702,0.20718060054412055,-1.6299814847323697
1.7049866215694234,2.5937478616859444,-0.019487499527957215,0.19228646764274815,-1.5898146482227689
1.7014999610133352,2.560461270671741,-0.019253173317465105,0.17756454362617383,-1.5420866974039489
1.6980611147866467,2.5298077235925724,-0.018956229201296776,0.1630304239201558,-1.4862905096615104
1.6946820758144985,2.501751885139978,-0.01858864826701704,0.14870111444199596,-1.4219151536571908
1.6913763950508631,2.4762552549352606,-0.018141137995597897,0.13459477672153583,-1.3484636632472649
1.688159445060884,2.453276005993157,-0.017602750781948496,0.12073021152407926,-1.2654806213208445
1.6850487694145033,2.4327689511019877,-0.0169603119556141,0.1071259539333693,-1.172593568445587
1.6820645628831823,2.4146857207010335,-0.01619753839239611,0.09379882829945355,-1.069573054757724
1.6792303556854025,2.3989752615560533,-0.015293652694046386,0.08076182886700768,-0.9564159686442746
1.6765740212805746,2.385584777343169,-0.014221174026262533,0.06802132905394483,-0.8334537549128023
1.6741293037450673,2.3744611948305376,-0.01294235414604224,0.05557403219752673,-0.701477842611673
1.6719381955778991,2.365553081054088,-0.011403292155826382,0.043405009763018726,-0.5618544399665364
1.6700547798463166,2.3588125312213926,-0.009523549306202809,0.03148998837803694,-0.41656825922619833
1.6685519560049433,2.35419565078395,-0.0071744933757224485,0.01980868314910176,-0.26810157291631
1.6675357976851588,2.3516578718225247,-0.004116154621882327,0.008388860866738774,-0.1190537961107151
