x,y,v_x,v_y,omega
2.375,32.48,0.0,2.9743589743589745,-6.775510204081632
2.3738122423606773,31.95035475623886,-0.013197307103587555,2.910588178542552,-6.392357602971878
2.3704052444031802,31.431977922747937,-0.024658225757486725,2.8491544158010225,-6.041305166620543
2.3650719421056654,30.924461914004073,-0.03460068865934929,2.7899123480196777,-5.718817354340008
2.358068741715196,30.42742411690605,-0.043212649012529775,2.732729841958388,-5.421825169428845
2.3496205001209085,29.940504663836144,-0.05065670203511175,2.6774863032627945,-5.147655020066524
2.339924745590728,29.46336448113737,-0.057073903855780074,2.6240712822791217,-4.893969907198216
2.3291552691886146,28.995683568882683,-0.06258694505659086,2.572383298328513,-4.658720536076373
2.317465192003452,28.537159476341248,-0.06730280144521768,2.5223288410207703,-4.44010447109168
2.304989593608122,28.087505944193413,-0.07131495850289112,2.473821516177377,-4.236531850562819
2.2918477715995014,27.64645168976825,-0.07470528603733906,2.426781310768932,-4.0465964824949605
2.2781451896747544,27.21373931571305,-0.07754562423762565,2.3811339565110385,-3.8690513776815316
2.2639751617561443,26.789124325804245,-0.07989913041359747,2.336810375809026,-3.7027879600438314
2.249420311646116,26.3723742342613,-0.08182142636449423,2.2937461968903485,-3.5468183382884404
2.2345538411683568,25.963267757072394,-0.08336157894394569,2.251881327430813,-3.4002601370431345
2.2194406344168094,25.56159407559013,-0.08456294051769,2.2111595779276882,-3.2623234764846805
2.2041382213525997,25.167152164090908,-0.08546387130686191,2.171528327619251,-3.132299762266215
2.1886976203713493,24.779750174176364,-0.08609836181814623,2.132938226986763,-3.0095520062077314
2.173164076463776,24.39920486987929,-0.08649657048821985,2.0953429318695918,-2.8935064457264987
2.15757770909501,24.025341108158386,-0.08668528916473839,2.058698865029369,-2.783645268661935
2.141974081840679,23.657991360156828,-0.0866883469944948,2.0229650016546366,-2.679500281780546
2.126384704067032,23.296995269182823,-0.08652696160158381,1.9881026758342775,-2.580647387227392
2.110837473468921,22.94219924186543,-0.0862200450440942,1.9540754054700977,-2.4867017526178885
2.095357067035619,22.593456069361284,-0.08578447088147877,1.9208487334648718,-2.397313578203979
2.0799652869612877,22.25062457585004,-0.08523530772220607,1.888390083326737,-2.312164379289991
2.0646813671227284,21.913569291867937,-0.08458602381734229,1.8566686275855357,-2.2309637143652195
2.0495222449858828,21.582160150298463,-0.08384866659205273,1.825655167630787,-2.1534462997032495
2.0345028031529244,21.256272203073138,-0.08303402044081713,1.7953220237617338,-2.0793694598074675
2.0196360842061085,20.93578535683919,-0.08215174563491359,1.765642934393231,-2.008510870345634
2.004933482028103,20.620584126029534,-0.08121050078737016,1.7365929634918544,-1.9406665563475218
1.9904049123691485,20.310557401926715,-0.08021805097879346,1.708148415428326,-1.8756491136290787
1.9760589650789138,20.00559823645062,-0.07918136335714837,1.680286756528308,-1.8132861258105422
1.961903040116808,19.7056036395213,-0.07810669177735756,1.6529865426863368,-1.7534187530426821
1.9479434691916389,19.410474388956402,-0.07699965183563391,1.626227352479238,-1.6959004717506962
1.9341856246538573,19.12011485195829,-0.07586528747304928,1.5999897252775157,-1.640595947436726
1.9206340170661416,18.834432817331653,-0.07470813016823807,1.5742551039073482,-1.5873800249221246
1.907292382706426,18.55333933764831,-0.07353225160637884,1.5490057814631437,-1.536136822419869
1.8941637621080871,18.27674858064454,-0.07234131059738551,1.5242248519120893,-1.4867589175563274
1.8812505706117206,18.004577689197276,-0.07113859491779968,1.4998961641686004,-1.4391466149520966
1.8685546617891895,17.736746649280718,-0.06992705866587814,1.4760042793487278,-1.3932072862592455
1.8560830530959276,17.47318189070493,-0.06864637125925596,1.452493038160032,-1.346643003963662
1.8438410955005806,17.213812243233733,-0.06737537980015372,1.4293919337421406,-1.3020293326363592
1.8318269227794877,16.958565111875934,-0.0661154282119904,1.4066873035667422,-1.2592627382760113
1.8200384435356525,16.70737030888286,-0.06486767449728847,1.3843660630229497,-1.21824622018209
1.8084733728855873,16.460159952521845,-0.06363311050343698,1.3624156743216729,-1.1788888324301012
1.7971292607744211,16.21686837126654,-0.0624125796206331,1.3408241174039461,-1.14110524511344
1.7860035172712987,15.97743201305705,-0.06120679263628272,1.3195798627014865,-1.1048153416604707
1.7750934351590282,15.741789359308928,-0.06001634194449945,1.298671845610992,-1.0699438489134974
1.7643962100982105,15.509880843373935,-0.05884171428680681,1.2780894425556093,-1.0364199969920442
1.7539089586161691,15.281648773177334,-0.05768330218031942,1.257822448517751,-1.004177206261439
1.7436287341444414,15.057037257776393,-0.05654141417221301,1.2378610559371603,-0.973152798993555
1.733552541304992,14.835992137603128,-0.05541628404389043,1.2181958348769113,-0.9432877335436123
1.723677348624323,14.618460918171088,-0.054308079074653966,1.198817714367992,-0.9145263590785264
1.714000099835963,14.404392707041438,-0.05321690746267929,1.1797179648503497,-0.8868161890814271
1.7045177239151807,14.193738153857772,-0.05214282499045792,1.1608881816348355,-0.8601076920261932
1.6952271439749178,13.986449393272157,-0.05108584101246469,1.1423202693164536,-0.8343540977674616
1.6861252851386939,13.782479990596947,-0.05004592383446644,1.1240064270747578,-0.8095112183275445
1.6772090814944078,13.581784890028022,-0.049023005546489536,1.1059391348021899,-0.7855372818837769
1.6684754822223833,13.384320365295313,-0.04801698636489466,1.0881111400056767,-0.7623927788695598
1.6599214569815575,13.190043972606016,-0.04702773853316954,1.0705154454309345,-0.7400403192011054
1.651544000629245,12.998914505754588,-0.04605510982585776,1.0531452973627042,-0.7184444997308399
1.64334013734233,12.810891953281761,-0.04509892669541975,1.0359941745576036,-0.6975717811086136
1.6353069242009488,12.625937457572327,-0.04415899709770399,1.0190557777694498,-0.6773903733042514
1.6274414542896323,12.444013275788393,-0.043235113028034934,1.0023240198298156,-0.6578701291103731
1.6197408593654108,12.265082742541278,-0.04232705279664778,0.98579301624925,-0.6389824450035471
1.6122099986568719,12.089341098787909,-0.0413491772982284,0.9668919143437368,-0.6717771586496587
1.6048504717207968,11.916992231919199,-0.040423344213718265,0.9480954953085927,-0.7058430459967019
1.5976530703738003,11.748017533267337,-0.0395477818640215,0.9294011563787685,-0.7410718676443583
1.5906089057908497,11.582398853043795,-0.03872071350209536,0.9108064016605671,-0.7773569546080947
1.5837094092031245,11.420118481338559,-0.03794035969485197,0.8923088395087351,-0.8145929682170182
1.5769463321946122,11.261159129556372,-0.03720494039972648,0.8739061802933253,-0.8526756615336091
1.570311746650811,11.105503912219813,-0.036512676753622096,0.8555962345573151,-0.8915016412356042
1.5637980444099298,10.953136329068435,-0.03586179258950419,0.8373769115690939,-0.9309681288791899
1.557397936664457,10.804040247382265,-0.035250515693524866,0.819246218277262,-0.9709727204329287
1.5511044531588527,10.658199884456224,-0.034677078813191445,0.8012022586787392,-1.0114131429330286
1.5449109412274402,10.515599790149786,-0.03413972042472532,0.7832432336150281,-1.0521870070621648
1.5388110647153317,10.37622482943302,-0.03363668526536691,0.7653674410156741,-1.0931915543954507
1.532798802824394,10.24006016484648,-0.03316622463394208,0.7475732766125734,-1.1343233979876572
1.5268684489258952,10.107091238787497,-0.0327265964604887,0.7298592351538865,-1.1754782548946063
1.5210146093815706,9.977303755529967,-0.03231606514311886,0.7122239121519955,-1.2165506691279901
1.5152322024154121,9.85068366287772,-0.031932901147531556,0.6946660062063091,-1.2574337234358062
1.509516457079585,9.727217133343753,-0.03157538036165689,0.6771843219488712,-1.2980187381792154
1.5038629123595069,9.606890544738164,-0.03124178319476857,0.65977777366881,-1.338194955440055
1.4982674164653473,9.489690460036698,-0.03093039340700325,0.6424453896808093,-1.3778492063406134
1.4927261263600795,9.375603606389241,-0.030639496651527365,0.6251863175131694,-1.416865559387987
1.4872355075777635,9.264616853112802,-0.030367378707540395,0.6079998300028314,-1.4551249474689922
1.4817923343900794,9.15671718849671,-0.030112323377839693,0.5908853323981903,-1.4925047709183623
1.4763936903842982,9.051891695228147,-0.02987261001972824,0.5738423705858402,-1.528878473863699
1.4710369695219936,8.950127524223685,-0.029646510672546478,0.5568706405748483,-1.564115090817408
1.4657198777549576,8.851411866626666,-0.02943228673896453,0.5399699993920116,-1.5980787602423605
1.4604404352831257,8.755731923700615,-0.029228185170278875,0.5231404775641083,-1.630628201570477
1.4551969795489628,8.663074874314866,-0.029032434098197175,0.5063822933886821,-1.6616161519115813
1.4499881690739111,8.573427839679756,-0.028843237846821933,0.48969586922366826,-1.6908887584685917
1.444812988255325,8.486777844944374,-0.028658771248581263,0.4730818500583505,-1.7182849224965544
1.439670753257069,8.40311177721938,-0.02847717317648323,0.4565411246638002,-1.743635590539777
1.434561119143905,8.322416339530246,-0.028296539192006035,0.44007484965991045,-1.7667629887007814
1.4294840884292717,8.24467800014185,-0.028114913192807723,0.4236844768778447,-1.7874797959054916
1.4244400212285124,8.169882936623242,-0.027930277926739633,0.40737178444000355,-1.8055882526295695
1.4194296472355155,8.098016973941633,-0.027740544217671165,0.3911389120223394,-1.8208792024826106
1.4144540797708223,8.029065515787405,-0.027543538723364586,0.37498840080239554,-1.8331310656126947
1.4095148321844067,7.963013468238948,-0.027336990014587,0.3589232386248846,-1.8421087453839293
1.404613836937792,7.89984515477941,-0.027118512725574813,0.34294691092555324,-1.8475624736100817
1.399753467739699,7.839544221582518,-0.026885589475459503,0.3270634579288023,-1.8492266053945068
1.3949365651695347,7.782093531899211,-0.02663555019303454,0.3112775385523972,-1.8468183831859968
1.3901664662975108,7.7274750483143855,-0.026365548385007508,0.29559450127901277,-1.8400367022405908
1.3854470389046822,7.675669701624955,-0.02607253375753313,0.2800204619369043,-1.8285609280456927
1.3807827210294725,7.626657245149367,-0.0257532204114632,0.2645623877918453,-1.8120498429487994
1.3761785667329558,7.580416093465622,-0.02540404954983393,0.24922818647197212,-1.7901408378685062
1.3716402992047945,7.53692314496643,-0.025021145207513893,0.23402679685237154,-1.762449520726402
1.3671743726596206,7.496153588332021,-0.024600260849973264,0.21896827686326797,-1.7285699934433674
1.362788044954767,7.45808069422414,-0.024136713648401635,0.204063879890943,-1.6880761641851847
1.3584894635832698,7.422675595448162,-0.023625301590453698,0.18932610650881845,-1.6405246248496241
1.3542877688042492,7.389907061868772,-0.02306019595421933,0.17476871103994732,-1.5854598534676572
1.3501932193977502,7.359741280985283,-0.022434797451324255,0.16040663210993128,-1.5224228184181507
1.3462173492463958,7.332141661903478,-0.02174153756372535,0.14625580213235606,-1.4509644862803912
1.3423731672499084,7.307068690200232,-0.02097159573057989,0.13233277234813245,-1.3706662742180744
1.3386754199180464,7.284479874461695,-0.02011448573455289,0.1186540691911824,-1.2811701024657443
1.3351409468387618,7.2643298419825335,-0.01915743736860906,0.10523518057728606,-1.1822212401812406
1.3317891763399254,7.246570659094626,-0.0180844570629053,0.09208907373281486,-1.0737271946531795
1.3286428354912394,7.231152463885888,-0.016874885700272166,0.07922420636427102,-0.955834579388444
1.3257289906343797,7.218024488907876,-0.015501168264837375,0.06664218228031486,-0.8290215431611656
1.323080602553074,7.2071364848435415,-0.01392536597189411,0.05433564065673991,-0.6941934824711432
1.3207389026764522,7.1984403733537405,-0.01209352154612441,0.042287820341050754,-0.5527523745921683
1.3187571727305287,7.191891561655087,-0.00992570007524662,0.03047675408842304,-0.4065876565228794
1.3172073520393766,7.1874485281289715,-0.00729452982644475,0.01889028509062625,-0.2579219501399913
1.3161945002704383,7.185066919630657,-0.003959378717313585,0.007572031557294268,-0.1089600666451511
