x,y,v_x,v_y,omega
2.375,32.48,0.0,3.7948717948717947,-4.448979591836735
2.3739554300481243,31.805582265009335,-0.011606332798620533,3.6986585939133327,-4.1364297660381
2.3709906910724747,31.148093115683675,-0.021335211375263174,3.6067763985940164,-3.8569838795952816
2.366417421149571,30.506780590230846,-0.02947889887922029,3.5189183286596313,-3.6061281525499824
2.360499081025382,29.880945292608253,-0.036280435833993555,3.4348072004802925,-3.3800732351357605
2.3534589963154255,29.26993538601999,-0.04194272760996678,3.3541917616114936,-3.17562241266283
2.345486929163405,28.673142209462856,-0.04663579630137212,3.2768435334678023,-2.990066457338852
2.336744473392392,28.089996418753366,-0.05050260115432799,3.2025541410821075,-2.82109921165807
2.3273695031384887,27.51996457268821,-0.053663735000154256,3.1311330374196085,-2.666749418193101
2.31747985606007,26.962546099767707,-0.05622123253782768,3.062405550585968,-2.525325366408255
2.307176394584969,26.417270592416585,-0.05826167274107457,2.9962111977598234,-2.395369714115369
2.2965455594874182,25.883695384698918,-0.05985871723171105,2.9324022213253604,-2.2756224330686887
2.2856615073242823,25.36140337674083,-0.06107519569202045,2.8708423115422628,-2.164990276963096
2.274587905389891,24.850001074879984,-0.06196482580121754,2.811405486911638,-2.062521512927611
2.2633794437399795,24.349116821274517,-0.06257363697557791,2.75397510870464,-1.9673849213335408
2.2520831126374503,23.85839919056467,-0.06294115305252414,2.6984430102936994,-1.8788522729354766
2.2407392848414664,23.377515534366736,-0.06310137801396154,2.644708725238872,-1.7962836514332972
2.229382635004944,22.906150657029077,-0.06308362016962057,2.5926788007351136,-1.7191151141669374
2.2180429226860334,22.44400560829767,-0.06291318337383359,2.5422661851694106,-1.646848281818688
2.2067456608247316,21.9907965804071,-0.06261194841840659,2.493389680281384,-1.5790415257128099
2.1955126877594915,21.546253898695124,-0.062198863417594404,2.4459734498516728,-1.5153024831263868
2.1843626577833564,21.11012109618635,-0.06169035853946469,2.3999465780235885,-1.455281680434275
2.1733114627256747,20.68215406374319,-0.06110069765699728,2.3552426713448735,-1.3986670835712027
2.1623725949840824,20.26212026837287,-0.06044227724958301,2.311799499436454,-1.3451794272625592
2.151557460735294,19.84979803313402,-0.059725881070290775,2.269558669884112,-1.294568200347398
2.1408756506531934,19.444975872826674,-0.058960897619711725,2.2284653335308406,-1.2466081855359956
2.1303351743035392,19.04745188029318,-0.058155506265337116,2.188467916841285,-1.2010964690835326
2.1199426634220204,18.65703315871874,-0.057316836862645895,2.1495178784302964,-1.1578498498869743
2.1097035484808706,18.273535295811335,-0.05645110692791072,2.1115694872075115,-1.1167025890291127
2.0996222122799093,17.896781876171758,-0.05556373974943384,2.074579619898934,-1.077504450281992
2.089702123737568,17.526604028543293,-0.05465946627658144,2.0385075759728872,-1.0401189899239203
2.0799459545871013,17.162840004965208,-0.053742413173050826,2.003314908228053,-1.004422060725655
2.070355681287479,16.805334789149583,-0.052816179044971524,1.9689652675011344,-0.9703005003674388
2.060932674124673,16.45393973166318,-0.05188390054176081,1.9354242601255365,-0.9376509790569175
2.0516777751968984,16.108512209728712,-0.05094830976684929,1.9026593169241142,-0.9063789848882431
2.0425913667383235,15.768915309666887,-0.050011784217317404,1.8706395726517249,-0.8763979286442534
2.0336734310327818,15.435017530185466,-0.04907639028870043,1.8393357549196478,-0.8476283524018454
2.024923602996309,15.106692504886439,-0.048143921227659286,1.8087200817361992,-0.819997228541377
2.016341216360088,14.783818742510267,-0.04721593028591366,1.7787661668879549,-0.793437337654447
2.0079253442595806,14.466279383568455,-0.04629375971972117,1.7494489324655225,-0.767886715448407
1.9996748349279836,14.153961972134823,-0.045378566186913265,1.720744527908166,-0.7432881601079162
1.9915883430997838,13.846758241672735,-0.04447134301530447,1.6926302550039403,-0.71958879273296
1.9836643576509159,13.544563913872015,-0.04357293974989557,1.6650844983373803,-0.6967396644614297
1.9759012259337432,13.247278509556306,-0.042684079329802234,1.6380866607260518,-0.6746954047295091
1.9682971752062688,12.954805170800157,-0.041805373197689205,1.611617103231178,-0.6534139058471123
1.9608503315041736,12.667050493466345,-0.040937334603369686,1.585657089366746,-0.6328560396871113
1.9535587362603457,12.38392436943835,-0.040080390328050344,1.560188733166542,-0.6129854028216872
1.9464203609385216,12.105339837881367,-0.039234891025552776,1.5351949507999327,-0.5937680868998846
1.9394331199146355,11.831212944918391,-0.038401120350959654,1.5106594154553579,-0.5751724714583201
1.93259488181081,11.561462611156191,-0.03757930302487694,1.486566515235761,-0.5571690367012184
1.9259077626723071,11.296011303447088,-0.036722020736269664,1.462892459309821,-0.5385020130402428
1.9193732271598358,11.034784073651373,-0.03588392940229961,1.4396323161981384,-0.520617473786695
1.912987846825942,10.777707652787111,-0.0350647409742971,1.4167723600714552,-0.5034738910473028
1.9067482471458101,10.524711190782124,-0.034264144360502166,1.3942994399839512,-0.48703235667621453
1.900651111276561,10.275726155730599,-0.03348180974226727,1.3722009494774436,-0.47125639054408874
1.8946931830892337,10.030686238449356,-0.032717392339145945,1.350464798091934,-0.4561117647191086
1.88887126956664,9.789527262003148,-0.03197053568967136,1.3290793846437168,-0.4415663420862472
1.8831822426489944,9.552187095892275,-0.031240874506391427,1.3080335721437406,-0.4275899280814848
1.8776230405993302,9.318605574617798,-0.03052803715654568,1.2873166642393177,-0.4141541343513224
1.8721906689520258,9.088724420359803,-0.02983164781350235,1.266918383071735,-0.40123225326685663
1.8668822011001367,8.862487169522765,-0.029151328318599127,1.2468288484509227,-0.38879914232763874
1.861694778570521,8.63983910291913,-0.02848669978824411,1.2270385582561627,-0.37683111758505744
1.856625611029854,8.42072717937797,-0.02783738399694371,1.207538369978961,-0.3653058552994035
1.851671976059436,8.205099972580097,-0.027203004563253783,1.1883194833307156,-0.35420230112025747
1.8468312187321243,7.992907610934395,-0.02658318796243241,1.1693734238437556,-0.3435005861474132
1.8421007510206981,7.784101720322479,-0.02597756438674868,1.1506920273997672,-0.33318194929011136
1.8374780510634179,7.5786353695502875,-0.025385768471922036,1.1322674256245864,-0.3232286653966872
1.832960662309406,7.3764630183557145,-0.024807439905986894,1.1140920320928969,-0.31362397867553876
1.8285461925637208,7.177540467831204,-0.02424222393496022,1.096158529290541,-0.30435204097219737
1.8242323129495541,6.981824813129318,-0.023689771778002192,1.07845985628598,-0.2953978545067734
1.8200167568028394,6.789274398327645,-0.023149740963273848,1.060989197065955,-0.28674721871163034
1.81589731851265,6.599848773337282,-0.02262179559438558,1.0437399694936285,-0.27838668084122775
1.8118718523190993,6.413508652746316,-0.02210560655617507,1.0267058148504529,-0.27030349005504173
1.8079382710789655,6.230215876496459,-0.02160085166753377,1.009880587925752,-0.2624855547006473
1.8040945450079584,6.049933372297296,-0.021107215788100833,0.993258347620512,-0.2549214025477217
1.8003429541638272,5.872844027019628,-0.02057712692446998,0.9744010443535769,-0.2959038998173005
1.7966827047106733,5.699139889707585,-0.020092311443906843,0.9556449257802372,-0.33799842018024434
1.7931057844253393,5.52880297182924,-0.019651247282025833,0.9369874950902743,-0.3811062499734076
1.7896044558156476,5.3618157256239165,-0.019252403936770957,0.9184263516355522,-0.42512995080948957
1.7861712574230197,5.198161027000165,-0.01889424487020452,0.8999591886283471,-0.4699731438343625
1.7827990047195525,5.037822158817455,-0.01857522961276654,0.8815837911795379,-0.51554029438139
1.7794807906516317,4.880782794490212,-0.018293815586354064,0.8632980346787329,-0.5617364960609121
1.7762099858794458,4.727026981852216,-0.018048459660153924,0.8450998835212086,-0.6084672532932294
1.7729802387594622,4.5765391272182505,-0.017837619450776134,0.8269873901895214,-0.6556382612551289
1.7697854751150655,4.4293039795781155,-0.017659754375853782,0.8089586947008826,-0.7031551821626506
1.76661989783913,4.2853066148558945,-0.017513326467874145,0.7910120244349069,-0.7509234167556728
1.763477986371291,4.144532420164332,-0.017396800952557943,0.7731456943602172,-0.7988478697821702
1.7603544960921385,4.006967077980473,-0.017308646593580702,0.755358107682672,-0.8468327082007172
1.7572444576764643,3.8725965501641824,-0.017247335802801418,0.7376477569427738,-0.8947811107278926
1.7541431764480966,3.7414070617357673,-0.0172113445123954,0.7200132255951787,-0.9425950072514788
1.75104623177977,3.613385084322367,-0.017199151802343614,0.7024531901092886,-0.9901748065094047
1.7479494765829378,3.488517319175223,-0.01720923927356904,0.6849664226367742,-1.037419110296773
1.7448490369344938,3.3667906796509435,-0.01724009015358648,0.6675517942996843,-1.084224412307469
1.7417413118900695,3.248192273039418,-0.01729018811779492,0.6502082791617213,-1.1304847795410828
1.738622973536979,3.132709381608869,-0.017358015805434383,0.6329349589554748,-1.176091514008461
1.735490967344068,3.020329442724364,-0.01744205300468774,0.6157310286501253,-1.220932792248444
1.7323425128707735,2.911040027879668,-0.017540774476360082,0.5985958029576145,-1.2648932799226755
1.7291751049037072,2.8048288204633103,-0.017652647379931403,0.5815287238907998,-1.3078537184834977
1.7259865150961622,2.7016835920576874,-0.01777612825945909,0.5645293695050058,-1.3496904806111993
1.7227747941942382,2.601592177044484,-0.017909659539697954,0.547597463975018,-1.390275090791441
1.7195382749429347,2.504542445260231,-0.018051665474784647,0.5307328891833506,-1.42947370705325
1.7162755757767558,2.410522272411658,-0.018200547482758227,0.5139356980230116,-1.4671465595165005
1.7129856054123072,2.3195195079211324,-0.018354678788895025,0.49720612964947875,-1.5031473410126466
1.7096675684752847,2.231521939826937,-0.018512398289129747,0.4805446269526823,-1.5373225446560996
1.7063209723114294,2.146517256310709,-0.01867200353148592,0.46395185656095755,-1.5695107428759993
1.7029456351507606,2.0644930033640208,-0.018831742698168164,0.4474287317355773,-1.5995418021001324
1.6995416958171166,1.9854365380368044,-0.01898980545343124,0.4309764385668431,-1.6272360270613835
1.696109625201119,1.9093349766311256,-0.019144312502097777,0.4145964659406991,-1.652403228642694
1.6926502397447236,1.836175137113763,-0.019293303680072742,0.39829063980775803,-1.6748417093934294
1.6891647172201614,1.7659434749193075,-0.01943472437061932,0.38206116235285037,-1.6943371614922649
1.6856546151261376,1.6986260112018954,-0.019566410007424002,0.36591065672948836,-1.7106614732254866
1.682121892070729,1.6342082524686603,-0.0196860683860029,0.3498422180842198,-1.7235714423269193
1.6785689325649114,1.5726751003933934,-0.019791259456414516,0.3338594716409614,-1.7328073982731838
1.6749985757150325,1.5140107504690974,-0.019879372208906204,0.3179666386290139,-1.7380917415593415
1.6714141483796423,1.458198578020955,-0.019947598184318894,0.3021686107947756,-1.7391274171426327
1.6678195034500225,1.405221009980849,-0.01999290103367964,0.2864710340952882,-1.7355963531749339
1.6642190640308447,1.3550593807441977,-0.02001198140162996,0.2708804018675104,-1.727157917111207
1.660617874447426,1.3076937704280454,-0.020001236191909598,0.2554041572008442,-1.7134474726118123
1.6570216592046645,1.2631028239867454,-0.019956710949883646,0.24005080325803899,-1.6940751672474068
1.653436891295167,1.2212635500144913,-0.019874043600091026,0.22483001865590313,-1.6686251500448337
1.6498708716417323,1.1821510988215493,-0.019748396993627067,0.20975277237679302,-1.6366555198407757
1.6463318220307745,1.1457385207420607,-0.019574376461460347,0.1948314285064116,-1.5976994552988408
1.6428289947628487,1.111996507960825,-0.019345926515493567,0.1800798246184417,-1.5512681965228141
1.6393728036061033,1.0808931269438098,-0.019056197448343613,0.16551329779284332,-1.496856865232501
1.6359749828108359,1.0523935545485266,-0.018697366943514926,0.1511486177102922,-1.4339545615974432
1.6326487844705206,1.0264598400530573,-0.018260392393322725,0.1370037655727111,-1.362060799251208
1.6294092303032883,1.0030507288512318,-0.017734653909256763,0.12309747000312674,-1.2807111569129401
1.6262734434797776,0.9821216024748409,-0.017107421907529875,0.10944837862343297,-1.1895159874097676
1.6232611018912237,0.9636246139008122,-0.016363040187514694,0.09607371664353619,-1.0882168912212735
1.6203950801800464,0.9475091232745427,-0.01548164549223139,0.08298729031501496,-0.9767657340485696
1.6177023902923495,0.9337225550028485,-0.01443713103773642,0.07019680159270297,-0.855428641329193
1.6152156002126252,0.9222117719085965,-0.013193869848088246,0.05770078834341859,-0.7249095023213056
1.6129750315557114,0.9129249317351054,-0.01170133745095386,0.04548632469538227,-0.5864695371778161
1.611032280742449,0.9058134406959724,-0.009884782696405059,0.03353024240610697,-0.4419887928294298
1.6094562635580538,0.9008328381572461,-0.007626519352430174,0.021809785801964472,-0.293880738352746
1.6083455071106987,0.8979395116613809,-0.004715218951518318,0.010338286374317338,-0.14476152368330086
1.6078669541936834,0.8970702569626212,-0.0006020356819831417,-0.0006799008325383271,0.003112007549892243
