x,y,v_x,v_y,omega
2.375,32.48,0.0,2.3076923076923075,-7.510204081632653
2.3740445443499043,32.06849020937957,-0.010616173889950797,2.264638699201345,-7.165966188010427
2.371283181005574,31.66461503832947,-0.02006564104705076,2.2228632013553016,-6.844420588186884
2.3669151282858554,31.26815072184663,-0.028468278060936325,2.182295870676264,-6.543545149314858
2.3611192599906894,30.878885565121184,-0.03593025855201892,2.142872537384226,-6.261538522748181
2.3540564098197745,30.496618964241463,-0.04254585445814843,2.1045341390571366,-5.996791714823245
2.345871376252327,30.121160538064366,-0.04839896295793625,2.0672261517994936,-5.747863903796904
2.336694672928241,29.75232935521159,-0.053564407309684016,2.030898102120225,-5.51346177633207
2.326644061753053,29.389953242882797,-0.058109050192406406,1.9955031459774892,-5.292421797565385
2.3158258996797314,29.03386816638377,-0.062092750622276,1.960997704011712,-5.083694939074901
2.3043363250556173,28.683917670061057,-0.06556918964565822,1.9273411440184152,-4.886333476193986
2.2922623053029363,28.339952371799743,-0.06858658538413283,1.8944955033295108,-4.699479535439972
2.2796825643281555,28.00182950444408,-0.07118831433565234,1.8624252450667622,-4.522355128349451
2.2666684052768065,27.66941249849344,-0.07341345290155893,1.831097043273666,-4.354253452763262
2.2532844419483604,27.34257060124902,-0.07529725074784299,1.8004795927754467,-4.194531278886986
2.2395892502683528,27.021178528272007,-0.07687154569668447,1.7705434403024753,-4.0426022670346
2.225635949609893,26.705116143587276,-0.07816512828620169,1.7412608339723032,-3.8979310882087495
2.2114727224067763,26.394268165548144,-0.07920406285954226,1.7126055886847276,-3.760028238642794
2.1971432793600907,26.08852389568389,-0.08001197099251602,1.6845529653625635,-3.6284454559583685
2.182687276572958,25.787776968195725,-0.08061028219785037,1.6570795622836683,-3.5027716583323247
2.1681406901244165,25.491925118059335,-0.08101845611927826,1.6301632170095643,-3.3826293395372447
2.1535361528896346,25.200869965941543,-0.08125417982274247,1.6037829176325955,-3.267671362333428
2.1389032578100884,24.914516818352578,-0.08133354328332477,1.5779187222447841,-3.1575781007784007
2.1242688312981923,24.632774481639007,-0.08127119573774401,1.5525516856837698,-3.052054888849075
2.1096571800129422,24.355555088580914,-0.08108048520948088,1.527663792739505,-2.950829738557331
2.095090313855592,24.082773936494107,-0.08077358320552151,1.503237897113897,-2.8536512956572806
2.080588147698185,23.814349335857266,-0.08036159632122464,1.4792576655176843,-2.7602870052349378
2.0661702052377957,23.550210921102288,-0.07983776434976184,1.455613609537612,-2.6677038169964673
2.0518525298906467,23.290290693062907,-0.07924751728522839,1.4323889242332697,-2.5790302413518194
2.037646436965538,23.034514457013863,-0.07859795966042406,1.409569254089441,-2.4940568814644957
2.023562020061373,22.78281054486544,-0.07789556149696622,1.3871408808930414,-2.41258770116161
2.009608260120989,22.53510970376533,-0.07714621561841109,1.3650906868860024,-2.334439032188477
1.9957931246635776,22.29134499109653,-0.0763552894639378,1.343406120545078,-2.2594386655801975
1.9821236581343586,22.051451675418853,-0.07552767197182639,1.3220751647624494,-2.187425019130786
1.9686060642134797,21.81536714294008,-0.07466781603794201,1.3010863072238985,-2.1182463737920374
1.95524578084022,21.58303080913779,-0.0737797769982774,1.2804285128015647,-2.051760172585998
1.9420475486322026,21.35438403518399,-0.07286724753524768,1.2600911977962181,-1.9878323762794676
1.9290154733112725,21.12937004885314,-0.07193358936397526,1.2400642058798856,-1.9263368706575077
1.9161530826870317,20.907933869619608,-0.07098186201647834,1.2203377856038014,-1.867154920755029
1.9034633786948445,20.690022237673833,-0.07001484900782372,1.2009025693492539,-1.8101746678693649
1.8909488849366884,20.47558354660749,-0.06903508163835599,1.1817495536101408,-1.7552906655894867
1.878611690129874,20.264567779537025,-0.06804486065958142,1.1628700805060954,-1.7024034514453061
1.8664534878298147,20.056926448452412,-0.06704627600774359,1.1442558204340596,-1.6514191511087264
1.8544756127581787,19.852612536593664,-0.06604122478821416,1.1258987557742555,-1.6022491123713967
1.8426790740364698,19.65158044367234,-0.0650314276752175,1.1077911655737764,-1.5548095663865693
1.8310645855969647,19.453785933768323,-0.06401844387483835,1.0899256111375604,-1.509021313897595
1.8196325940176257,19.259186085744325,-0.06300368478448619,1.0722949224624057,-1.4648094343865303
1.8083833040048298,19.067739246031756,-0.06198842646879893,1.0548921854550248,-1.4221030162657957
1.7973167017272218,18.87940498365161,-0.06097382106018009,1.0377107298799453,-1.3808349064061975
1.7864325761854603,18.694144047343542,-0.059960907181616285,1.0207441179874397,-1.3409414774480095
1.7757305387859168,18.511918324684867,-0.05895061947997593,1.00398613377563,-1.302362411480062
1.7652100412712621,18.332690803089054,-0.057943797349521854,0.9874307728445055,-1.2650404987965214
1.7548778976975703,18.156668341710844,-0.056857797913718915,0.9683743535800498,-1.2815714252757469
1.7447375811798722,17.984065803957414,-0.05581238561625931,0.9494316214580545,-1.299743966961556
1.7347818827266965,17.814862987690447,-0.054806486085693724,0.93059967039713,-1.3194340898837598
1.7250037913237164,17.649040202402695,-0.05383897394741596,0.911875721689016,-1.3405199214422052
1.7153965026573428,17.486578246604097,-0.05290867790118108,0.8932571205176424,-1.3628814795159823
1.7059534269659409,17.32745838579305,-0.052014385336616606,0.8747413329384061,-1.3864004050940584
1.696668196099285,17.17166233093026,-0.05115484651511689,0.8563259433148067,-1.4109596972921377
1.6875346698620035,17.01917221733276,-0.05032877834356487,0.8380086522129825,-1.4364434496150666
1.678546941712459,16.86997058390535,-0.04953486776248745,0.8197872747582305,-1.4627365863105366
1.6696993438846701,16.724040352625593,-0.0487717747684975,0.8016597394613268,-1.4897245976379812
1.660986451997569,16.581364808196696,-0.048038135088184046,0.783624087526424,-1.5172932728462516
1.652403089213016,16.441927577780227,-0.04733256251795993,0.7656784726565605,-1.5453284296146224
1.6439443300016432,16.30571261071717,-0.046653650941738595,0.7478211613774157,-1.5737156386636681
1.6356055035736767,16.172704158141755,-0.04599997603566545,0.7300505339049582,-1.6023399421852855
1.6273821970304865,16.04288675238738,-0.0453700966664476,0.7123650855881345,-1.6310855646743525
1.6192702582916687,15.916245186077703,-0.04476255598708321,0.6947634289638088,-1.6598356146680109
1.6112657988520451,15.792764490788851,-0.04417588223095816,0.6772442964678814,-1.6884717758122365
1.6033651964230498,15.672429915159885,-0.043608589202323154,0.6598065438539829,-1.7168739855792834
1.5955650975136157,15.555226902318875,-0.04305917645805443,0.6424491543794705,-1.7449200998540986
1.5878624200068838,15.441141066480224,-0.04252612917229896,0.6251712438277583,-1.7724855414936471
1.580254355790891,15.330158168555549,-0.04200791767206858,0.6079720664464217,-1.799442930841572
1.572738373503882,15.222264090605076,-0.041502996628030545,0.5908510218921592,-1.8256616960539067
1.5653122214581061,15.117444808938977,-0.041009803880590674,0.5738076632867096,-1.8510076609629822
1.5579739308099394,15.015686365657963,-0.04052675887681753,0.5568417065023324,-1.8753426080812072
1.5507218190490393,14.91697483839971,-0.04005226068873925,0.5399530408115932,-1.8985238142313252
1.5435544938850354,14.821296308031805,-0.03958468557796991,0.523141741054026,-1.92040355619553
1.5364708576171338,14.728636824002681,-0.03912238406538234,0.5064080814918087,-1.9408285837173551
1.529470112080074,14.638982367029115,-0.038663677457503084,0.4897525515478185,-1.959639557188531
1.522551764269303,14.55231880876202,-0.0382068537732878,0.47317587364211544,-1.9766704474375252
1.515715632759193,14.468631868031238,-0.03775016300571242,0.45667902336659094,-1.9917478952484198
1.50896185504091,14.38790706322472,-0.03729181164187556,0.4402632522614081,-2.004690528635547
1.5022908959214052,14.310129660308025,-0.03682995635262374,0.42393011347962695,-2.015308236560787
1.495703557142396,14.235284615936724,-0.03636269674747977,0.4076814906459219,-2.0234013988177204
1.4892009883986415,14.163356515058044,-0.03588806707201456,0.39151963022828473,-2.0287600733743614
1.482784699959025,14.094329502340624,-0.03540402670149831,0.3754471777430641,-2.0311631447788034
1.4764565771229536,14.028187206715096,-0.03490844925485174,0.3594672180961469,-2.030377440588705
1.4702188967797716,13.964912658258054,-0.03439911011383777,0.3435833203154179,-2.0261568276023647
1.4640743463823305,13.904488196614473,-0.03387367207995097,0.3277995868354873,-2.0182413065260727
1.4580260457004979,13.846895370139478,-0.03332966882930286,0.3121207073311077,-2.0063561334174467
1.4520775717906647,13.792114824965346,-0.032764485724398065,0.2965520168259032,-1.9902110099225505
1.4462329877097955,13.740126183287018,-0.032175337396371476,0.2810995573777341,-1.969499403539518
1.4404968756271765,13.690907910343999,-0.03155924129939442,0.2657701419891385,-1.9438980860587147
1.4348743751589281,13.644437169908205,-0.030912986125585573,0.2505714184085775,-1.9130670159291374
1.4293712279926547,13.600689668638502,-0.03023309349967506,0.23551192903256568,-1.8766497426391724
1.4239938302179453,13.5596394905361,-0.02951577066376289,0.22060116099413238,-1.834274583701548
1.4187492942877016,13.521258924074385,-0.028756850783389857,0.20584957746936278,-1.7855569245392258
1.4136455232902243,13.485518286578944,-0.027951715855245314,0.1912686169243973,-1.7301031271614917
1.4086913013434446,13.452385753357635,-0.027095194664531027,0.17687064109015038,-1.6675167146793213
1.403896405631646,13.421827203248782,-0.02618142435545201,0.1626688045637938,-1.5974077338997494
1.3992717481983532,13.393806098024807,-0.025203658236692607,0.14867680903592245,-1.519406489025466
1.3948295595498794,13.368283420755777,-0.024153993413015645,0.13490849395330698,-1.4331831677940927
1.3905836321007112,13.345217707803275,-0.023022978244409062,0.12137720551891545,-1.3384751833550033
1.3865496505088806,13.324565219768822,-0.021799039442598596,0.10809488375279992,-1.2351241719203894
1.3827456494544708,13.306280305825808,-0.0204676389397313,0.0950708267251445,-1.1231241814784487
1.3791926595373893,13.290316017163775,-0.01901002680561858,0.08231015840857231,-1.0026810364655123
1.3759156322246253,13.276625006138932,-0.017401387780646597,0.06981218631190189,-0.8742791839421683
1.3729447826088035,13.265160685761725,-0.015608052395152533,0.05756915121263677,-0.7387453739126795
1.3703175750285366,13.255878484038895,-0.013583142941147602,0.045566423485477396,-0.5972879411921527
1.3680817710882696,13.248736754630603,-0.01125912306181942,0.0337861254955361,-0.4514787610538896
1.36630052500648,13.243696371999143,-0.008532500069177437,0.0222181259651322,-0.30313952310848347
1.3650626684586955,13.240716625588302,-0.0052214615728727225,0.010890167488643597,-0.1541048738284067
1.364514546361022,13.239737158301875,-0.0008687839568339815,-7.19763944242828e-06,-0.005924871839946361
