x,y,v_x,v_y,omega
2.375,32.48,0.0,2.41025641025641,-7.26530612244898
2.3737662176951537,32.00285113274066,-0.01233782304846083,2.361232262336943,-6.888327848212634
2.3702153208644714,31.535339848723904,-0.023171145258365285,2.3138805778306333,-6.540012455302085
2.364630788827866,31.07714185017986,-0.0326741751076878,2.2680994076098164,-6.217453061244469
2.357263497200735,30.6279522933986,-0.04099874116362269,2.2237961602027743,-5.918100716562331
2.3483358655553332,30.187484037171565,-0.048277575290393226,2.1808864020675665,-5.639712763711131
2.3380454038601397,29.75546611163598,-0.05462704166154172,2.139292853288307,-5.380309786980249
2.3265677577879287,29.33164237218814,-0.060149419060571974,2.098944541190081,-5.138139524133603
2.314059333857551,28.915770309823245,-0.06493482024320645,2.059776082458848,-4.911646458712577
2.3006595704056774,28.50761999452422,-0.06906281427552836,2.0217270705314165,-4.699446077330698
2.2864929085612404,28.106973132493515,-0.07260380416883667,1.9847415497756162,-4.500302980529483
2.2716705079761086,27.713622221349308,-0.07562020168248214,1.9487675616664737,-4.313112194319024
2.256291744502059,27.327369790078606,-0.07816743305801263,1.9137567510405258,-4.1368831536263135
2.2404455208860985,26.948027712697595,-0.08029480310159716,1.8796640227696064,-3.9707259267525363
2.2242114165736178,26.575416586322543,-0.08204624002320936,1.8464472409809052,-3.813839327692058
2.2076606986255123,26.209365165787503,-0.08346093945784527,1.8140669643694989,-3.6655006253441433
2.1908572123893943,25.849709848122117,-0.08457392290333335,1.7824862122843697,-3.5250566086852753
2.1738581677754487,25.496294201175566,-0.08541652323612083,1.7516702571811649,-3.3919158074731857
2.1567148346640193,25.14896853148023,-0.08601680787817617,1.7215864397721663,-3.265541701020704
2.139473159027855,24.80758948712274,-0.08639994848346723,1.6922040038027406,-3.145446774549398
2.122174309718181,24.472019691955232,-0.08658854461326837,1.6634939478723525,-3.0311873048072284
2.104855164485335,24.14212740795608,-0.08660290771519806,1.6354288921191527,-2.92235877494773
2.0875487426374155,23.817786222952407,-0.08646131076399552,1.6079829579175573,-2.8185918338579383
2.0702845907484857,23.49887476125948,-0.08618020812530074,1.5811316590117526,-2.719548727772206
2.053089126982201,23.18527641508475,-0.08577442953754362,1.554851802735497,-2.624920142584211
2.0359859488736562,22.87687909479535,-0.08525735154790579,1.5291214001585276,-2.5344224041421186
2.0189961087921366,22.57357499636358,-0.0846410492672923,1.5039195841591682,-2.4477949912815706
2.002138360774297,22.275260384491975,-0.08393643091110053,1.4792265345568656,-2.3647983226602167
1.9854464935677345,21.981844030640396,-0.08298224115452565,1.4549370039589522,-2.279966745535898
1.968949893048682,21.6932379209886,-0.08198376403600101,1.431124092558964,-2.1990126406216217
1.9526567704695548,21.409348465174187,-0.08094746175527014,1.4077704655852015,-2.1217125410545545
1.9365741107150014,21.130085457638977,-0.07987913579026447,1.3848596097668793,-2.047858321231486
1.9207077978361577,20.85536191833454,-0.07878399299817147,1.3623757832774868,-1.9772559735551885
1.905062728056894,20.585093943065694,-0.07766670479446623,1.3403039694109713,-1.9097244961045619
1.8896429115590938,20.31920056275888,-0.07653146018353375,1.3186298336572086,-1.8450948799528515
1.874451564208587,20.05760361100534,-0.0753820133215358,1.2973396838781728,-1.7832091861294075
1.8594911902553073,19.80022759928583,-0.07422172621126187,1.27642043331694,-1.7239197033339868
1.8447636569283652,19.546999599334256,-0.07305360705815771,1.2558595661987675,-1.6670881784898295
1.8302702617470383,19.29784913214364,-0.07188034475510977,1.2356451057074251,-1.612585113080923
1.8160117932805613,19.052708063158782,-0.07070433990966163,1.215765584141172,-1.5602891189755683
1.8019885860115843,18.811510503237507,-0.06952773278010695,1.196210015071588,-1.510086328105918
1.7882005698890282,18.574192714995824,-0.06835242844545557,1.1769678673452153,-1.4618698509630383
1.7746473150946982,18.340693024183015,-0.06718011949784379,1.158029040782887,-1.4155392793891033
1.7613280724935236,18.11095173576023,-0.06601230651390277,1.139383843444937,-1.3710002296110682
1.7482418101887984,17.884911054381497,-0.06485031653334915,1.1210229703424095,-1.328163921870926
1.73538724656065,17.66251500899875,-0.063695319748135,1.1029374834850645,-1.286946793372804
1.7227628801274895,17.443709381333584,-0.06254834458347187,1.08511879316657,-1.2472701415921998
1.7103670165358857,17.22844163797734,-0.06141029133256378,1.0675586403958877,-1.2090597952824031
1.698197792953666,17.016660865898587,-0.06028194448963376,1.050249080391637,-1.172245810771759
1.686253200113649,16.8083177111531,-0.0591639839105352,1.0331824670632226,-1.1367621913765513
1.674531102230929,16.603364320605895,-0.05805699491666588,1.0163514384088503,-1.1025466279610896
1.663029254994678,16.401754286488384,-0.056961477445843865,0.9997489027662776,-1.0695402588618628
1.6517453218157856,16.203442593626022,-0.05587785434307951,0.9833680258573491,-1.0376874475588027
1.6406864740042972,16.008584237485685,-0.05471062377180514,0.9652155355460268,-1.046217432470635
1.6298567884949757,15.817344379787816,-0.053586231321410216,0.9471830414326717,-1.0568149960532178
1.6192477761206046,15.629699355543302,-0.05250389242230003,0.9292672010124687,-1.069351056330659
1.6088511120382205,15.445626154082131,-0.051462748401539166,0.9114648135992469,-1.0836998135120148
1.5986586498265307,15.265102391237082,-0.05046187371536091,0.8937728148512298,-1.0997384591195596
1.5886624341982516,15.088106282572166,-0.04950028256742939,0.8761882717979386,-1.1173468936215436
1.5788547124459038,14.914616617557265,-0.0485769349560495,0.8587083783510768,-1.136407451367536
1.5692279447313235,14.744612734593609,-0.047690742189751195,0.8413304512854816,-1.1568046316542324
1.5597748133216358,14.578074496797115,-0.04684057190712864,0.8240519266794563,-1.178424834770987
1.5504882308675767,14.414982268448465,-0.046025252633462625,0.8068703568070463,-1.2011561018874162
1.5413613478138832,14.255316892019948,-0.04524357790347127,0.7897834074781103,-1.2248878576502762
1.5323875590258869,14.099059665689595,-0.04449430997649346,0.772788855825422,-1.2495106543533743
1.5235605097114888,13.946192321252898,-0.04377618316748718,0.7558845885415542,-1.2749159165324693
1.5148741007133002,13.796697002341546,-0.04308790681439703,0.739068600571982,-1.3009956848167523
1.506322493241892,13.650556242856872,-0.04242816789968705,0.7223389942747633,-1.3276423578393541
1.497900113117811,13.507752945523261,-0.04179563334112274,0.7056939790613477,-1.3547484309711268
1.489601654587279,13.368270360463367,-0.041188951964194705,0.6891318715376039,-1.3822062305943614
1.4814220837742718,13.232092063692697,-0.04060675616588027,0.672651096169101,-1.4099076425757855
1.4733566418300126,13.099201935425778,-0.04004766327671195,0.6562501865001015,-1.4377438335307857
1.465400847839808,12.969584138079597,-0.03951027662533473,0.6399277869617168,-1.4656049633929877
1.4575505015465886,12.843223093852291,-0.03899318630685761,0.623682655311323,-1.4933798877148512
1.4498016859505722,12.720103461745886,-0.03849496965330655,0.6075136657527399,-1.520955848025682
1.4421507698451084,12.600210113891116,-0.03801419140133071,0.5914198127949584,-1.548218148463518
1.4345944103500792,12.483528111019972,-0.037549403548962364,0.5754002159164825,-1.5750498167771705
1.4271295555062187,12.370042676917048,-0.03709914488964156,0.5594541251127673,-1.6013312476652355
1.4197534469964708,12.25973917166418,-0.03666194020783906,0.5435809274159357,-1.6269398262818542
1.4124636230640477,12.152603063473677,-0.03623629911639241,0.5277801544890904,-1.6517495295971547
1.405257921701304,12.04861989888354,-0.035820714511045466,0.5120514914122662,-1.6756305031579741
1.3981344841889416,11.947775271062962,-0.03541366061257753,0.4963947867935284,-1.69844861065808
1.3910917590715601,11.850054785947904,-0.03501359056123577,0.4808100643570511,-1.7200649536061672
1.384128506663253,11.755444025894171,-0.03461893352183613,0.4652975361802735,-1.7403353582880967
1.3772438041859956,11.6639285104987,-0.03422809125073881,0.44985761777443606,-1.7591098271767702
1.3704370516541453,11.575493654198574,-0.033839434067763755,0.434490945226806,-1.776231951976505
1.3637079786306925,11.490124720211057,-0.033451296166764885,0.4191983946483577,-1.791538285638087
1.3570566519952432,11.40780677032653,-0.033061970187728607,0.403981104196904,-1.8048576710011215
1.3504834848804215,11.32852461000969,-0.032669700960489156,0.3888404989714828,-1.8160105242895004
1.3439892469528847,11.252262728202819,-0.03227267831487972,0.3737783190972409,-1.8248080726126417
1.3375750762380436,11.179005231159291,-0.03186902883353179,0.3587966513380259,-1.8310515460622747
1.3312424927146522,11.108735769567328,-0.03145680640038164,0.3438979645816045,-1.8345313271559567
1.3249934139377697,11.041437458155912,-0.031033981368444624,0.3290851495325715,-1.8350260635644278
1.318830172987737,10.977092786911694,-0.030598428131881968,0.3143615629096165,-1.8323017546918028
1.312755539090976,10.915683522984683,-0.03014791083572905,0.29973107636048607,-1.826110829347441
1.3067727413188386,10.857190602333088,-0.029680066885644448,0.28519813015546963,-1.8161912412879586
1.3008854958482665,10.801594010171254,-0.029192387820075102,0.2707677914628602,-1.8022656229857335
1.2950980373699144,10.74887264936542,-0.028682196963446285,0.2564458165954765,-1.7840405572355293
1.289415155366747,10.699004196108834,-0.028146623068226927,0.24223871597038252,-1.7612060534357319
1.2838422361759436,10.651964942558212,-0.027582568839807347,0.22815381953585057,-1.7334353537623308
1.278385312015529,10.607729626710967,-0.026986672764337766,0.21419933893659326,-1.7003852483799626
1.273051118545398,10.566271250767635,-0.02635526193697106,0.20038442049672567,-1.661697154246278
1.2678471631040416,10.52756089072674,-0.025684292476594227,0.1867191799122308,-1.6169993167867884
1.2627818066169423,10.491567502236183,-0.02496927239439857,0.17321470499332398,-1.5659106375570442
1.2578643634657873,10.458257731091269,-0.024205159117150488,0.15988300645582063,-1.508046825166469
1.2531052255813364,10.427595741622074,-0.023386219727359006,0.14673688823612846,-1.4430298214396784
1.2485160200509804,10.3995430829996,-0.022505835576201078,0.1337896979886199,-1.3705017729485292
1.2441098141862548,10.374058622592237,-0.021556223071056032,0.12105490608502087,-1.290145180585465
1.239901389135509,10.351098586936338,-0.02052802743640087,0.10854545047396562,-1.201711194841078
1.2359076140216363,10.330616763623386,-0.01940972370232704,0.09627278265556505,-1.1050581478399863
1.2321479690845634,10.312564928045202,-0.018186725668401238,0.08424557312629488,-1.0002019281423347
1.2286452911780537,10.296893559281607,-0.016840053396695167,0.07246811450965245,-0.88737796597334
1.225426852906304,10.283552882769417,-0.01534432932080197,0.06093865061224096,-0.7671102333221033
1.222525948144917,10.27249419405872,-0.013664718293067184,0.049648236494746485,-0.6402744656473754
1.2199842726265637,10.263671230939273,-0.011752036890466118,0.03858139469972745,-0.5081306176854791
1.2178556674798113,10.25704099415654,-0.009534014577057801,0.027720973127599982,-0.37228703141424735
1.216212674228123,10.252562660342278,-0.006895917939825977,0.017062365015028336,-0.23455529535699085
1.215161145660873,10.250190857616612,-0.0036193677326729306,0.006655662241641021,-0.09667287242285214
