x,y,v_x,v_y,omega
2.375,32.48,0.0,3.0769230769230766,-7.020408163265306
2.373566192309977,31.902066305966976,-0.015092712526555361,3.006589491845572,-6.59082028329294
2.369467320915178,31.33722855129415,-0.02805330215554197,2.9390710836578604,-6.200461578948581
2.3630810403319074,30.78496986355949,-0.0391707039841508,2.874178260917525,-5.844648971029302
2.3547341828166637,30.244807618048398,-0.04869095407104469,2.8117401128834336,-5.519367143048077
2.3447102320092688,29.716290130963138,-0.05682431758574114,2.751601856435084,-5.221158730051921
2.3332555688031884,29.19899379495832,-0.06375108458352975,2.6936227330893106,-4.947034993415283
2.320584715945866,28.6925205805246,-0.06962631391459913,2.6376742609498223,-4.694402688809444
2.306884760877728,28.19649584265288,-0.07458373943422084,2.5836387692788434,-4.461003836773739
2.2923191002675782,27.710566384351804,-0.078739003830512,2.5314081602061638,-4.244865849079843
2.277030621753659,27.23439873794503,-0.08219234894758565,2.48088285460197,-4.044260022300013
2.261144416525786,26.767677632347482,-0.0850308639773918,2.4319708885301248,-3.8576668333073094
2.2447700991168107,26.310104620225175,-0.08733037190656293,2.384587133809924,-3.6837467955141077
2.228003797034699,25.861396843456838,-0.08915701843145744,2.338652621646263,-3.5213158849343134
2.2109298618607904,25.421285918915636,-0.09056861497810359,2.294093952471637,-3.3693247399997026
2.1936223445655743,24.989516929483678,-0.09161577760311818,2.250842778391119,-3.226840991878671
2.1761462705958863,24.565847507556107,-0.0923428957620176,2.208835347162242,-3.093034202725667
2.158558744418651,24.15004700020449,-0.09278895873520056,2.1680120986442217,-2.967162985197619
2.1409099083973064,23.741895706740422,-0.09298826254211007,2.1283173062407297,-2.848563953245608
2.123243776918618,23.34118418072008,-0.09297101618092665,2.089698757131274,-2.7366422158217816
2.1055989634155208,22.947712589512243,-0.09276386279904289,2.0521074661091068,-2.630863174938158
2.0880093152164076,22.561290125458022,-0.09239032877056907,2.0154974186721946,-2.530745429941994
2.0705044688898564,22.181734463413676,-0.09187121150891514,1.9798253396893186,-2.4358546228427005
2.0531103368639374,21.80887126011403,-0.09122491507970612,1.9450504845174463,-2.3457980865280277
2.035849534514796,21.44253369134403,-0.0904677412270439,1.9111344499036669,-2.2602201799112924
2.0187417555868246,21.082562023376674,-0.08961414222529068,1.8780410023842837,-2.1787982123789265
2.001804102683068,20.728803215540207,-0.08867694097214648,1.8457359222100869,-2.1012388750898814
1.9850513786143291,20.38111055112649,-0.08766752290931597,1.81418686109218,-2.0272751092982575
1.968496343589825,20.03934329415553,-0.0865960036644099,1.7833632122863803,-1.956663352394655
1.9521499425475803,19.703366369774585,-0.08547137572764031,1.753235991723575,-1.889181111165522
1.9360215063394328,19.373050066300664,-0.08430163698970204,1.7237777290545326,-1.824624819156371
1.9201189299874941,19.04826975711703,-0.08309390355702002,1.6949623676152954,-1.7628079412399862
1.9044488308027234,18.728905640812027,-0.08185450891425065,1.6667651724373689,-1.7035592937347297
1.8890166887908348,18.414842498105255,-0.08058909121089207,1.6391626455286408,-1.6467215528542427
1.8738269714567704,18.10596946424484,-0.0793026702003135,1.6121324477388832,-1.5921499280321694
1.8588832448486583,17.802179815682646,-0.07799971514823599,1.5856533265999988,-1.5397109798642064
1.844188272449043,17.503370769943874,-0.07668420484771259,1.5597050495975855,-1.4892815651356663
1.829744103319729,17.209443297705207,-0.07535968072401314,1.5342683423884131,-1.4407478937310314
1.8155521507322148,16.92030194618303,-0.0740292938814018,1.5093248315292263,-1.394004684215079
1.8016132623645205,16.635854673011693,-0.07269584683117115,1.4848569913269452,-1.3489544065849746
1.7879386136900757,16.35601669026856,-0.07124782342614021,1.4608059849165622,-1.3021025711450882
1.7745374201563733,16.080706084456267,-0.0698173716654646,1.4372003920549568,-1.2573054361582519
1.7614062408029607,15.80983969233666,-0.06840556889677324,1.414024788151446,-1.214449183686447
1.7485414477734873,15.543337216496223,-0.0670133050976832,1.391264431221552,-1.1734274954212338
1.7359392598496748,15.281121099287457,-0.06564130462665906,1.3689052236075696,-1.1341409795078503
1.7235957720829063,15.023116403799133,-0.06429014554985146,1.3469336762695177,-1.0964966470524453
1.7115069819576307,14.769250701386337,-0.06296027682147133,1.3253368754441037,-1.060407433504685
1.6996688124712092,14.51945396532782,-0.06165203356191227,1.304102451487654,-1.0257917606209455
1.688077132471199,14.273658470211629,-0.06036565064872199,1.2832185497353947,-0.9925731351665196
1.6767277745526132,14.031798696680465,-0.05910127481007388,1.2626738032242477,-0.9606797809162534
1.6656165507837852,13.7938112411959,-0.05785897538811577,1.2424573071395966,-0.9300443008683253
1.654739266499509,13.559634730506083,-0.056638753920055844,1.2225585948584645,-0.90060336690111
1.6440917323736701,13.329209740524654,-0.05544055266772436,1.2029676154723683,-0.8722974343831376
1.6336697749601612,13.102478719349904,-0.05426426221131455,1.1836747126828913,-0.8450704794953123
1.6234692458701565,12.879385914172701,-0.053109728209788216,1.1646706049718718,-0.818869757246483
1.6134860297354408,12.65987730183954,-0.05197675741879951,1.145946366956133,-0.7936455783613916
1.603716051091214,12.443900522853532,-0.05086512304674356,1.127493411843957,-0.7693511033967736
1.5941552802973258,12.231404818611228,-0.04977456952050155,1.1093034749171307,-0.745942152599395
1.5847997386040527,12.022340971687104,-0.04870481672447906,1.0913685979684047,-0.7233770301612465
1.5756455024571256,11.816661248990286,-0.04765556376948966,1.0736811146296958,-0.701616361653852
1.5666887071265525,11.614319347629987,-0.046626492341806505,1.056233636531361,-0.680622943537343
1.5579255497347475,11.415270343336953,-0.0456172696771918,1.0390190402374302,-0.6603616037420585
1.5493522917514304,11.21947064129834,-0.04462755119983095,1.0220304549058665,-0.6407990724122272
1.5409652610155784,11.026877929272743,-0.043656982861769694,1.005261250626721,-0.6219038619839059
1.5327608533383221,10.837451132860721,-0.04270520321461198,0.9887050273945555,-0.6036461558437788
1.5247438806620672,10.651360880464711,-0.04168398285123008,0.9701397346687015,-0.6302588012653557
1.5169160444378829,10.46878758413937,-0.04071429319281474,0.9516844371770048,-0.658417362698913
1.509267700339473,10.289710618127046,-0.03979459205360653,0.9333362576895831,-0.688008732247971
1.5017894991852967,10.114109892252525,-0.03892331483245803,0.9150924357264372,-0.7189220082947826
1.494472390836019,9.941965830091824,-0.038098878317836225,0.896950323859877,-0.7510482433160949
1.487307627406889,9.77325934780427,-0.03731968409405791,0.8789073844301707,-0.784280195900699
1.4802867658682906,9.60797183354995,-0.03658412157539871,0.8609611866679312,-0.8185120858943844
1.473401670102902,9.446085127415621,-0.03589057069184848,0.8431094042197471,-0.8536393515965389
1.466644512483661,9.287581501772465,-0.0352374042475306,0.8253498130766423,-0.8895584079230077
1.4600077750329827,9.132443641988907,-0.03462298997013712,0.8076802899081688,-0.9261664044316977
1.4534842502204421,8.98065462742084,-0.03404569226713176,0.7900988108083284,-0.9633609820804538
1.4470670414533826,8.832197912600051,-0.03350387370191465,0.7726034504631424,-1.0010400275505198
1.4407495633126435,8.687057308539462,-0.03299589620060171,0.7551923817535844,-1.0391014239229324
1.4345255415838218,8.545216964070747,-0.03252012199752171,0.7378638758118388,-1.0774427964388797
1.4283890131331871,8.40666134712604,-0.03207491432494945,0.7206163025534916,-1.1159612520077065
1.4223343256765721,8.271375225870685,-0.03165863784994491,0.7034481317134011,-1.1545531110471206
1.416356137489277,8.139343649588135,-0.03126965885842534,0.6863579344187039,-1.1931136301484087
1.4104494171052724,8.010551929211172,-0.030906345183728024,0.6693443853387981,-1.2315367139542286
1.4046094430547988,7.88498561738535,-0.030567065873889174,0.652406265459318,-1.2697146145169051
1.3988318036908596,7.762630487940871,-0.030250190588630422,0.6355424655352053,-1.3075376162702235
1.3931123971571509,7.643472514637747,-0.029954088713565835,0.6187519902871436,-1.3448937045966742
1.387447431552702,7.527497849035946,-0.029677128175370313,0.6020339634160127,-1.38166821580432
1.3818334253519762,7.41469279732685,-0.029417673937532033,0.5853876335218428,-1.4177434661425807
1.3762672081434908,7.305043795944691,-0.02917408615178631,0.5688123810272018,-1.452998357284435
1.3707459217552151,7.198537385756179,-0.028944717935327685,0.5523077262202848,-1.4873079554847501
1.3652670218412164,7.09516018460296,-0.02872791273834354,0.5358733385504408,-1.5205430413927676
1.3598282800113533,6.994898857944438,-0.028522001260216142,0.5195090473287498,-1.5525696272550389
1.3544277865943821,6.897740087317366,-0.028325297865796687,0.5032148540088414,-1.5832484379996632
1.349063954134824,6.803670536292898,-0.028136096445341444,0.4869909462487047,-1.6124343524535363
1.3437355217354938,6.712676813570884,-0.027952665652869416,0.470837713983034,-1.6399758007267147
1.3384415603709423,6.6247454328045485,-0.027773243447672385,0.45475576776785975,-1.6657141136246743
1.333181479312449,6.539862768695588,-0.027596030852256606,0.43874595969488417,-1.6894828198536431
1.3279550338229358,6.458015008839446,-0.027419184826830336,0.42280940721186466,-1.7111068868150323
1.3227623343005939,6.379188100732755,-0.027240810145189438,0.4069475202269876,-1.730401901012738
1.3176038570735986,6.303367693278961,-0.02705895013897171,0.39116203191820487,-1.7471731846232987
1.3124804570755748,6.230539072044213,-0.02687157615601683,0.37545503371073863,-1.7612148457494086
1.3073933826632251,6.160687087423952,-0.026676575552927927,0.35982901492359787,-1.772308761501444
1.3023442928747158,6.093796074782993,-0.02647173801032807,0.34428690761281044,-1.7802234956296714
1.2973352774713915,6.029849765530969,-0.026254739919400357,0.32883213714532566,-1.7847131563924026
1.2923688801580797,5.968831187996418,-0.026023126536513043,0.31346867900783354,-1.7855162063109964
1.2874481254414283,5.910722556875463,-0.025774291533501636,0.2982011222653891,-1.7823542443199962
1.2825765496655468,5.855505149969794,-0.025505453475776665,0.28303473989953415,-1.7749307938478904
1.2777582368659728,5.803159170916967,-0.025213628625003308,0.26797556591968896,-1.762930149399514
1.2729978602163723,5.753663596690224,-0.02489559926552826,0.25303047857233896,-1.746016361897739
1.268300730022598,5.706996008861424,-0.02454787645841263,0.23820728804660865,-1.7238324831699259
1.2636728494697997,5.663132408064069,-0.02416665567630567,0.223514825609773,-1.6960002479419585
1.2591209796886134,5.62204701189172,-0.023747763073024817,0.208963028835992,-1.6621204551761068
1.254652716237728,5.583712037809416,-0.023286589041559058,0.1945630141356177,-1.6217744301955095
1.2502765799020295,5.54809747481724,-0.02277800396579303,0.18032712262412562,-1.5745271191623078
1.246002125939391,5.515170850977043,-0.02221624827250627,0.16626891779898623,-1.5199326066031922
1.2418400778363017,5.484897009029009,-0.021594784391592143,0.1524031027066543,-1.4575431762692244
1.2378024946745496,5.4572379098650785,-0.02090609099527233,0.13874530954526057,-1.3869234749960255
1.2339029860436401,5.432152494348426,-0.02014136827745812,0.12531169589319807,-1.3076718908706026
1.2301569961257683,5.40959664844117,-0.019290104542244366,0.11211826102528186,-1.2194518708195186
1.2265821907957628,5.38952333450321,-0.018339425247288498,0.09917978042693486,-1.1220363980711967
1.2231990008611022,5.371882970126013,-0.017273100380717697,0.0865082656488064,-1.0153687630431674
1.2200314048039824,5.356624146372802,-0.016070016010017195,0.07411093175342881,-0.8996410922810407
1.2171080819474807,5.343694759706594,-0.014701803532105604,0.061987875259305776,-0.7753870284011536
1.2144641448626388,5.333043546341784,-0.013129113150440816,0.05013016015972792,-0.6435739359570766
1.2121438049672812,5.324621785683739,-0.011295517327007775,0.038519952030235595,-0.5056614172848933
1.2102046717816002,5.318384467854994,-0.009116410943318854,0.02713602511446405,-0.3635707170392735
1.208725513269955,5.314289210219453,-0.006453678652945105,0.01597194999649527,-0.2194986807384785
1.2078245842221358,5.3122878840571595,-0.003029785008309711,0.005094641185543683,-0.07553463321869056
